634.977642221345	2486
635.719821695905	2498
636.461909203392	2492.19995117188
637.203904751776	2545.19995117188
637.945808349023	2560.60009765625
638.687620003102	2570.19995117188
639.42933972198	2598.39990234375
640.170967513616	2569.19995117188
640.912503385981	2531.39990234375
641.653947347041	2511
642.395299404758	2483
643.13655956709	2462.60009765625
643.877727842014	2428.19995117188
644.61880423748	2420
645.359788761455	2427.60009765625
646.100681421905	2448.60009765625
646.841482226789	2485
647.582191184074	2474.80004882813
648.322808301711	2444
649.06333358767	2460.19995117188
649.803767049909	2477.60009765625
650.544108696385	2502
651.28435853506	2530.19995117188
652.024516573894	2544.39990234375
652.764582820849	2549
653.504557283875	2558
654.244439970937	2561.39990234375
654.984230889991	2566
655.723930048995	2587
656.463537455909	2601.39990234375
657.203053118683	2585.60009765625
657.942477045275	2608.39990234375
658.681809243647	2579.39990234375
659.421049721747	2562.60009765625
660.160198487535	2581.80004882813
660.899255548962	2594.19995117188
661.638220913985	2615.19995117188
662.377094590559	2609.19995117188
663.115876586631	2637.60009765625
663.854566910165	2603.60009765625
664.593165569107	2626.60009765625
665.331672571406	2603.39990234375
666.07008792502	2583
666.808411637902	2579.80004882813
667.546643717996	2576.80004882813
668.284784173258	2583.60009765625
669.022833011641	2600.39990234375
669.760790241089	2611
670.498655869554	2565.39990234375
671.236429904987	2598.19995117188
671.97411235534	2585.60009765625
672.711703228551	2631.19995117188
673.449202532577	2668.39990234375
674.186610275364	2680.60009765625
674.923926464857	2705
675.661151109008	2727
676.398284215759	2716.39990234375
677.135325793058	2719.39990234375
677.87227584885	2726.80004882813
678.609134391082	2746.80004882813
679.345901427696	2741
680.082576966644	2753.19995117188
680.819161015861	2744.19995117188
681.555653583298	2708.80004882813
682.292054676895	2679.19995117188
683.028364304594	2662.19995117188
683.764582474344	2661.60009765625
684.500709194083	2670.60009765625
685.236744471752	2651.80004882813
685.972688315294	2642
686.708540732652	2674.80004882813
687.444301731762	2666.80004882813
688.179971320572	2672
688.915549507013	2635.19995117188
689.651036299034	2622.80004882813
690.386431704569	2619.60009765625
691.121735731559	2610.80004882813
691.85694838794	2606.39990234375
692.592069681652	2599
693.327099620632	2618.39990234375
694.062038212821	2621.19995117188
694.796885466149	2662.60009765625
695.531641388561	2687
696.266305987987	2705.19995117188
697.000879272367	2725.39990234375
697.735361249632	2749.39990234375
698.469751927722	2746.19995117188
699.204051314568	2755
699.938259418107	2723.19995117188
700.672376246272	2705.60009765625
701.406401806997	2691
702.140336108212	2682.60009765625
702.874179157855	2680.80004882813
703.607930963856	2686.60009765625
704.341591534147	2665.39990234375
705.07516087666	2672.39990234375
705.808638999324	2672.60009765625
706.542025910073	2685.80004882813
707.275321616841	2706.19995117188
708.008526127549	2730.60009765625
708.741639450132	2691.19995117188
709.474661592521	2705.60009765625
710.207592562641	2709
710.940432368424	2739.19995117188
711.673181017796	2721
712.405838518687	2707
713.138404879025	2704.39990234375
713.870880106731	2672
714.603264209738	2717.39990234375
715.335557195971	2746.60009765625
716.067759073357	2725.39990234375
716.799869849816	2751
717.531889533281	2760.19995117188
718.263818131673	2742.39990234375
718.995655652917	2724.19995117188
719.727402104934	2759.39990234375
720.45905749565	2734.39990234375
721.19062183299	2701.19995117188
721.922095124877	2711.39990234375
722.653477379231	2701.19995117188
723.384768603973	2698
724.11596880703	2718.60009765625
724.847077996319	2720.39990234375
725.578096179762	2739
726.309023365281	2747.80004882813
727.039859560792	2720.60009765625
727.770604774222	2744
728.501259013484	2742
729.231822286501	2749.80004882813
729.962294601191	2744.60009765625
730.692675965469	2734.60009765625
731.42296638726	2703.19995117188
732.153165874472	2698.19995117188
732.883274435032	2713.80004882813
733.613292076851	2746
734.343218807843	2761.80004882813
735.07305463593	2757.60009765625
735.802799569028	2727.39990234375
736.532453615048	2732.80004882813
737.262016781904	2721
737.991489077517	2733.80004882813
738.720870509794	2727.19995117188
739.450161086654	2758.39990234375
740.179360816009	2750.19995117188
740.908469705772	2774.39990234375
741.637487763854	2827.39990234375
742.366414998168	2797
743.095251416623	2834.39990234375
743.823997027137	2802.80004882813
744.552651837618	2795.39990234375
745.281215855978	2785.19995117188
746.009689090124	2777.60009765625
746.738071547964	2737.19995117188
747.466363237419	2730.39990234375
748.194564166384	2719.39990234375
748.92267434278	2709
749.650693774504	2725.39990234375
750.378622469476	2734.60009765625
751.106460435596	2762.39990234375
751.834207680771	2774.80004882813
752.561864212909	2835.19995117188
753.289430039919	2835.60009765625
754.016905169707	2828
754.744289610175	2776
755.471583369231	2798.39990234375
756.198786454782	2777
756.925898874728	2767.80004882813
757.652920636979	2762.39990234375
758.379851749433	2784.80004882813
759.106692219996	2801
759.833442056572	2817.80004882813
760.560101267063	2867
761.28666985937	2875.19995117188
762.0131478414	2858.60009765625
762.739535221046	2854.19995117188
763.465832006219	2838.60009765625
764.192038204812	2850
764.918153824731	2823.80004882813
765.644178873872	2860.80004882813
766.370113360138	2873
767.095957291425	2892.60009765625
767.821710675635	2915.60009765625
768.547373520665	2947.19995117188
769.272945834415	2968.39990234375
769.998427624781	3009
770.723818899658	3022.80004882813
771.449119666949	3035.39990234375
772.174329934546	3041
772.899449710347	3053.60009765625
773.624479002248	3063.39990234375
774.349417818145	3070.80004882813
775.074266165934	3063.80004882813
775.799024053505	3061.60009765625
776.523691488757	3033.80004882813
777.248268479582	3000.19995117188
777.972755033877	2966.39990234375
778.69715115953	2947.39990234375
779.421456864441	2903
780.145672156493	2910.19995117188
780.869797043587	2896.19995117188
781.593831533611	2922.80004882813
782.317775634457	2935.39990234375
783.041629354012	2914.80004882813
783.765392700174	2896.60009765625
784.489065680828	2879.80004882813
785.212648303866	2818.19995117188
785.936140577177	2816.39990234375
786.659542508652	2857.39990234375
787.382854106174	2841.80004882813
788.106075377639	2863.60009765625
788.829206330928	2861.60009765625
789.552246973933	2912.80004882813
790.275197314542	2913
790.998057360638	2909
791.720827120108	2864
792.443506600841	2840.80004882813
793.166095810722	2835.80004882813
793.888594757635	2812.80004882813
794.611003449465	2852.60009765625
795.333321894098	2870.80004882813
796.055550099417	2916
796.777688073308	2931
797.499735823654	2933.39990234375
798.221693358334	2923.19995117188
798.943560685235	2889.19995117188
799.665337812239	2905.19995117188
800.387024747226	2927.19995117188
801.108621498075	2910.80004882813
801.830128072674	2917.60009765625
802.551544478902	2903.80004882813
803.272870724636	2855.60009765625
803.994106817761	2867.19995117188
804.715252766148	2852
805.436308577687	2839.60009765625
806.157274260251	2825
806.878149821721	2844.39990234375
807.598935269973	2842.19995117188
808.319630612886	2846.19995117188
809.040235858336	2855.39990234375
809.760751014202	2853.39990234375
810.481176088361	2859.80004882813
811.201511088685	2852.80004882813
811.921756023059	2834.39990234375
812.641910899347	2831.80004882813
813.361975725432	2828.80004882813
814.081950509188	2799.60009765625
814.801835258489	2808.80004882813
815.521629981206	2832
816.241334685218	2816
816.960949378392	2805.39990234375
817.680474068606	2832
818.399908763731	2832.39990234375
819.11925347164	2828.60009765625
819.838508200202	2827
820.55767295729	2803.39990234375
821.276747750778	2814.19995117188
821.995732588531	2818.80004882813
822.714627478425	2849.19995117188
823.433432428327	2868.80004882813
824.152147446105	2854.39990234375
824.870772539632	2868.39990234375
825.589307716775	2896.80004882813
826.307752985404	2898.39990234375
827.026108353378	2881.39990234375
827.744373828579	2870.80004882813
828.462549418867	2846.19995117188
829.180635132107	2861.39990234375
829.898630976168	2878
830.616536958915	2885.19995117188
831.334353088218	2888.80004882813
832.052079371938	2905.39990234375
832.769715817942	2902
833.487262434092	2885.19995117188
834.204719228255	2887.80004882813
834.922086208293	2878.39990234375
835.639363382073	2871.80004882813
836.356550757456	2886.60009765625
837.073648342304	2867.39990234375
837.790656144484	2865.19995117188
838.507574171847	2857
839.22440243227	2879.80004882813
839.941140933601	2860
840.657789683706	2854
841.374348690448	2848.39990234375
842.090817961686	2870.19995117188
842.807197505276	2879
843.523487329083	2862.39990234375
844.23968744096	2854.19995117188
844.955797848771	2812.60009765625
845.671818560374	2827.19995117188
846.387749583622	2805.60009765625
847.103590926378	2786
847.819342596497	2786
848.535004601833	2806.39990234375
849.25057695025	2798.39990234375
849.966059649598	2784.80004882813
850.681452707735	2796.80004882813
851.396756132513	2837.39990234375
852.111969931789	2844
852.827094113419	2854.19995117188
853.542128685257	2857
854.257073655158	2889.60009765625
854.971929030969	2875.80004882813
855.686694820551	2844
856.40137103175	2847.19995117188
857.115957672423	2866
857.830454750423	2859.80004882813
858.544862273597	2861.19995117188
859.259180249797	2875.60009765625
859.97340868688	2891.39990234375
860.687547592688	2915.80004882813
861.401596975075	2908
862.115556841891	2919
862.829427200985	2927.19995117188
863.543208060205	2917.60009765625
864.256899427402	2896.19995117188
864.970501310423	2845.60009765625
865.684013717114	2867.39990234375
866.397436655325	2879.80004882813
867.110770132901	2859.60009765625
867.824014157691	2828.19995117188
868.537168737542	2833.60009765625
869.250233880299	2832
869.963209593803	2851.60009765625
870.676095885902	2837.39990234375
871.388892764445	2844
872.101600237276	2843.19995117188
872.814218312233	2825.80004882813
873.526746997165	2828.19995117188
874.239186299914	2845.39990234375
874.951536228323	2878.60009765625
875.663796790231	2863.80004882813
876.375967993487	2879.80004882813
877.088049845928	2840.80004882813
877.8000423554	2843.60009765625
878.511945529739	2798.19995117188
879.22375937679	2796
879.935483904388	2791.80004882813
880.64711912038	2793.39990234375
881.358665032604	2788.60009765625
882.070121648892	2802.80004882813
882.78148897709	2797.80004882813
883.492767025039	2826.60009765625
884.203955800571	2839.60009765625
884.915055311525	2850.60009765625
885.626065565741	2819.39990234375
886.336986571053	2806.80004882813
887.047818335298	2809.19995117188
887.758560866315	2804.39990234375
888.469214171937	2811
889.179778260005	2796.19995117188
889.890253138347	2810.39990234375
890.600638814803	2814.80004882813
891.310935297204	2801
892.021142593385	2800.80004882813
892.731260711183	2840.19995117188
893.441289658429	2832.39990234375
894.15122944295	2829.80004882813
894.861080072591	2808.19995117188
895.570841555173	2804.60009765625
896.280513898534	2804.39990234375
896.990097110503	2847.19995117188
897.699591198913	2881.39990234375
898.408996171595	2875
899.118312036375	2885.80004882813
899.827538801089	2876.19995117188
900.536676473561	2891.39990234375
901.245725061628	2895
901.954684573109	2909
902.663555015838	2920
903.372336397644	2947
904.081028726351	2950.39990234375
904.789632009793	2924.19995117188
905.49814625579	2933.19995117188
906.20657147217	2939.39990234375
906.914907666765	2895.19995117188
907.623154847391	2888.19995117188
908.331313021885	2903.60009765625
909.039382198064	2909.80004882813
909.747362383754	2916.19995117188
910.455253586782	2903.39990234375
911.163055814972	2919
911.870769076143	2907.80004882813
912.578393378126	2908
913.285928728738	2901.60009765625
913.993375135802	2890.19995117188
914.700732607145	2907.60009765625
915.408001150579	2923.80004882813
916.115180773937	2920.60009765625
916.822271485037	2916.39990234375
917.529273291693	2912.60009765625
918.236186201733	2888.19995117188
918.943010222971	2892.80004882813
919.649745363234	2911.80004882813
920.356391630333	2894.39990234375
921.062949032096	2859.39990234375
921.769417576333	2879.19995117188
922.475797270864	2878.39990234375
923.182088123512	2878.60009765625
923.888290142089	2901.39990234375
924.594403334414	2925.80004882813
925.300427708304	2949
926.006363271572	2932.60009765625
926.712210032039	2945.60009765625
927.417967997522	2939.19995117188
928.123637175827	2952.39990234375
928.829217574776	2929.80004882813
929.534709202184	2915.80004882813
930.240112065859	2934.60009765625
930.945426173621	2930.60009765625
931.650651533283	2917.60009765625
932.355788152653	2902
933.060836039547	2900.60009765625
933.765795201776	2900
934.470665647153	2899.19995117188
935.175447383492	2915
935.880140418599	2910
936.584744760286	2899
937.289260416366	2922.39990234375
937.993687394647	2938.19995117188
938.698025702939	2950.39990234375
939.402275349051	2970.19995117188
940.106436340793	2996.80004882813
940.810508685976	2993.19995117188
941.5144923924	2969
942.21838746788	2957
942.922193920223	2925.39990234375
943.625911757231	2935.80004882813
944.329540986716	2918.80004882813
945.033081616484	2903.80004882813
945.736533654334	2878.80004882813
946.439897108083	2879.80004882813
947.143171985529	2859.19995117188
947.846358294477	2889
948.549456042732	2901.60009765625
949.2524652381	2906
949.955385888382	2937
950.658218001384	2943.39990234375
951.360961584907	2933.80004882813
952.063616646755	2902
952.766183194733	2920
953.468661236636	2903
954.171050780271	2906.39990234375
954.873351833437	2920.80004882813
955.575564403935	2905.39990234375
956.277688499565	2909.80004882813
956.97972412813	2895
957.681671297424	2872
958.383530015255	2851.39990234375
959.085300289414	2860.19995117188
959.786982127703	2870.60009765625
960.488575537918	2855.39990234375
961.190080527859	2847.60009765625
961.891497105327	2859.80004882813
962.592825278111	2844
963.294065054012	2859.19995117188
963.995216440829	2876.80004882813
964.696279446353	2879
965.397254078383	2913.19995117188
966.098140344714	2917.19995117188
966.798938253139	2920.19995117188
967.499647811456	2885.80004882813
968.200269027458	2879.60009765625
968.900801908937	2877.19995117188
969.601246463685	2859
970.3016026995	2841.60009765625
971.001870624169	2834.80004882813
971.702050245491	2837.19995117188
972.402141571249	2827.80004882813
973.102144609245	2818.39990234375
973.802059367267	2835.39990234375
974.501885853103	2880
975.201624074541	2905.80004882813
975.901274039379	2922.39990234375
976.600835755399	2956.19995117188
977.3003092304	2911.60009765625
977.999694472158	2926.19995117188
978.698991488473	2933.39990234375
979.39820028713	2919.19995117188
980.097320875915	2896.19995117188
980.796353262618	2896.80004882813
981.495297455024	2936.60009765625
982.194153460919	2921
982.892921288093	2919.60009765625
983.591600944331	2941.39990234375
984.290192437419	2921.39990234375
984.98869577514	2897.80004882813
985.687110965282	2893.39990234375
986.385438015629	2897.80004882813
987.083676933961	2893
987.781827728069	2880.80004882813
988.479890405732	2885.80004882813
989.177864974732	2861.39990234375
989.875751442857	2867.19995117188
990.573549817888	2889.80004882813
991.271260107602	2899.60009765625
991.968882319786	2873.39990234375
992.666416462217	2870
993.363862542681	2861.60009765625
994.061220568959	2838.60009765625
994.758490548823	2823.60009765625
995.455672490061	2851.19995117188
996.152766400451	2889
996.849772287773	2890
997.5466901598	2891.19995117188
998.243520024317	2896.19995117188
998.940261889097	2869
999.636915761923	2871.60009765625
1000.33348165057	2811.19995117188
1001.02995956281	2835.60009765625
1001.72634950643	2822.80004882813
1002.42265148919	2839.19995117188
1003.11886551889	2884.60009765625
1003.81499160328	2897.19995117188
1004.51102975015	2914.39990234375
1005.20697996727	2921.60009765625
1005.90284226242	2905.60009765625
1006.59861664337	2888.60009765625
1007.2943031179	2931.19995117188
1007.98990169377	2959.19995117188
1008.68541237876	2978.80004882813
1009.38083518064	2962.19995117188
1010.07617010719	2963.80004882813
1010.77141716617	2946
1011.46657636536	2949.60009765625
1012.16164771253	2918.80004882813
1012.85663121546	2894.80004882813
1013.5515268819	2884.39990234375
1014.24633471963	2886.80004882813
1014.94105473642	2861.80004882813
1015.63568694004	2906.80004882813
1016.33023133826	2918.39990234375
1017.02468793885	2946.39990234375
1017.71905674957	2943.80004882813
1018.41333777819	2929
1019.10753103249	2955
1019.80163652022	2928
1020.49565424916	2926.60009765625
1021.18958422707	2935.19995117188
1021.88342646171	2934
1022.57718096085	2912.60009765625
1023.27084773227	2904.60009765625
1023.96442678371	2877.60009765625
1024.65791812296	2847
1025.35132175776	2815
1026.04463769589	2796.80004882813
1026.73786594511	2820.39990234375
1027.43100651318	2807.80004882813
1028.12405940786	2817
1028.81702463692	2841.60009765625
1029.50990220812	2837.80004882813
1030.20269212921	2836
1030.89539440798	2848
1031.58800905216	2852
1032.28053606952	2807
1032.97297546784	2809.39990234375
1033.66532725485	2859
1034.35759143832	2867.19995117188
1035.04976802602	2903.80004882813
1035.7418570257	2873.39990234375
1036.43385844511	2886.19995117188
1037.12577229202	2886.39990234375
1037.81759857419	2905
1038.50933729937	2900.39990234375
1039.20098847531	2913.19995117188
1039.89255210978	2941
1040.58402821053	2918.80004882813
1041.27541678532	2893.19995117188
1041.96671784191	2851.80004882813
1042.65793138804	2839.19995117188
1043.34905743147	2852
1044.04009597996	2888.60009765625
1044.73104704125	2906.60009765625
1045.42191062312	2900.80004882813
1046.1126867333	2904
1046.80337537955	2891
1047.49397656962	2891
1048.18449031127	2849.80004882813
1048.87491661225	2844.19995117188
1049.5652554803	2841
1050.25550692319	2826.19995117188
1050.94567094865	2817.60009765625
1051.63574756444	2853.39990234375
1052.32573677832	2896
1053.01563859803	2923.80004882813
1053.70545303131	2911.19995117188
1054.39518008592	2920.39990234375
1055.08481976961	2902.60009765625
1055.77437209013	2879.80004882813
1056.46383705522	2914.39990234375
1057.15321467262	2883
1057.8425049501	2878.80004882813
1058.53170789539	2829.39990234375
1059.22082351624	2829.80004882813
1059.9098518204	2851.39990234375
1060.59879281561	2824.19995117188
1061.28764650962	2834.39990234375
1061.97641291016	2868
1062.665092025	2830.39990234375
1063.35368386187	2839
1064.04218842851	2830
1064.73060573268	2813.39990234375
1065.4189357821	2828.60009765625
1066.10717858452	2804.60009765625
1066.7953341477	2802
1067.48340247936	2789.80004882813
1068.17138358725	2783.60009765625
1068.85927747912	2800.39990234375
1069.5470841627	2832.80004882813
1070.23480364573	2821.80004882813
1070.92243593595	2822
1071.60998104111	2863
1072.29743896894	2864.80004882813
1072.98480972718	2848
1073.67209332357	2902
1074.35928976585	2893
1075.04639906176	2885
1075.73342121903	2905
1076.42035624541	2904.19995117188
1077.10720414862	2901.80004882813
1077.79396493641	2937.39990234375
1078.48063861651	2929.19995117188
1079.16722519666	2894
1079.85372468459	2904.39990234375
1080.54013708804	2866.39990234375
1081.22646241474	2882.80004882813
1081.91270067243	2868.60009765625
1082.59885186884	2851.39990234375
1083.28491601171	2890.39990234375
1083.97089310877	2910.39990234375
1084.65678316774	2925
1085.34258619637	2940.39990234375
1086.02830220239	2937.19995117188
1086.71393119352	2941.80004882813
1087.39947317751	2919.19995117188
1088.08492816207	2929.80004882813
1088.77029615495	2939.80004882813
1089.45557716387	2930
1090.14077119656	2945.80004882813
1090.82587826075	2918.60009765625
1091.51089836417	2903.39990234375
1092.19583151456	2905
1092.88067771963	2892.19995117188
1093.56543698712	2867.60009765625
1094.25010932475	2852.80004882813
1094.93469474026	2825
1095.61919324137	2843.80004882813
1096.3036048358	2845.60009765625
1096.98792953129	2828.80004882813
1097.67216733555	2863.60009765625
1098.35631825632	2894.60009765625
1099.04038230132	2896
1099.72435947828	2904.39990234375
1100.40824979492	2848.60009765625
1101.09205325895	2822.39990234375
1101.77576987812	2760.60009765625
1102.45939966014	2755.80004882813
1103.14294261273	2748.60009765625
1103.82639874362	2733
1104.50976806054	2735.80004882813
1105.19305057119	2786.19995117188
1105.87624628331	2810.80004882813
1106.55935520461	2858.19995117188
1107.24237734283	2913.19995117188
1107.92531270566	2871.80004882813
1108.60816130085	2913.39990234375
1109.2909231361	2928.39990234375
1109.97359821914	2958.80004882813
1110.65618655768	2970
1111.33868815946	2993.80004882813
1112.02110303217	2951.60009765625
1112.70343118355	2980
1113.3856726213	2948.80004882813
1114.06782735316	2923
1114.74989538683	2916.60009765625
1115.43187673002	2877.19995117188
1116.11377139047	2867.39990234375
1116.79557937588	2897.80004882813
1117.47730069397	2913.19995117188
1118.15893535245	2894.60009765625
1118.84048335904	2917.80004882813
1119.52194472146	2903.80004882813
1120.20331944741	2919.39990234375
1120.88460754462	2907
1121.56580902079	2915.60009765625
1122.24692388364	2948.80004882813
1122.92795214088	2959.19995117188
1123.60889380022	2995.60009765625
1124.28974886938	3001.60009765625
1124.97051735606	3030.39990234375
1125.65119926799	3022
1126.33179461286	3001.60009765625
1127.0123033984	2974.80004882813
1127.6927256323	2972
1128.37306132229	2953.60009765625
1129.05331047606	2966
1129.73347310134	2966
1130.41354920582	2964
1131.09353879722	2934.19995117188
1131.77344188324	2928.39990234375
1132.45325847159	2934.60009765625
1133.13298856999	2942.19995117188
1133.81263218612	2968
1134.49218932772	2957.19995117188
1135.17166000247	2943.19995117188
1135.85104421809	2949.39990234375
1136.53034198227	2949.80004882813
1137.20955330274	2884.19995117188
1137.88867818718	2894.39990234375
1138.56771664331	2885.60009765625
1139.24666867883	2907.60009765625
1139.92553430144	2905
1140.60431351885	2901.19995117188
1141.28300633876	2921.60009765625
1141.96161276887	2969.80004882813
1142.64013281689	2963.60009765625
1143.31856649051	2987.39990234375
1143.99691379744	2969
1144.67517474538	2943.19995117188
1145.35334934203	2906.39990234375
1146.03143759509	2909.39990234375
1146.70943951226	2877.19995117188
1147.38735510125	2861
1148.06518436974	2866.39990234375
1148.74292732545	2850
1149.42058397606	2851
1150.09815432928	2849.39990234375
1150.7756383928	2891.60009765625
1151.45303617432	2892.39990234375
1152.13034768155	2918.80004882813
1152.80757292217	2951.39990234375
1153.48471190389	3011.19995117188
1154.16176463439	2982.39990234375
1154.83873112138	2926.80004882813
1155.51561137255	2929.80004882813
1156.1924053956	2923.19995117188
1156.86911319822	2919.39990234375
1157.5457347881	2934.60009765625
1158.22227017294	2918
1158.89871936044	2905.39990234375
1159.57508235828	2905.19995117188
1160.25135917416	2871.19995117188
1160.92754981578	2874.80004882813
1161.60365429081	2919.39990234375
1162.27967260697	2914.39990234375
1162.95560477193	2910
1163.63145079339	2917.60009765625
1164.30721067904	2891.19995117188
1164.98288443657	2906.80004882813
1165.65847207367	2909.60009765625
1166.33397359803	2928.19995117188
1167.00938901735	2921.60009765625
1167.6847183393	2926.39990234375
1168.35996157157	2939.19995117188
1169.03511872187	2920.19995117188
1169.71018979787	2961.19995117188
1170.38517480726	2928.60009765625
1171.06007375773	2909.80004882813
1171.73488665696	2880.60009765625
1172.40961351265	2885.60009765625
1173.08425433247	2842.39990234375
1173.75880912412	2860.19995117188
1174.43327789528	2894.19995117188
1175.10766065364	2921
1175.78195740687	2961.60009765625
1176.45616816267	2972.80004882813
1177.13029292871	2944
1177.80433171269	2928.19995117188
1178.47828452229	2923
1179.15215136518	2955.60009765625
1179.82593224905	2939
1180.49962718159	2957.60009765625
1181.17323617047	2966.60009765625
1181.84675922337	2960.60009765625
1182.52019634799	2978.19995117188
1183.193547552	2971.39990234375
1183.86681284307	2985.60009765625
1184.53999222889	2953.39990234375
1185.21308571714	2963.39990234375
1185.8860933155	2940
1186.55901503165	2951.19995117188
1187.23185087326	2931.80004882813
1187.90460084802	2965.60009765625
1188.5772649636	2972.19995117188
1189.24984322768	2963
1189.92233564794	2985.60009765625
1190.59474223206	2964.80004882813
1191.2670629877	2989.60009765625
1191.93929792255	2994.19995117188
1192.61144704428	2976
1193.28351036058	2959.39990234375
1193.9554878791	2937.19995117188
1194.62737960754	2935.19995117188
1195.29918555356	2929.19995117188
1195.97090572483	2976.80004882813
1196.64254012903	2975.39990234375
1197.31408877384	2982.39990234375
1197.98555166693	2986
1198.65692881596	2976
1199.32822022862	2959.19995117188
1199.99942591256	2930.60009765625
1200.67054587548	2904
1201.34158012503	2890
1202.01252866889	2870.60009765625
1202.68339151473	2885.60009765625
1203.35416867021	2893.60009765625
1204.02486014301	2891
1204.6954659408	2913.39990234375
1205.36598607124	2934.80004882813
1206.03642054201	2929.19995117188
1206.70676936078	2932.80004882813
1207.3770325352	2922.39990234375
1208.04721007295	2906
1208.7173019817	2884.80004882813
1209.38730826911	2885.80004882813
1210.05722894285	2890.19995117188
1210.72706401059	2891
1211.39681347999	2898
1212.06647735872	2876.19995117188
1212.73605565444	2883.19995117188
1213.40554837481	2902
1214.07495552751	2902.19995117188
1214.74427712019	2910.39990234375
1215.41351316052	2925.19995117188
1216.08266365617	2930.80004882813
1216.75172861479	2884.39990234375
1217.42070804405	2886.80004882813
1218.0896019516	2880.19995117188
1218.75841034513	2883
1219.42713323227	2946
1220.0957706207	2951.80004882813
1220.76432251808	2988.60009765625
1221.43278893207	2989
1222.10116987032	2976.80004882813
1222.7694653405	2989.80004882813
1223.43767535026	2996.39990234375
1224.10579990727	2975.80004882813
1224.77383901918	2971.39990234375
1225.44179269366	2963.39990234375
1226.10966093835	2963
1226.77744376093	2973.80004882813
1227.44514116904	3000
1228.11275317034	2986
1228.78027977249	2978.60009765625
1229.44772098315	2955.60009765625
1230.11507680996	2921
1230.7823472606	2928.80004882813
1231.44953234271	2908.60009765625
1232.11663206394	2873.60009765625
1232.78364643195	2874
1233.4505754544	2895.80004882813
1234.11741913894	2895.60009765625
1234.78417749322	2911.39990234375
1235.45085052489	2921
1236.11743824162	2898.19995117188
1236.78394065104	2914.80004882813
1237.45035776082	2909.80004882813
1238.1166895786	2958.60009765625
1238.78293611204	2946.60009765625
1239.44909736878	2949.19995117188
1240.11517335648	2917.39990234375
1240.78116408279	2933
1241.44706955535	2959.19995117188
1242.11288978182	2920.80004882813
1242.77862476985	2905.39990234375
1243.44427452708	2888
1244.10983906116	2886
1244.77531837974	2887.80004882813
1245.44071249047	2866.60009765625
1246.106021401	2865.19995117188
1246.77124511898	2893.19995117188
1247.43638365204	2899
1248.10143700783	2898.19995117188
1248.76640519401	2885.80004882813
1249.43128821822	2877.60009765625
1250.0960860881	2902.19995117188
1250.76079881129	2902.80004882813
1251.42542639545	2898.80004882813
1252.08996884822	2880.39990234375
1252.75442617723	2862
1253.41879839014	2871.80004882813
1254.08308549458	2905.19995117188
1254.74728749821	2917
1255.41140440866	2945.39990234375
1256.07543623357	2893.19995117188
1256.73938298059	2905.19995117188
1257.40324465735	2875
1258.0670212715	2854.60009765625
1258.73071283068	2873.80004882813
1259.39431934253	2897.39990234375
1260.05784081468	2857.60009765625
1260.72127725479	2859
1261.38462867049	2837
1262.0478950694	2851.80004882813
1262.71107645919	2862.39990234375
1263.37417284748	2846.60009765625
1264.03718424191	2877.19995117188
1264.70011065011	2851.80004882813
1265.36295207974	2881.19995117188
1266.02570853841	2861.60009765625
1266.68838003378	2837.80004882813
1267.35096657346	2810.39990234375
1268.01346816511	2799.39990234375
1268.67588481636	2777.60009765625
1269.33821653483	2777.19995117188
1270.00046332817	2832.39990234375
1270.66262520401	2872
1271.32470216998	2866.80004882813
1271.98669423372	2828.80004882813
1272.64860140285	2828
1273.31042368503	2823
1273.97216108786	2851.60009765625
1274.633813619	2860.39990234375
1275.29538128606	2869.80004882813
1275.95686409669	2906.19995117188
1276.6182620585	2885.39990234375
1277.27957517914	2895.39990234375
1277.94080346624	2881.19995117188
1278.60194692741	2882.39990234375
1279.2630055703	2911.80004882813
1279.92397940253	2923.80004882813
1280.58486843173	2916.39990234375
1281.24567266552	2889.39990234375
1281.90639211155	2869.19995117188
1282.56702677743	2861.60009765625
1283.2275766708	2862.80004882813
1283.88804179927	2837
1284.54842217049	2808.60009765625
1285.20871779206	2806
1285.86892867163	2827.19995117188
1286.52905481681	2862.80004882813
1287.18909623523	2895.60009765625
1287.84905293452	2913.80004882813
1288.5089249223	2935.19995117188
1289.16871220619	2923.19995117188
1289.82841479383	2930
1290.48803269282	2933.39990234375
1291.1475659108	2911.60009765625
1291.80701445539	2878.80004882813
1292.46637833421	2817.19995117188
1293.12565755489	2790.60009765625
1293.78485212504	2775.19995117188
1294.44396205229	2822.19995117188
1295.10298734425	2806.39990234375
1295.76192800856	2798.60009765625
1296.42078405283	2777.80004882813
1297.07955548467	2795.39990234375
1297.73824231171	2795.80004882813
1298.39684454158	2811.19995117188
1299.05536218188	2812.80004882813
1299.71379524023	2855.39990234375
1300.37214372427	2852.19995117188
1301.03040764159	2818.80004882813
1301.68858699983	2821.60009765625
1302.34668180659	2825.60009765625
1303.0046920695	2858.80004882813
1303.66261779617	2871.80004882813
1304.32045899422	2846.60009765625
1304.97821567126	2855.19995117188
1305.63588783492	2846.80004882813
1306.29347549279	2828.39990234375
1306.95097865251	2847.39990234375
1307.60839732168	2869.19995117188
1308.26573150791	2922.39990234375
1308.92298121883	2905.60009765625
1309.58014646204	2888.60009765625
1310.23722724517	2908.39990234375
1310.89422357581	2907.19995117188
1311.55113546158	2918.39990234375
1312.2079629101	2924
1312.86470592898	2944.19995117188
1313.52136452582	2959.39990234375
1314.17793870824	2960.80004882813
1314.83442848386	2973.80004882813
1315.49083386027	2948.39990234375
1316.14715484509	2952.60009765625
1316.80339144594	2972.60009765625
1317.45954367041	2961.19995117188
1318.11561152611	2986
1318.77159502067	2977.19995117188
1319.42749416168	2984.19995117188
1320.08330895674	2976.19995117188
1320.73903941348	2946.39990234375
1321.3946855395	2933.19995117188
1322.0502473424	2943.60009765625
1322.70572482978	2920.39990234375
1323.36111800926	2916.19995117188
1324.01642688845	2907.19995117188
1324.67165147494	2931.19995117188
1325.32679177634	2908.80004882813
1325.98184780025	2929.19995117188
1326.63681955429	2930.60009765625
1327.29170704605	2912.60009765625
1327.94651028314	2916.39990234375
1328.60122927316	2896.19995117188
1329.25586402371	2901.19995117188
1329.9104145424	2882.80004882813
1330.56488083683	2877.60009765625
1331.2192629146	2860.80004882813
1331.87356078331	2854.80004882813
1332.52777445056	2881
1333.18190392395	2902.39990234375
1333.83594921109	2865.80004882813
1334.48991031958	2846
1335.143787257	2850
1335.79758003097	2850.60009765625
1336.45128864908	2866
1337.10491311893	2833.39990234375
1337.75845344813	2850.19995117188
1338.41190964425	2838.60009765625
1339.06528171491	2833.39990234375
1339.71856966771	2819.39990234375
1340.37177351023	2806.60009765625
1341.02489325007	2791.60009765625
1341.67792889484	2791.19995117188
1342.33088045212	2744.80004882813
1342.98374792952	2749.39990234375
1343.63653133462	2769.80004882813
1344.28923067503	2781.39990234375
1344.94184595833	2814
1345.59437719212	2837.80004882813
1346.246824384	2857
1346.89918754155	2851.80004882813
1347.55146667238	2862.60009765625
1348.20366178407	2865.80004882813
1348.85577288421	2866.39990234375
1349.50779998041	2851.19995117188
1350.15974308024	2835.39990234375
1350.8116021913	2865.19995117188
1351.46337732119	2869
1352.11506847748	2889.80004882813
1352.76667566778	2906.39990234375
1353.41819889967	2895.19995117188
1354.06963818074	2901.39990234375
1354.72099351858	2907.80004882813
1355.37226492079	2903.60009765625
1356.02345239494	2934.19995117188
1356.67455594862	2966.19995117188
1357.32557558943	3017.39990234375
1357.97651132496	3038.19995117188
1358.62736316277	3042
1359.27813111048	3045.80004882813
1359.92881517565	3068.80004882813
1360.57941536589	3069.60009765625
1361.22993168876	3085
1361.88036415186	3107.80004882813
1362.53071276278	3120.60009765625
1363.1809775291	3157.39990234375
1363.8311584584	3160.19995117188
1364.48125555826	3146.19995117188
1365.13126883627	3088.39990234375
1365.78119830001	3063
1366.43104395707	3013.39990234375
1367.08080581503	2978.19995117188
1367.73048388147	2938.80004882813
1368.38007816397	2933
1369.02958867011	2951.39990234375
1369.67901540748	2970.19995117188
1370.32835838365	2951.39990234375
1370.9776176062	2942.80004882813
1371.62679308273	2945.60009765625
1372.27588482079	2969.80004882813
1372.92489282798	2967
1373.57381711188	2973.39990234375
1374.22265768006	2954
1374.87141454009	2921.39990234375
1375.52008769957	2899.19995117188
1376.16867716606	2915.80004882813
1376.81718294715	2929.60009765625
1377.4656050504	2904.80004882813
1378.1139434834	2927.60009765625
1378.76219825373	2927
1379.41036936895	2927.39990234375
1380.05845683664	2917.60009765625
1380.70646066439	2916.60009765625
1381.35438085976	2890.39990234375
1382.00221743032	2895.39990234375
1382.64997038366	2925.19995117188
1383.29763972735	2888.60009765625
1383.94522546895	2898.80004882813
1384.59272761605	2888
1385.24014617621	2879
1385.88748115701	2876.60009765625
1386.53473256602	2855
1387.18190041081	2866.60009765625
1387.82898469895	2866.80004882813
1388.47598543802	2852.39990234375
1389.12290263558	2812
1389.7697362992	2821.60009765625
1390.41648643646	2788.60009765625
1391.06315305492	2779.19995117188
1391.70973616215	2734
1392.35623576573	2726.19995117188
1393.00265187321	2764.60009765625
1393.64898449217	2771.60009765625
1394.29523363018	2788.60009765625
1394.94139929481	2807.60009765625
1395.58748149361	2779.39990234375
1396.23348023415	2764
1396.87939552402	2749.60009765625
1397.52522737076	2729
1398.17097578195	2671.39990234375
1398.81664076514	2649
1399.46222232792	2664.39990234375
1400.10772047783	2625.19995117188
1400.75313522245	2630.19995117188
1401.39846656934	2686.19995117188
1402.04371452605	2725
1402.68887910016	2764.39990234375
1403.33396029924	2749.60009765625
1403.97895813083	2782.19995117188
1404.6238726025	2796.19995117188
1405.26870372182	2821.60009765625
1405.91345149634	2814.80004882813
1406.55811593363	2776.60009765625
1407.20269704125	2750.80004882813
1407.84719482676	2781.39990234375
1408.49160929772	2757.60009765625
1409.13594046168	2751.60009765625
1409.78018832622	2751.19995117188
1410.42435289887	2763
1411.06843418722	2753
1411.7124321988	2726.60009765625
1412.3563469412	2764
1413.00017842194	2793.80004882813
1413.64392664861	2811.80004882813
1414.28759162875	2854
1414.93117336992	2832
1415.57467187967	2806.60009765625
1416.21808716557	2819
1416.86141923516	2802.80004882813
1417.50466809601	2819
1418.14783375567	2815.60009765625
1418.79091622169	2814.39990234375
1419.43391550162	2807.39990234375
1420.07683160303	2791.39990234375
1420.71966453346	2818.39990234375
1421.36241430046	2826.39990234375
1422.0050809116	2834.39990234375
1422.64766437442	2855
1423.29016469647	2885
1423.93258188531	2855.39990234375
1424.57491594848	2871.19995117188
1425.21716689354	2850.80004882813
1425.85933472805	2858.80004882813
1426.50141945954	2853.60009765625
1427.14342109557	2829.39990234375
1427.78533964369	2830.39990234375
1428.42717511144	2807.80004882813
1429.06892750639	2811.80004882813
1429.71059683607	2792.39990234375
1430.35218310803	2798.19995117188
1430.99368632983	2793.19995117188
1431.635106509	2808.60009765625
1432.2764436531	2829
1432.91769776967	2824.19995117188
1433.55886886627	2837.19995117188
1434.19995695043	2814.39990234375
1434.84096202969	2832
1435.48188411162	2815.39990234375
1436.12272320375	2794.80004882813
1436.76347931363	2790.60009765625
1437.40415244879	2799.80004882813
1438.0447426168	2819.19995117188
1438.68524982518	2818.19995117188
1439.32567408148	2822.19995117188
1439.96601539325	2803.60009765625
1440.60627376803	2792
1441.24644921336	2795.39990234375
1441.88654173678	2769
1442.52655134583	2768.60009765625
1443.16647804806	2770.60009765625
1443.806321851	2766.60009765625
1444.4460827622	2800.39990234375
1445.0857607892	2780
1445.72535593953	2767.60009765625
1446.36486822074	2776
1447.00429764037	2760.39990234375
1447.64364420595	2778.60009765625
1448.28290792502	2761.39990234375
1448.92208880512	2786.19995117188
1449.56118685379	2795.80004882813
1450.20020207857	2797.39990234375
1450.83913448699	2788
1451.47798408659	2817.19995117188
1452.1167508849	2813.19995117188
1452.75543488947	2800.60009765625
1453.39403610782	2779.60009765625
1454.0325545475	2760
1454.67099021603	2770
1455.30934312097	2768.19995117188
1455.94761326982	2776.60009765625
1456.58580067014	2769.80004882813
1457.22390532945	2746.19995117188
1457.86192725529	2743.80004882813
1458.49986645519	2751.39990234375
1459.13772293668	2765.39990234375
1459.7754967073	2733.19995117188
1460.41318777457	2725.80004882813
1461.05079614604	2701.39990234375
1461.68832182922	2705.19995117188
1462.32576483166	2700.39990234375
1462.96312516087	2687.39990234375
1463.6004028244	2694.19995117188
1464.23759782977	2722.80004882813
1464.8747101845	2740.80004882813
1465.51173989614	2739
1466.14868697221	2741.39990234375
1466.78555142024	2748.39990234375
1467.42233324774	2716.60009765625
1468.05903246227	2728.39990234375
1468.69564907133	2713.39990234375
1469.33218308246	2710.19995117188
1469.96863450317	2726.80004882813
1470.60500334102	2731.19995117188
1471.2412896035	2727.19995117188
1471.87749329816	2763.60009765625
1472.51361443251	2758
1473.14965301409	2770.60009765625
1473.78560905041	2756.39990234375
1474.421482549	2756.19995117188
1475.05727351739	2772
1475.69298196309	2760.60009765625
1476.32860789364	2748.19995117188
1476.96415131654	2735.60009765625
1477.59961223934	2719.19995117188
1478.23499066954	2716.80004882813
1478.87028661467	2708
1479.50550008226	2713.80004882813
1480.14063107981	2739
1480.77567961486	2714.19995117188
1481.41064569492	2662.19995117188
1482.04552932752	2667
1482.68033052017	2667.19995117188
1483.31504928039	2678.39990234375
1483.9496856157	2715
1484.58423953363	2730.39990234375
1485.21871104168	2739.19995117188
1485.85310014738	2721.39990234375
1486.48740685824	2690.39990234375
1487.12163118178	2683
1487.75577312553	2720
1488.38983269698	2714.19995117188
1489.02380990367	2714.19995117188
1489.65770475311	2738
1490.29151725281	2804.39990234375
1490.92524741029	2758.39990234375
1491.55889523306	2753.60009765625
1492.19246072863	2767.60009765625
1492.82594390453	2779.19995117188
1493.45934476826	2758
1494.09266332734	2776.80004882813
1494.72589958928	2771
1495.3590535616	2770
1495.99212525181	2783.80004882813
1496.62511466741	2769.60009765625
1497.25802181592	2762
1497.89084670485	2767.19995117188
1498.52358934172	2790.19995117188
1499.15624973403	2784.80004882813
1499.7888278893	2779.19995117188
1500.42132381503	2783.80004882813
1501.05373751873	2802.60009765625
1501.68606900792	2825.39990234375
1502.31831829009	2830.39990234375
1502.95048537277	2817.19995117188
1503.58257026346	2864
1504.21457296966	2871.39990234375
1504.84649349889	2892.80004882813
1505.47833185864	2910.19995117188
1506.11008805644	2915.80004882813
1506.74176209978	2908.60009765625
1507.37335399617	2869.39990234375
1508.00486375312	2865.19995117188
1508.63629137813	2856.19995117188
1509.2676368787	2860.39990234375
1509.89890026235	2884.39990234375
1510.53008153658	2905.60009765625
1511.16118070889	2890
1511.79219778677	2877.60009765625
1512.42313277775	2886.39990234375
1513.05398568932	2882.39990234375
1513.68475652898	2902
1514.31544530424	2890.60009765625
1514.9460520226	2846.80004882813
1515.57657669155	2823.80004882813
1516.20701931861	2794
1516.83737991127	2757.19995117188
1517.46765847702	2784.19995117188
1518.09785502339	2782.39990234375
1518.72796955785	2811
1519.35800208792	2815.60009765625
1519.98795262109	2781.39990234375
1520.61782116486	2785
1521.24760772673	2774.80004882813
1521.87731231419	2779.80004882813
1522.50693493475	2770.60009765625
1523.1364755959	2749.39990234375
1523.76593430514	2704.60009765625
1524.39531106997	2708.39990234375
1525.02460589788	2711.80004882813
1525.65381879637	2712.60009765625
1526.28294977293	2682
1526.91199883507	2685
1527.54096599027	2660.60009765625
1528.16985124603	2636.80004882813
1528.79865460984	2660.60009765625
1529.4273760892	2660
1530.05601569161	2677.60009765625
1530.68457342455	2695.60009765625
1531.31304929552	2720.39990234375
1531.94144331201	2731.39990234375
1532.56975548151	2721.60009765625
1533.19798581152	2730.19995117188
1533.82613430953	2710.19995117188
1534.45420098302	2728.80004882813
1535.08218583949	2713
1535.71008888643	2701.80004882813
1536.33791013134	2690.19995117188
1536.96564958169	2701
1537.59330724498	2690.80004882813
1538.22088312871	2674.60009765625
1538.84837724034	2655.19995117188
1539.47578958739	2642.60009765625
1540.10312017733	2635.60009765625
1540.73036901765	2643.60009765625
1541.35753611584	2654.19995117188
1541.98462147939	2647.19995117188
1542.61162511578	2644.80004882813
1543.2385470325	2679.80004882813
1543.86538723704	2679.80004882813
1544.49214573688	2677.39990234375
1545.11882253951	2699.60009765625
1545.74541765241	2713.19995117188
1546.37193108306	2706.60009765625
1546.99836283896	2689.60009765625
1547.62471292758	2705.60009765625
1548.25098135641	2682.39990234375
1548.87716813294	2656.19995117188
1549.50327326464	2665.80004882813
1550.12929675899	2637.60009765625
1550.75523862349	2642.80004882813
1551.38109886561	2657.19995117188
1552.00687749284	2657.80004882813
1552.63257451264	2659
1553.25818993252	2647
1553.88372375994	2645.19995117188
1554.50917600239	2621.80004882813
1555.13454666734	2635.80004882813
1555.75983576228	2629
1556.38504329469	2635.19995117188
1557.01016927204	2656.39990234375
1557.63521370181	2636.19995117188
1558.26017659149	2625.19995117188
1558.88505794854	2643.39990234375
1559.50985778045	2650.19995117188
1560.13457609469	2642.60009765625
1560.75921289874	2663.60009765625
1561.38376820008	2625.80004882813
1562.00824200618	2636.80004882813
1562.63263432452	2616.39990234375
1563.25694516257	2648.80004882813
1563.88117452781	2636.80004882813
1564.50532242772	2605.80004882813
1565.12938886976	2624
1565.75337386141	2622.60009765625
1566.37727741015	2652.80004882813
1567.00109952345	2671.39990234375
1567.62484020878	2688.80004882813
1568.24849947361	2697
1568.87207732542	2714.80004882813
1569.49557377168	2745.80004882813
1570.11898881986	2742.80004882813
1570.74232247743	2729.80004882813
1571.36557475186	2714.39990234375
1571.98874565062	2757
1572.61183518119	2768
1573.23484335103	2778.60009765625
1573.85777016761	2816.19995117188
1574.4806156384	2808.39990234375
1575.10337977088	2781
1575.7260625725	2776.39990234375
1576.34866405074	2753.80004882813
1576.97118421306	2759.80004882813
1577.59362306694	2751.80004882813
1578.21598061984	2754
1578.83825687922	2776.39990234375
1579.46045185255	2762.39990234375
1580.08256554731	2770.80004882813
1580.70459797094	2737.80004882813
1581.32654913093	2750
1581.94841903473	2707.80004882813
1582.57020768981	2707
1583.19191510364	2668.19995117188
1583.81354128367	2651
1584.43508623737	2656
1585.05654997221	2638.60009765625
1585.67793249564	2620
1586.29923381514	2648.80004882813
1586.92045393815	2642.60009765625
1587.54159287216	2630.39990234375
1588.1626506246	2655.39990234375
1588.78362720296	2627
1589.40452261468	2611.80004882813
1590.02533686724	2603.19995117188
1590.64606996808	2583.39990234375
1591.26672192467	2589.39990234375
1591.88729274447	2564.39990234375
1592.50778243493	2567
1593.12819100352	2567.80004882813
1593.7485184577	2544.60009765625
1594.36876480492	2564
1594.98893005264	2535.19995117188
1595.60901420832	2528.60009765625
1596.22901727941	2521.80004882813
1596.84893927338	2546.80004882813
1597.46878019767	2571.80004882813
1598.08854005975	2599.39990234375
1598.70821886707	2581.80004882813
1599.32781662708	2596.19995117188
1599.94733334725	2609
1600.56676903502	2620.60009765625
1601.18612369785	2589
1601.8053973432	2542.19995117188
1602.42458997851	2520.19995117188
1603.04370161124	2516
1603.66273224884	2512
1604.28168189878	2517.80004882813
1604.90055056849	2474.60009765625
1605.51933826543	2490.60009765625
1606.13804499705	2483.19995117188
1606.75667077081	2492
1607.37521559415	2499.80004882813
1607.99367947452	2517.19995117188
1608.61206241938	2527.39990234375
1609.23036443618	2505.39990234375
1609.84858553236	2500.80004882813
1610.46672571537	2508
1611.08478499267	2511.60009765625
1611.7027633717	2522.60009765625
1612.3206608599	2515
1612.93847746473	2510
1613.55621319364	2485
1614.17386805407	2478.80004882813
1614.79144205347	2459.60009765625
1615.40893519928	2464
1616.02634749895	2445.19995117188
1616.64367895993	2428.39990234375
1617.26092958966	2437
1617.87809939559	2457.60009765625
1618.49518838516	2458.60009765625
1619.11219656582	2462.39990234375
1619.729123945	2458.39990234375
1620.34597053016	2469.19995117188
1620.96273632874	2473
1621.57942134818	2476.39990234375
1622.19602559592	2474.39990234375
1622.8125490794	2480
1623.42899180607	2472.60009765625
1624.04535378337	2481.39990234375
1624.66163501874	2484.39990234375
1625.27783551963	2490
1625.89395529346	2458.60009765625
1626.50999434768	2462.39990234375
1627.12595268974	2446.60009765625
1627.74183032707	2429.39990234375
1628.3576272671	2414
1628.97334351729	2386.80004882813
1629.58897908506	2386.60009765625
1630.20453397786	2393.60009765625
1630.82000820313	2384.39990234375
1631.43540176829	2392
1632.05071468079	2381.60009765625
1632.66594694807	2390
1633.28109857756	2398
1633.8961695767	2391.80004882813
1634.51115995292	2368
1635.12606971366	2363.60009765625
1635.74089886636	2379.39990234375
1636.35564741844	2410.60009765625
1636.97031537734	2418.39990234375
1637.58490275051	2428.60009765625
1638.19940954536	2449.19995117188
1638.81383576934	2444.80004882813
1639.42818142987	2462
1640.0424465344	2486.39990234375
1640.65663109034	2492.19995117188
1641.27073510515	2499.39990234375
1641.88475858623	2491.80004882813
1642.49870154104	2481.19995117188
1643.11256397699	2452
1643.72634590152	2483
1644.34004732206	2479
1644.95366824604	2493.39990234375
1645.56720868089	2495
1646.18066863404	2492
1646.79404811291	2479.19995117188
1647.40734712494	2491.80004882813
1648.02056567755	2474.80004882813
1648.63370377817	2482.39990234375
1649.24676143423	2488.60009765625
1649.85973865316	2500.39990234375
1650.47263544238	2519.80004882813
1651.08545180932	2521.39990234375
1651.6981877614	2548.39990234375
1652.31084330606	2508.19995117188
1652.92341845071	2490.19995117188
1653.53591320278	2496.19995117188
1654.1483275697	2481.80004882813
1654.7606615589	2480.60009765625
1655.37291517778	2450.60009765625
1655.98508843379	2428.19995117188
1656.59718133434	2452.80004882813
1657.20919388685	2473.19995117188
1657.82112609875	2465.39990234375
1658.43297797747	2476.19995117188
1659.04474953041	2448.39990234375
1659.65644076501	2451
1660.26805168869	2430.80004882813
1660.87958230886	2405.80004882813
1661.49103263294	2394.39990234375
1662.10240266837	2386.80004882813
1662.71369242255	2389.39990234375
1663.32490190291	2385.60009765625
1663.93603111687	2378.39990234375
1664.54708007184	2355.80004882813
1665.15804877524	2348.39990234375
1665.7689372345	2363.39990234375
1666.37974545703	2357.80004882813
1666.99047345024	2348.39990234375
1667.60112122156	2337.80004882813
1668.2116887784	2311.39990234375
1668.82217612818	2265.19995117188
1669.43258327831	2245.60009765625
1670.04291023622	2197.80004882813
1670.65315700931	2221.39990234375
1671.263323605	2193
1671.8734100307	2183.19995117188
1672.48341629384	2207.39990234375
1673.09334240182	2184
1673.70318836206	2181.19995117188
1674.31295418197	2175.39990234375
1674.92263986896	2186.39990234375
1675.53224543046	2198.39990234375
1676.14177087386	2219.80004882813
1676.75121620658	2222
1677.36058143604	2216.39990234375
1677.96986656964	2231.39990234375
1678.5790716148	2227
1679.18819657892	2265.80004882813
1679.79724146943	2289.19995117188
1680.40620629372	2303.60009765625
1681.0150910592	2316.80004882813
1681.6238957733	2305
1682.23262044341	2295.19995117188
1682.84126507694	2301
1683.4498296813	2302.19995117188
1684.0583142639	2301.60009765625
1684.66671883216	2315.39990234375
1685.27504339346	2299.80004882813
1685.88328795523	2256.80004882813
1686.49145252487	2256.80004882813
1687.09953710978	2227.39990234375
1687.70754171737	2238.60009765625
1688.31546635505	2248.19995117188
1688.92331103021	2276.39990234375
1689.53107575028	2272.80004882813
1690.13876052265	2270.39990234375
1690.74636535472	2272.19995117188
1691.3538902539	2260.80004882813
1691.96133522759	2251
1692.5687002832	2213
1693.17598542812	2202.80004882813
1693.78319066977	2194.39990234375
1694.39031601554	2189.39990234375
1694.99736147283	2193.80004882813
1695.60432704905	2227.39990234375
1696.2112127516	2252
1696.81801858788	2270
1697.42474456528	2267.80004882813
1698.03139069121	2265
1698.63795697307	2265
1699.24444341826	2252.39990234375
1699.85085003417	2237.60009765625
1700.45717682821	2245.60009765625
1701.06342380778	2234.19995117188
1701.66959098026	2212.39990234375
1702.27567835307	2202
1702.88168593359	2193.80004882813
1703.48761372922	2180.80004882813
1704.09346174737	2189.19995117188
1704.69922999542	2158
1705.30491848077	2175.60009765625
1705.91052721083	2194.19995117188
1706.51605619297	2204.19995117188
1707.12150543461	2177.19995117188
1707.72687494312	2181.60009765625
1708.33216472592	2158.60009765625
1708.93737479039	2165.39990234375
1709.54250514392	2150.19995117188
