634.977642221345	1539.59997558594
635.719821695905	1550
636.461909203392	1546.19995117188
637.203904751776	1554.40002441406
637.945808349023	1557.80004882813
638.687620003102	1566.59997558594
639.42933972198	1570.40002441406
640.170967513616	1561.40002441406
640.912503385981	1538.40002441406
641.653947347041	1543
642.395299404758	1542.59997558594
643.13655956709	1534.40002441406
643.877727842014	1514.19995117188
644.61880423748	1502.59997558594
645.359788761455	1496.40002441406
646.100681421905	1500
646.841482226789	1504.80004882813
647.582191184074	1527
648.322808301711	1536
649.06333358767	1528.80004882813
649.803767049909	1534.80004882813
650.544108696385	1530
651.28435853506	1543.59997558594
652.024516573894	1573.40002441406
652.764582820849	1557.19995117188
653.504557283875	1561.19995117188
654.244439970937	1582
654.984230889991	1577.59997558594
655.723930048995	1573.19995117188
656.463537455909	1577
657.203053118683	1604
657.942477045275	1597.40002441406
658.681809243647	1593.19995117188
659.421049721747	1595.40002441406
660.160198487535	1587.19995117188
660.899255548962	1586.19995117188
661.638220913985	1579.40002441406
662.377094590559	1580
663.115876586631	1584.80004882813
663.854566910165	1573.80004882813
664.593165569107	1572.59997558594
665.331672571406	1579.80004882813
666.07008792502	1571.19995117188
666.808411637902	1559.19995117188
667.546643717996	1559.19995117188
668.284784173258	1564.40002441406
669.022833011641	1574.80004882813
669.760790241089	1588.19995117188
670.498655869554	1571
671.236429904987	1573
671.97411235534	1573
672.711703228551	1569.80004882813
673.449202532577	1578.19995117188
674.186610275364	1609.80004882813
674.923926464857	1614
675.661151109008	1597.19995117188
676.398284215759	1593.19995117188
677.135325793058	1610.59997558594
677.87227584885	1620
678.609134391082	1619.59997558594
679.345901427696	1624.80004882813
680.082576966644	1617
680.819161015861	1616.40002441406
681.555653583298	1602.59997558594
682.292054676895	1591.59997558594
683.028364304594	1599.40002441406
683.764582474344	1596.19995117188
684.500709194083	1582
685.236744471752	1583
685.972688315294	1573.19995117188
686.708540732652	1586.59997558594
687.444301731762	1577
688.179971320572	1588.40002441406
688.915549507013	1591.80004882813
689.651036299034	1576.19995117188
690.386431704569	1579
691.121735731559	1569
691.85694838794	1570.59997558594
692.592069681652	1585.80004882813
693.327099620632	1559.80004882813
694.062038212821	1575.19995117188
694.796885466149	1578
695.531641388561	1591.59997558594
696.266305987987	1609.40002441406
697.000879272367	1603.40002441406
697.735361249632	1625
698.469751927722	1618.80004882813
699.204051314568	1620.80004882813
699.938259418107	1618.40002441406
700.672376246272	1618.40002441406
701.406401806997	1602.59997558594
702.140336108212	1595.59997558594
702.874179157855	1599.80004882813
703.607930963856	1601.59997558594
704.341591534147	1591
705.07516087666	1585.40002441406
705.808638999324	1584.80004882813
706.542025910073	1582.40002441406
707.275321616841	1598
708.008526127549	1607
708.741639450132	1611.19995117188
709.474661592521	1606
710.207592562641	1620.59997558594
710.940432368424	1616.19995117188
711.673181017796	1619.40002441406
712.405838518687	1617.19995117188
713.138404879025	1612.80004882813
713.870880106731	1610.59997558594
714.603264209738	1622.40002441406
715.335557195971	1620.80004882813
716.067759073357	1617.59997558594
716.799869849816	1621
717.531889533281	1632.40002441406
718.263818131673	1632.19995117188
718.995655652917	1617.80004882813
719.727402104934	1617.19995117188
720.45905749565	1608.40002441406
721.19062183299	1595.59997558594
721.922095124877	1608
722.653477379231	1604.19995117188
723.384768603973	1598.80004882813
724.11596880703	1618.40002441406
724.847077996319	1630
725.578096179762	1631.59997558594
726.309023365281	1622
727.039859560792	1630
727.770604774222	1632.19995117188
728.501259013484	1629.40002441406
729.231822286501	1634.59997558594
729.962294601191	1654.59997558594
730.692675965469	1627.80004882813
731.42296638726	1603.59997558594
732.153165874472	1603.59997558594
732.883274435032	1605.80004882813
733.613292076851	1617.40002441406
734.343218807843	1622.59997558594
735.07305463593	1627.40002441406
735.802799569028	1623.19995117188
736.532453615048	1634.59997558594
737.262016781904	1614.59997558594
737.991489077517	1620.40002441406
738.720870509794	1625.40002441406
739.450161086654	1601.80004882813
740.179360816009	1612.19995117188
740.908469705772	1613.59997558594
741.637487763854	1624.40002441406
742.366414998168	1635.19995117188
743.095251416623	1633
743.823997027137	1638.59997558594
744.552651837618	1641.80004882813
745.281215855978	1649.59997558594
746.009689090124	1638
746.738071547964	1625.19995117188
747.466363237419	1627.19995117188
748.194564166384	1616.19995117188
748.92267434278	1603.59997558594
749.650693774504	1606.80004882813
750.378622469476	1609.19995117188
751.106460435596	1614
751.834207680771	1633.59997558594
752.561864212909	1642.80004882813
753.289430039919	1635
754.016905169707	1635.59997558594
754.744289610175	1636.19995117188
755.471583369231	1642.40002441406
756.198786454782	1637.19995117188
756.925898874728	1628
757.652920636979	1622
758.379851749433	1623.19995117188
759.106692219996	1649
759.833442056572	1648.80004882813
760.560101267063	1660.80004882813
761.28666985937	1679.59997558594
762.0131478414	1677.40002441406
762.739535221046	1679
763.465832006219	1677.40002441406
764.192038204812	1680.40002441406
764.918153824731	1662.80004882813
765.644178873872	1666.40002441406
766.370113360138	1671
767.095957291425	1681
767.821710675635	1705.19995117188
768.547373520665	1691.19995117188
769.272945834415	1708.59997558594
769.998427624781	1742.19995117188
770.723818899658	1739.40002441406
771.449119666949	1750.19995117188
772.174329934546	1732
772.899449710347	1740
773.624479002248	1741.19995117188
774.349417818145	1747.80004882813
775.074266165934	1764.59997558594
775.799024053505	1745.59997558594
776.523691488757	1756.40002441406
777.248268479582	1740.19995117188
777.972755033877	1713
778.69715115953	1697.80004882813
779.421456864441	1685.80004882813
780.145672156493	1671
780.869797043587	1689.80004882813
781.593831533611	1678
782.317775634457	1671.40002441406
783.041629354012	1668.59997558594
783.765392700174	1674.19995117188
784.489065680828	1670.19995117188
785.212648303866	1669.59997558594
785.936140577177	1668
786.659542508652	1667
787.382854106174	1664.19995117188
788.106075377639	1663.19995117188
788.829206330928	1662.59997558594
789.552246973933	1665.59997558594
790.275197314542	1668.40002441406
790.998057360638	1653.40002441406
791.720827120108	1661.59997558594
792.443506600841	1661.59997558594
793.166095810722	1664
793.888594757635	1645.40002441406
794.611003449465	1647.40002441406
795.333321894098	1658.19995117188
796.055550099417	1662.80004882813
796.777688073308	1667.59997558594
797.499735823654	1664.19995117188
798.221693358334	1651.40002441406
798.943560685235	1657
799.665337812239	1666.19995117188
800.387024747226	1658
801.108621498075	1674.40002441406
801.830128072674	1671
802.551544478902	1671.40002441406
803.272870724636	1653.59997558594
803.994106817761	1659.40002441406
804.715252766148	1651.19995117188
805.436308577687	1645.40002441406
806.157274260251	1649.59997558594
806.878149821721	1635.19995117188
807.598935269973	1638.80004882813
808.319630612886	1638.19995117188
809.040235858336	1630
809.760751014202	1636.80004882813
810.481176088361	1623.40002441406
811.201511088685	1615.59997558594
811.921756023059	1616.19995117188
812.641910899347	1625.40002441406
813.361975725432	1622
814.081950509188	1619.19995117188
814.801835258489	1618.19995117188
815.521629981206	1610.40002441406
816.241334685218	1622.19995117188
816.960949378392	1629.40002441406
817.680474068606	1622.59997558594
818.399908763731	1630.80004882813
819.11925347164	1636.40002441406
819.838508200202	1624.19995117188
820.55767295729	1627
821.276747750778	1618.40002441406
821.995732588531	1637.40002441406
822.714627478425	1652.80004882813
823.433432428327	1648.40002441406
824.152147446105	1650.80004882813
824.870772539632	1656.19995117188
825.589307716775	1672.19995117188
826.307752985404	1665.80004882813
827.026108353378	1661
827.744373828579	1652.80004882813
828.462549418867	1640
829.180635132107	1629.59997558594
829.898630976168	1640.59997558594
830.616536958915	1657
831.334353088218	1648.40002441406
832.052079371938	1645.59997558594
832.769715817942	1635.80004882813
833.487262434092	1640
834.204719228255	1638.40002441406
834.922086208293	1637.40002441406
835.639363382073	1653.59997558594
836.356550757456	1645.59997558594
837.073648342304	1644.80004882813
837.790656144484	1641
838.507574171847	1648.40002441406
839.22440243227	1638.19995117188
839.941140933601	1639.19995117188
840.657789683706	1637.40002441406
841.374348690448	1654.59997558594
842.090817961686	1649
842.807197505276	1644.59997558594
843.523487329083	1649.19995117188
844.23968744096	1639.40002441406
844.955797848771	1631.80004882813
845.671818560374	1641.19995117188
846.387749583622	1633
847.103590926378	1626.80004882813
847.819342596497	1628
848.535004601833	1613.40002441406
849.25057695025	1602.19995117188
849.966059649598	1598.59997558594
850.681452707735	1607
851.396756132513	1625.80004882813
852.111969931789	1642.19995117188
852.827094113419	1639.80004882813
853.542128685257	1646.40002441406
854.257073655158	1644.40002441406
854.971929030969	1637.40002441406
855.686694820551	1628.19995117188
856.40137103175	1630.59997558594
857.115957672423	1630.40002441406
857.830454750423	1628
858.544862273597	1633.59997558594
859.259180249797	1634.40002441406
859.97340868688	1640.19995117188
860.687547592688	1647.40002441406
861.401596975075	1646.80004882813
862.115556841891	1671.19995117188
862.829427200985	1645
863.543208060205	1652
864.256899427402	1630
864.970501310423	1626.80004882813
865.684013717114	1620.19995117188
866.397436655325	1620.19995117188
867.110770132901	1637.19995117188
867.824014157691	1621
868.537168737542	1622.40002441406
869.250233880299	1637.59997558594
869.963209593803	1635.59997558594
870.676095885902	1620.19995117188
871.388892764445	1637
872.101600237276	1616.40002441406
872.814218312233	1628.59997558594
873.526746997165	1613.80004882813
874.239186299914	1630.40002441406
874.951536228323	1628.80004882813
875.663796790231	1644.80004882813
876.375967993487	1632.19995117188
877.088049845928	1624
877.8000423554	1636.40002441406
878.511945529739	1633.19995117188
879.22375937679	1623
879.935483904388	1629.19995117188
880.64711912038	1633.19995117188
881.358665032604	1622.19995117188
882.070121648892	1634.19995117188
882.78148897709	1619.80004882813
883.492767025039	1645.59997558594
884.203955800571	1643.80004882813
884.915055311525	1628.80004882813
885.626065565741	1611.59997558594
886.336986571053	1624.19995117188
887.047818335298	1610
887.758560866315	1608
888.469214171937	1621.80004882813
889.179778260005	1629
889.890253138347	1625.59997558594
890.600638814803	1603.80004882813
891.310935297204	1608.40002441406
892.021142593385	1614.80004882813
892.731260711183	1634.19995117188
893.441289658429	1630.40002441406
894.15122944295	1631.59997558594
894.861080072591	1630.19995117188
895.570841555173	1614.40002441406
896.280513898534	1620.40002441406
896.990097110503	1626.59997558594
897.699591198913	1629.59997558594
898.408996171595	1650.80004882813
899.118312036375	1647.80004882813
899.827538801089	1638.40002441406
900.536676473561	1638.19995117188
901.245725061628	1644.40002441406
901.954684573109	1635.19995117188
902.663555015838	1668.19995117188
903.372336397644	1643.19995117188
904.081028726351	1655.40002441406
904.789632009793	1657.80004882813
905.49814625579	1653
906.20657147217	1645
906.914907666765	1652
907.623154847391	1643.40002441406
908.331313021885	1650.80004882813
909.039382198064	1644.19995117188
909.747362383754	1646.40002441406
910.455253586782	1638.80004882813
911.163055814972	1645.40002441406
911.870769076143	1645
912.578393378126	1645.40002441406
913.285928728738	1642.19995117188
913.993375135802	1660.19995117188
914.700732607145	1660.59997558594
915.408001150579	1650.80004882813
916.115180773937	1660.59997558594
916.822271485037	1655.80004882813
917.529273291693	1640.80004882813
918.236186201733	1645.80004882813
918.943010222971	1629.59997558594
919.649745363234	1649.40002441406
920.356391630333	1619.40002441406
921.062949032096	1628.80004882813
921.769417576333	1621
922.475797270864	1640.19995117188
923.182088123512	1627
923.888290142089	1636.59997558594
924.594403334414	1636.19995117188
925.300427708304	1653.59997558594
926.006363271572	1659
926.712210032039	1650
927.417967997522	1660
928.123637175827	1662.40002441406
928.829217574776	1656.19995117188
929.534709202184	1649.59997558594
930.240112065859	1653.40002441406
930.945426173621	1654.19995117188
931.650651533283	1643.59997558594
932.355788152653	1627.59997558594
933.060836039547	1627.59997558594
933.765795201776	1638.40002441406
934.470665647153	1630.19995117188
935.175447383492	1635.40002441406
935.880140418599	1650
936.584744760286	1640.59997558594
937.289260416366	1646.80004882813
937.993687394647	1664.40002441406
938.698025702939	1655.19995117188
939.402275349051	1668.40002441406
940.106436340793	1669.80004882813
940.810508685976	1677
941.5144923924	1651.80004882813
942.21838746788	1636.40002441406
942.922193920223	1641.59997558594
943.625911757231	1629.59997558594
944.329540986716	1622
945.033081616484	1630.19995117188
945.736533654334	1625.40002441406
946.439897108083	1626
947.143171985529	1635.40002441406
947.846358294477	1625.59997558594
948.549456042732	1642
949.2524652381	1636.19995117188
949.955385888382	1650.80004882813
950.658218001384	1654
951.360961584907	1646
952.063616646755	1635.40002441406
952.766183194733	1646.19995117188
953.468661236636	1645.80004882813
954.171050780271	1627.19995117188
954.873351833437	1617.19995117188
955.575564403935	1623
956.277688499565	1629.59997558594
956.97972412813	1632.40002441406
957.681671297424	1615.59997558594
958.383530015255	1625
959.085300289414	1628.59997558594
959.786982127703	1630.80004882813
960.488575537918	1630.59997558594
961.190080527859	1631.40002441406
961.891497105327	1614.80004882813
962.592825278111	1618.40002441406
963.294065054012	1615.40002441406
963.995216440829	1616
964.696279446353	1624.40002441406
965.397254078383	1652.40002441406
966.098140344714	1646.59997558594
966.798938253139	1648.40002441406
967.499647811456	1632.59997558594
968.200269027458	1615.40002441406
968.900801908937	1629.19995117188
969.601246463685	1625
970.3016026995	1610.19995117188
971.001870624169	1612.80004882813
971.702050245491	1612.40002441406
972.402141571249	1616.40002441406
973.102144609245	1621.19995117188
973.802059367267	1620
974.501885853103	1626.19995117188
975.201624074541	1622.19995117188
975.901274039379	1637.19995117188
976.600835755399	1646.80004882813
977.3003092304	1626
977.999694472158	1632.80004882813
978.698991488473	1636.59997558594
979.39820028713	1612.80004882813
980.097320875915	1627.40002441406
980.796353262618	1636.40002441406
981.495297455024	1630.80004882813
982.194153460919	1635.80004882813
982.892921288093	1634
983.591600944331	1653.19995117188
984.290192437419	1648
984.98869577514	1638
985.687110965282	1637.59997558594
986.385438015629	1630.40002441406
987.083676933961	1619
987.781827728069	1617.40002441406
988.479890405732	1610.59997558594
989.177864974732	1605.80004882813
989.875751442857	1612.80004882813
990.573549817888	1622
991.271260107602	1610.80004882813
991.968882319786	1601.80004882813
992.666416462217	1615
993.363862542681	1598.59997558594
994.061220568959	1590.59997558594
994.758490548823	1596.19995117188
995.455672490061	1613.80004882813
996.152766400451	1623.80004882813
996.849772287773	1621.80004882813
997.5466901598	1629
998.243520024317	1618.59997558594
998.940261889097	1617
999.636915761923	1609
1000.33348165057	1606
1001.02995956281	1607.40002441406
1001.72634950643	1601.19995117188
1002.42265148919	1607.40002441406
1003.11886551889	1618.59997558594
1003.81499160328	1638.40002441406
1004.51102975015	1627.80004882813
1005.20697996727	1628.19995117188
1005.90284226242	1626
1006.59861664337	1632.40002441406
1007.2943031179	1645.80004882813
1007.98990169377	1644.19995117188
1008.68541237876	1644
1009.38083518064	1640.80004882813
1010.07617010719	1652
1010.77141716617	1650
1011.46657636536	1640.19995117188
1012.16164771253	1634.19995117188
1012.85663121546	1627.80004882813
1013.5515268819	1625.59997558594
1014.24633471963	1627.19995117188
1014.94105473642	1619.40002441406
1015.63568694004	1621.80004882813
1016.33023133826	1638.59997558594
1017.02468793885	1627.80004882813
1017.71905674957	1622.40002441406
1018.41333777819	1632.19995117188
1019.10753103249	1626.40002441406
1019.80163652022	1641.40002441406
1020.49565424916	1625.40002441406
1021.18958422707	1623.19995117188
1021.88342646171	1621.40002441406
1022.57718096085	1626.59997558594
1023.27084773227	1616
1023.96442678371	1615
1024.65791812296	1613.80004882813
1025.35132175776	1614.80004882813
1026.04463769589	1610.80004882813
1026.73786594511	1595
1027.43100651318	1583.19995117188
1028.12405940786	1593.19995117188
1028.81702463692	1596.19995117188
1029.50990220812	1605.19995117188
1030.20269212921	1611.19995117188
1030.89539440798	1606.19995117188
1031.58800905216	1598.80004882813
1032.28053606952	1578.19995117188
1032.97297546784	1583.80004882813
1033.66532725485	1603.80004882813
1034.35759143832	1607
1035.04976802602	1613.80004882813
1035.7418570257	1610.80004882813
1036.43385844511	1606
1037.12577229202	1601.40002441406
1037.81759857419	1594
1038.50933729937	1615.59997558594
1039.20098847531	1624.59997558594
1039.89255210978	1619.19995117188
1040.58402821053	1619.80004882813
1041.27541678532	1615.59997558594
1041.96671784191	1603.40002441406
1042.65793138804	1603.59997558594
1043.34905743147	1596.40002441406
1044.04009597996	1603.40002441406
1044.73104704125	1602.40002441406
1045.42191062312	1611
1046.1126867333	1594.19995117188
1046.80337537955	1610.19995117188
1047.49397656962	1610.40002441406
1048.18449031127	1606.80004882813
1048.87491661225	1595.19995117188
1049.5652554803	1587.80004882813
1050.25550692319	1586.80004882813
1050.94567094865	1586.19995117188
1051.63574756444	1594.80004882813
1052.32573677832	1602.80004882813
1053.01563859803	1592.19995117188
1053.70545303131	1594
1054.39518008592	1606.19995117188
1055.08481976961	1594.40002441406
1055.77437209013	1604.19995117188
1056.46383705522	1606
1057.15321467262	1604.59997558594
1057.8425049501	1601.19995117188
1058.53170789539	1589
1059.22082351624	1593.40002441406
1059.9098518204	1589.19995117188
1060.59879281561	1591.40002441406
1061.28764650962	1585
1061.97641291016	1598.59997558594
1062.665092025	1593.40002441406
1063.35368386187	1618.19995117188
1064.04218842851	1607.59997558594
1064.73060573268	1612.19995117188
1065.4189357821	1604.19995117188
1066.10717858452	1588.59997558594
1066.7953341477	1582.59997558594
1067.48340247936	1572.80004882813
1068.17138358725	1570.19995117188
1068.85927747912	1576
1069.5470841627	1600.59997558594
1070.23480364573	1593.19995117188
1070.92243593595	1602.19995117188
1071.60998104111	1595.19995117188
1072.29743896894	1592
1072.98480972718	1586.40002441406
1073.67209332357	1596.40002441406
1074.35928976585	1605.80004882813
1075.04639906176	1593
1075.73342121903	1597.80004882813
1076.42035624541	1619.80004882813
1077.10720414862	1619.80004882813
1077.79396493641	1626.19995117188
1078.48063861651	1626.40002441406
1079.16722519666	1610.19995117188
1079.85372468459	1605
1080.54013708804	1604.40002441406
1081.22646241474	1598.40002441406
1081.91270067243	1594.40002441406
1082.59885186884	1590.80004882813
1083.28491601171	1601.59997558594
1083.97089310877	1605.40002441406
1084.65678316774	1596.40002441406
1085.34258619637	1617.40002441406
1086.02830220239	1602.59997558594
1086.71393119352	1606.19995117188
1087.39947317751	1624.59997558594
1088.08492816207	1612.59997558594
1088.77029615495	1595.59997558594
1089.45557716387	1627
1090.14077119656	1610.19995117188
1090.82587826075	1600.40002441406
1091.51089836417	1599.59997558594
1092.19583151456	1601.40002441406
1092.88067771963	1602.19995117188
1093.56543698712	1580.59997558594
1094.25010932475	1599.40002441406
1094.93469474026	1581.19995117188
1095.61919324137	1582.19995117188
1096.3036048358	1585.40002441406
1096.98792953129	1581.19995117188
1097.67216733555	1603.80004882813
1098.35631825632	1611
1099.04038230132	1614.59997558594
1099.72435947828	1600.80004882813
1100.40824979492	1612.19995117188
1101.09205325895	1603
1101.77576987812	1588.59997558594
1102.45939966014	1577
1103.14294261273	1567.40002441406
1103.82639874362	1566
1104.50976806054	1550
1105.19305057119	1573.19995117188
1105.87624628331	1578
1106.55935520461	1585.40002441406
1107.24237734283	1615
1107.92531270566	1613.19995117188
1108.60816130085	1608
1109.2909231361	1615.80004882813
1109.97359821914	1628.59997558594
1110.65618655768	1627
1111.33868815946	1626.59997558594
1112.02110303217	1633.40002441406
1112.70343118355	1624
1113.3856726213	1618.40002441406
1114.06782735316	1600.59997558594
1114.74989538683	1610.19995117188
1115.43187673002	1596.40002441406
1116.11377139047	1589
1116.79557937588	1586.80004882813
1117.47730069397	1600.80004882813
1118.15893535245	1608.59997558594
1118.84048335904	1602.59997558594
1119.52194472146	1605.59997558594
1120.20331944741	1591.59997558594
1120.88460754462	1615.19995117188
1121.56580902079	1598.40002441406
1122.24692388364	1612.19995117188
1122.92795214088	1623.19995117188
1123.60889380022	1613.59997558594
1124.28974886938	1629.19995117188
1124.97051735606	1654.59997558594
1125.65119926799	1654.19995117188
1126.33179461286	1638.19995117188
1127.0123033984	1636
1127.6927256323	1636.40002441406
1128.37306132229	1641.40002441406
1129.05331047606	1632
1129.73347310134	1622.59997558594
1130.41354920582	1610.80004882813
1131.09353879722	1608
1131.77344188324	1589.19995117188
1132.45325847159	1590
1133.13298856999	1601
1133.81263218612	1611.59997558594
1134.49218932772	1594.19995117188
1135.17166000247	1609.59997558594
1135.85104421809	1608.80004882813
1136.53034198227	1602.80004882813
1137.20955330274	1589.40002441406
1137.88867818718	1588
1138.56771664331	1586.19995117188
1139.24666867883	1576.40002441406
1139.92553430144	1587.80004882813
1140.60431351885	1593
1141.28300633876	1591.40002441406
1141.96161276887	1594.59997558594
1142.64013281689	1606
1143.31856649051	1607
1143.99691379744	1600.40002441406
1144.67517474538	1590.40002441406
1145.35334934203	1588.40002441406
1146.03143759509	1590.80004882813
1146.70943951226	1581.40002441406
1147.38735510125	1579.80004882813
1148.06518436974	1579
1148.74292732545	1568.19995117188
1149.42058397606	1566
1150.09815432928	1570
1150.7756383928	1573.40002441406
1151.45303617432	1592.40002441406
1152.13034768155	1594.40002441406
1152.80757292217	1605.59997558594
1153.48471190389	1614
1154.16176463439	1618
1154.83873112138	1613.19995117188
1155.51561137255	1608.19995117188
1156.1924053956	1599.19995117188
1156.86911319822	1607.19995117188
1157.5457347881	1598.80004882813
1158.22227017294	1626.19995117188
1158.89871936044	1618
1159.57508235828	1607
1160.25135917416	1587
1160.92754981578	1588.40002441406
1161.60365429081	1585.40002441406
1162.27967260697	1599.59997558594
1162.95560477193	1584.40002441406
1163.63145079339	1595
1164.30721067904	1591.19995117188
1164.98288443657	1585.59997558594
1165.65847207367	1590.80004882813
1166.33397359803	1594.80004882813
1167.00938901735	1601.59997558594
1167.6847183393	1595.80004882813
1168.35996157157	1596.40002441406
1169.03511872187	1611
1169.71018979787	1606.59997558594
1170.38517480726	1597.19995117188
1171.06007375773	1601.80004882813
1171.73488665696	1595.59997558594
1172.40961351265	1585.80004882813
1173.08425433247	1592
1173.75880912412	1601.80004882813
1174.43327789528	1605
1175.10766065364	1627
1175.78195740687	1644.19995117188
1176.45616816267	1643
1177.13029292871	1627
1177.80433171269	1647
1178.47828452229	1634.59997558594
1179.15215136518	1642
1179.82593224905	1643.59997558594
1180.49962718159	1646.19995117188
1181.17323617047	1644.19995117188
1181.84675922337	1655.59997558594
1182.52019634799	1661.19995117188
1183.193547552	1647.40002441406
1183.86681284307	1652.40002441406
1184.53999222889	1637.80004882813
1185.21308571714	1635
1185.8860933155	1619.40002441406
1186.55901503165	1637.19995117188
1187.23185087326	1629.80004882813
1187.90460084802	1624.19995117188
1188.5772649636	1622.19995117188
1189.24984322768	1623
1189.92233564794	1642
1190.59474223206	1670.19995117188
1191.2670629877	1667.80004882813
1191.93929792255	1642
1192.61144704428	1656
1193.28351036058	1640.40002441406
1193.9554878791	1643.40002441406
1194.62737960754	1636
1195.29918555356	1631
1195.97090572483	1647
1196.64254012903	1649.19995117188
1197.31408877384	1648.80004882813
1197.98555166693	1661.19995117188
1198.65692881596	1654.59997558594
1199.32822022862	1639.40002441406
1199.99942591256	1636.59997558594
1200.67054587548	1611.80004882813
1201.34158012503	1625.80004882813
1202.01252866889	1614.40002441406
1202.68339151473	1609.59997558594
1203.35416867021	1599.59997558594
1204.02486014301	1601.80004882813
1204.6954659408	1612.80004882813
1205.36598607124	1602.80004882813
1206.03642054201	1606.80004882813
1206.70676936078	1601
1207.3770325352	1585.40002441406
1208.04721007295	1595
1208.7173019817	1590.59997558594
1209.38730826911	1584
1210.05722894285	1577.40002441406
1210.72706401059	1587
1211.39681347999	1572.80004882813
1212.06647735872	1570
1212.73605565444	1569.59997558594
1213.40554837481	1585
1214.07495552751	1587
1214.74427712019	1608
1215.41351316052	1574.80004882813
1216.08266365617	1592.80004882813
1216.75172861479	1571.59997558594
1217.42070804405	1576.80004882813
1218.0896019516	1587
1218.75841034513	1583.40002441406
1219.42713323227	1607.59997558594
1220.0957706207	1612.40002441406
1220.76432251808	1598.40002441406
1221.43278893207	1616.59997558594
1222.10116987032	1617.59997558594
1222.7694653405	1623.40002441406
1223.43767535026	1616.40002441406
1224.10579990727	1602
1224.77383901918	1605.40002441406
1225.44179269366	1612
1226.10966093835	1608
1226.77744376093	1597.80004882813
1227.44514116904	1611.80004882813
1228.11275317034	1600
1228.78027977249	1587.40002441406
1229.44772098315	1577.59997558594
1230.11507680996	1576.59997558594
1230.7823472606	1581.40002441406
1231.44953234271	1568
1232.11663206394	1577
1232.78364643195	1570.59997558594
1233.4505754544	1574
1234.11741913894	1578.80004882813
1234.78417749322	1581.19995117188
1235.45085052489	1585.19995117188
1236.11743824162	1580.80004882813
1236.78394065104	1569.59997558594
1237.45035776082	1559.40002441406
1238.1166895786	1560.40002441406
1238.78293611204	1568.19995117188
1239.44909736878	1567.59997558594
1240.11517335648	1575
1240.78116408279	1570.40002441406
1241.44706955535	1584.19995117188
1242.11288978182	1581.59997558594
1242.77862476985	1578.40002441406
1243.44427452708	1567.80004882813
1244.10983906116	1542.80004882813
1244.77531837974	1549.19995117188
1245.44071249047	1539.80004882813
1246.106021401	1556.40002441406
1246.77124511898	1571.59997558594
1247.43638365204	1577
1248.10143700783	1571
1248.76640519401	1582.59997558594
1249.43128821822	1570.80004882813
1250.0960860881	1572.19995117188
1250.76079881129	1555.40002441406
1251.42542639545	1556.80004882813
1252.08996884822	1559
1252.75442617723	1566.80004882813
1253.41879839014	1573.59997558594
1254.08308549458	1577
1254.74728749821	1586.40002441406
1255.41140440866	1582.80004882813
1256.07543623357	1578.59997558594
1256.73938298059	1564
1257.40324465735	1572.19995117188
1258.0670212715	1557.40002441406
1258.73071283068	1550.40002441406
1259.39431934253	1557.40002441406
1260.05784081468	1557.80004882813
1260.72127725479	1554
1261.38462867049	1554
1262.0478950694	1560.40002441406
1262.71107645919	1580
1263.37417284748	1582
1264.03718424191	1570
1264.70011065011	1575
1265.36295207974	1574.59997558594
1266.02570853841	1567.40002441406
1266.68838003378	1566.19995117188
1267.35096657346	1558.19995117188
1268.01346816511	1565.59997558594
1268.67588481636	1564
1269.33821653483	1559.19995117188
1270.00046332817	1572
1270.66262520401	1576.59997558594
1271.32470216998	1580
1271.98669423372	1569.59997558594
1272.64860140285	1563
1273.31042368503	1553
1273.97216108786	1548
1274.633813619	1552.80004882813
1275.29538128606	1558.40002441406
1275.95686409669	1584.80004882813
1276.6182620585	1563.59997558594
1277.27957517914	1557.40002441406
1277.94080346624	1567.80004882813
1278.60194692741	1565.19995117188
1279.2630055703	1570.40002441406
1279.92397940253	1579.40002441406
1280.58486843173	1570.59997558594
1281.24567266552	1577.80004882813
1281.90639211155	1565.59997558594
1282.56702677743	1555.19995117188
1283.2275766708	1547.19995117188
1283.88804179927	1553.59997558594
1284.54842217049	1559.40002441406
1285.20871779206	1558
1285.86892867163	1567.59997558594
1286.52905481681	1562.40002441406
1287.18909623523	1583.80004882813
1287.84905293452	1587.80004882813
1288.5089249223	1585
1289.16871220619	1581.59997558594
1289.82841479383	1589.59997558594
1290.48803269282	1606
1291.1475659108	1591.59997558594
1291.80701445539	1569.19995117188
1292.46637833421	1553.80004882813
1293.12565755489	1541.19995117188
1293.78485212504	1547.40002441406
1294.44396205229	1544.40002441406
1295.10298734425	1542.80004882813
1295.76192800856	1543
1296.42078405283	1542
1297.07955548467	1549
1297.73824231171	1568.40002441406
1298.39684454158	1551.19995117188
1299.05536218188	1557.59997558594
1299.71379524023	1563
1300.37214372427	1577.19995117188
1301.03040764159	1577.19995117188
1301.68858699983	1566.19995117188
1302.34668180659	1578.19995117188
1303.0046920695	1567.40002441406
1303.66261779617	1567.19995117188
1304.32045899422	1583.40002441406
1304.97821567126	1577
1305.63588783492	1578.59997558594
1306.29347549279	1592.59997558594
1306.95097865251	1587
1307.60839732168	1587.19995117188
1308.26573150791	1602.80004882813
1308.92298121883	1593.40002441406
1309.58014646204	1582.40002441406
1310.23722724517	1594
1310.89422357581	1607.80004882813
1311.55113546158	1610
1312.2079629101	1593.19995117188
1312.86470592898	1610.40002441406
1313.52136452582	1614.40002441406
1314.17793870824	1613.40002441406
1314.83442848386	1610
1315.49083386027	1616.80004882813
1316.14715484509	1622.19995117188
1316.80339144594	1613.59997558594
1317.45954367041	1619.59997558594
1318.11561152611	1606.19995117188
1318.77159502067	1600.19995117188
1319.42749416168	1600.80004882813
1320.08330895674	1597.40002441406
1320.73903941348	1586
1321.3946855395	1590
1322.0502473424	1581
1322.70572482978	1594.59997558594
1323.36111800926	1578.80004882813
1324.01642688845	1587.40002441406
1324.67165147494	1587
1325.32679177634	1593.80004882813
1325.98184780025	1586.40002441406
1326.63681955429	1587.19995117188
1327.29170704605	1560
1327.94651028314	1566.40002441406
1328.60122927316	1563.59997558594
1329.25586402371	1549
1329.9104145424	1555.19995117188
1330.56488083683	1550.80004882813
1331.2192629146	1551.19995117188
1331.87356078331	1574.19995117188
1332.52777445056	1577.40002441406
1333.18190392395	1570
1333.83594921109	1579.80004882813
1334.48991031958	1572.19995117188
1335.143787257	1566.40002441406
1335.79758003097	1572.19995117188
1336.45128864908	1575.40002441406
1337.10491311893	1562
1337.75845344813	1582.40002441406
1338.41190964425	1564.19995117188
1339.06528171491	1587.19995117188
1339.71856966771	1577.19995117188
1340.37177351023	1563
1341.02489325007	1559.40002441406
1341.67792889484	1542.59997558594
1342.33088045212	1549.59997558594
1342.98374792952	1537.40002441406
1343.63653133462	1555.19995117188
1344.28923067503	1549.80004882813
1344.94184595833	1568.59997558594
1345.59437719212	1558.19995117188
1346.246824384	1581.59997558594
1346.89918754155	1581.19995117188
1347.55146667238	1590.80004882813
1348.20366178407	1583.59997558594
1348.85577288421	1595.19995117188
1349.50779998041	1593.80004882813
1350.15974308024	1606.19995117188
1350.8116021913	1623.19995117188
1351.46337732119	1619.59997558594
1352.11506847748	1622
1352.76667566778	1613.59997558594
1353.41819889967	1616.40002441406
1354.06963818074	1621.59997558594
1354.72099351858	1620.40002441406
1355.37226492079	1618.19995117188
1356.02345239494	1625.19995117188
1356.67455594862	1638
1357.32557558943	1645
1357.97651132496	1655.19995117188
1358.62736316277	1682.19995117188
1359.27813111048	1679.80004882813
1359.92881517565	1686.40002441406
1360.57941536589	1695.80004882813
1361.22993168876	1697.59997558594
1361.88036415186	1690.59997558594
1362.53071276278	1694.19995117188
1363.1809775291	1696.80004882813
1363.8311584584	1701
1364.48125555826	1692.19995117188
1365.13126883627	1666
1365.78119830001	1643.80004882813
1366.43104395707	1643.40002441406
1367.08080581503	1627
1367.73048388147	1603.59997558594
1368.38007816397	1606.19995117188
1369.02958867011	1595.19995117188
1369.67901540748	1606
1370.32835838365	1587.59997558594
1370.9776176062	1586.19995117188
1371.62679308273	1584.40002441406
1372.27588482079	1581.19995117188
1372.92489282798	1598
1373.57381711188	1588.59997558594
1374.22265768006	1586
1374.87141454009	1582.59997558594
1375.52008769957	1570
1376.16867716606	1583.59997558594
1376.81718294715	1591.19995117188
1377.4656050504	1573.19995117188
1378.1139434834	1570
1378.76219825373	1568.80004882813
1379.41036936895	1577.80004882813
1380.05845683664	1573
1380.70646066439	1561.80004882813
1381.35438085976	1561.19995117188
1382.00221743032	1546.40002441406
1382.64997038366	1552.59997558594
1383.29763972735	1546.19995117188
1383.94522546895	1545.59997558594
1384.59272761605	1552
1385.24014617621	1557.59997558594
1385.88748115701	1555.19995117188
1386.53473256602	1566.19995117188
1387.18190041081	1552.19995117188
1387.82898469895	1557.59997558594
1388.47598543802	1546
1389.12290263558	1537.59997558594
1389.7697362992	1531
1390.41648643646	1536.40002441406
1391.06315305492	1528.19995117188
1391.70973616215	1524.80004882813
1392.35623576573	1521.19995117188
1393.00265187321	1530.19995117188
1393.64898449217	1529.40002441406
1394.29523363018	1533.40002441406
1394.94139929481	1514.40002441406
1395.58748149361	1503
1396.23348023415	1500.80004882813
1396.87939552402	1498.40002441406
1397.52522737076	1493.19995117188
1398.17097578195	1467.40002441406
1398.81664076514	1464.80004882813
1399.46222232792	1461.19995117188
1400.10772047783	1454.19995117188
1400.75313522245	1456.59997558594
1401.39846656934	1469
1402.04371452605	1490.19995117188
1402.68887910016	1502.19995117188
1403.33396029924	1499.40002441406
1403.97895813083	1508.80004882813
1404.6238726025	1514.19995117188
1405.26870372182	1512
1405.91345149634	1516.80004882813
1406.55811593363	1505.59997558594
1407.20269704125	1506.19995117188
1407.84719482676	1500
1408.49160929772	1505.80004882813
1409.13594046168	1511
1409.78018832622	1502.40002441406
1410.42435289887	1511.59997558594
1411.06843418722	1510.19995117188
1411.7124321988	1512.80004882813
1412.3563469412	1522.80004882813
1413.00017842194	1524.59997558594
1413.64392664861	1529.40002441406
1414.28759162875	1537.59997558594
1414.93117336992	1535.40002441406
1415.57467187967	1520
1416.21808716557	1531.19995117188
1416.86141923516	1506.19995117188
1417.50466809601	1530
1418.14783375567	1530.59997558594
1418.79091622169	1512.40002441406
1419.43391550162	1516.59997558594
1420.07683160303	1513.80004882813
1420.71966453346	1502.40002441406
1421.36241430046	1504.19995117188
1422.0050809116	1516.59997558594
1422.64766437442	1522.80004882813
1423.29016469647	1532.80004882813
1423.93258188531	1528.59997558594
1424.57491594848	1530.59997558594
1425.21716689354	1525.19995117188
1425.85933472805	1530.59997558594
1426.50141945954	1520
1427.14342109557	1517
1427.78533964369	1521.40002441406
1428.42717511144	1510.40002441406
1429.06892750639	1503.59997558594
1429.71059683607	1504.59997558594
1430.35218310803	1499.59997558594
1430.99368632983	1513.40002441406
1431.635106509	1489.59997558594
1432.2764436531	1504
1432.91769776967	1502
1433.55886886627	1514
1434.19995695043	1520.80004882813
1434.84096202969	1519.19995117188
1435.48188411162	1499.40002441406
1436.12272320375	1492
1436.76347931363	1508.19995117188
1437.40415244879	1518.80004882813
1438.0447426168	1513
1438.68524982518	1505.59997558594
1439.32567408148	1514.80004882813
1439.96601539325	1502.40002441406
1440.60627376803	1496.80004882813
1441.24644921336	1491
1441.88654173678	1499.80004882813
1442.52655134583	1488
1443.16647804806	1487.40002441406
1443.806321851	1494.40002441406
1444.4460827622	1494.59997558594
1445.0857607892	1505.19995117188
1445.72535593953	1497.40002441406
1446.36486822074	1487.19995117188
1447.00429764037	1494.40002441406
1447.64364420595	1485.59997558594
1448.28290792502	1499
1448.92208880512	1506.40002441406
1449.56118685379	1507.19995117188
1450.20020207857	1508.19995117188
1450.83913448699	1516.40002441406
1451.47798408659	1513
1452.1167508849	1515.40002441406
1452.75543488947	1513
1453.39403610782	1529.80004882813
1454.0325545475	1490
1454.67099021603	1491.40002441406
1455.30934312097	1506
1455.94761326982	1502.40002441406
1456.58580067014	1503.80004882813
1457.22390532945	1519.19995117188
1457.86192725529	1503.19995117188
1458.49986645519	1517.59997558594
1459.13772293668	1510.40002441406
1459.7754967073	1512.59997558594
1460.41318777457	1513.19995117188
1461.05079614604	1499.80004882813
1461.68832182922	1489.59997558594
1462.32576483166	1493.40002441406
1462.96312516087	1491.40002441406
1463.6004028244	1486.19995117188
1464.23759782977	1492.80004882813
1464.8747101845	1494
1465.51173989614	1499.19995117188
1466.14868697221	1517
1466.78555142024	1506.19995117188
1467.42233324774	1498.19995117188
1468.05903246227	1506.80004882813
1468.69564907133	1498
1469.33218308246	1489.19995117188
1469.96863450317	1476.59997558594
1470.60500334102	1501
1471.2412896035	1507.40002441406
1471.87749329816	1502
1472.51361443251	1502.59997558594
1473.14965301409	1507.59997558594
1473.78560905041	1511.19995117188
1474.421482549	1509.40002441406
1475.05727351739	1508.80004882813
1475.69298196309	1496.80004882813
1476.32860789364	1511
1476.96415131654	1486.80004882813
1477.59961223934	1487.40002441406
1478.23499066954	1482
1478.87028661467	1484.19995117188
1479.50550008226	1491.80004882813
1480.14063107981	1487.59997558594
1480.77567961486	1486.40002441406
1481.41064569492	1484.19995117188
1482.04552932752	1482
1482.68033052017	1498.59997558594
1483.31504928039	1506.40002441406
1483.9496856157	1510.19995117188
1484.58423953363	1503.59997558594
1485.21871104168	1508.80004882813
1485.85310014738	1503
1486.48740685824	1503.19995117188
1487.12163118178	1495.80004882813
1487.75577312553	1492.19995117188
1488.38983269698	1481.59997558594
1489.02380990367	1478.19995117188
1489.65770475311	1496.40002441406
1490.29151725281	1497.40002441406
1490.92524741029	1515.19995117188
1491.55889523306	1501.59997558594
1492.19246072863	1521
1492.82594390453	1535
1493.45934476826	1531
1494.09266332734	1535
1494.72589958928	1538.19995117188
1495.3590535616	1539.80004882813
1495.99212525181	1535.19995117188
1496.62511466741	1540.19995117188
1497.25802181592	1539.19995117188
1497.89084670485	1540
1498.52358934172	1538.80004882813
1499.15624973403	1547.19995117188
1499.7888278893	1554
1500.42132381503	1561.19995117188
1501.05373751873	1544
1501.68606900792	1565.59997558594
1502.31831829009	1572.80004882813
1502.95048537277	1571.40002441406
1503.58257026346	1588.59997558594
1504.21457296966	1594.19995117188
1504.84649349889	1603.19995117188
1505.47833185864	1609.59997558594
1506.11008805644	1617.19995117188
1506.74176209978	1608
1507.37335399617	1590
1508.00486375312	1586.40002441406
1508.63629137813	1579.19995117188
1509.2676368787	1589.19995117188
1509.89890026235	1577.40002441406
1510.53008153658	1582.19995117188
1511.16118070889	1592.80004882813
1511.79219778677	1584.59997558594
1512.42313277775	1587
1513.05398568932	1583
1513.68475652898	1581.80004882813
1514.31544530424	1587.80004882813
1514.9460520226	1560.80004882813
1515.57657669155	1548.59997558594
1516.20701931861	1548.59997558594
1516.83737991127	1526
1517.46765847702	1521.40002441406
1518.09785502339	1531
1518.72796955785	1534.40002441406
1519.35800208792	1532.80004882813
1519.98795262109	1536.59997558594
1520.61782116486	1521.80004882813
1521.24760772673	1529.59997558594
1521.87731231419	1529.19995117188
1522.50693493475	1518
1523.1364755959	1519.80004882813
1523.76593430514	1511
1524.39531106997	1507.59997558594
1525.02460589788	1511.19995117188
1525.65381879637	1494
1526.28294977293	1496.59997558594
1526.91199883507	1482.80004882813
1527.54096599027	1466
1528.16985124603	1464.59997558594
1528.79865460984	1478.40002441406
1529.4273760892	1464
1530.05601569161	1492.19995117188
1530.68457342455	1500
1531.31304929552	1493.59997558594
1531.94144331201	1508.80004882813
1532.56975548151	1499.80004882813
1533.19798581152	1514
1533.82613430953	1513.80004882813
1534.45420098302	1520.40002441406
1535.08218583949	1512.19995117188
1535.71008888643	1493.80004882813
1536.33791013134	1488.59997558594
1536.96564958169	1492.80004882813
1537.59330724498	1491
1538.22088312871	1506.80004882813
1538.84837724034	1492
1539.47578958739	1476.80004882813
1540.10312017733	1485.80004882813
1540.73036901765	1478.19995117188
1541.35753611584	1496.59997558594
1541.98462147939	1473.19995117188
1542.61162511578	1474.59997558594
1543.2385470325	1482.80004882813
1543.86538723704	1484.80004882813
1544.49214573688	1490.19995117188
1545.11882253951	1488.19995117188
1545.74541765241	1493.80004882813
1546.37193108306	1497.40002441406
1546.99836283896	1494.59997558594
1547.62471292758	1492.19995117188
1548.25098135641	1480.59997558594
1548.87716813294	1478.19995117188
1549.50327326464	1482
1550.12929675899	1467.19995117188
1550.75523862349	1472
1551.38109886561	1480
1552.00687749284	1469
1552.63257451264	1478.19995117188
1553.25818993252	1479.19995117188
1553.88372375994	1479.80004882813
1554.50917600239	1463.80004882813
1555.13454666734	1456.40002441406
1555.75983576228	1470
1556.38504329469	1466.80004882813
1557.01016927204	1468.59997558594
1557.63521370181	1454.19995117188
1558.26017659149	1465
1558.88505794854	1470.59997558594
1559.50985778045	1465.19995117188
1560.13457609469	1461.40002441406
1560.75921289874	1463.59997558594
1561.38376820008	1458.59997558594
1562.00824200618	1464.59997558594
1562.63263432452	1459
1563.25694516257	1459.19995117188
1563.88117452781	1474.40002441406
1564.50532242772	1473.19995117188
1565.12938886976	1475.59997558594
1565.75337386141	1472
1566.37727741015	1476.19995117188
1567.00109952345	1476.19995117188
1567.62484020878	1487.59997558594
1568.24849947361	1490
1568.87207732542	1486.80004882813
1569.49557377168	1490.59997558594
1570.11898881986	1508
1570.74232247743	1504
1571.36557475186	1506.59997558594
1571.98874565062	1512.40002441406
1572.61183518119	1526
1573.23484335103	1523
1573.85777016761	1530.40002441406
1574.4806156384	1540.19995117188
1575.10337977088	1543.80004882813
1575.7260625725	1523
1576.34866405074	1520.59997558594
1576.97118421306	1515.59997558594
1577.59362306694	1513.40002441406
1578.21598061984	1534.40002441406
1578.83825687922	1516.80004882813
1579.46045185255	1506.40002441406
1580.08256554731	1500
1580.70459797094	1500.19995117188
1581.32654913093	1484.40002441406
1581.94841903473	1476.19995117188
1582.57020768981	1476.80004882813
1583.19191510364	1461.19995117188
1583.81354128367	1461.80004882813
1584.43508623737	1454.80004882813
1585.05654997221	1459.40002441406
1585.67793249564	1457
1586.29923381514	1452.80004882813
1586.92045393815	1443.59997558594
1587.54159287216	1445.19995117188
1588.1626506246	1449.59997558594
1588.78362720296	1444.19995117188
1589.40452261468	1449
1590.02533686724	1436
1590.64606996808	1446
1591.26672192467	1428.80004882813
1591.88729274447	1432.19995117188
1592.50778243493	1431.59997558594
1593.12819100352	1433
1593.7485184577	1439
1594.36876480492	1414.59997558594
1594.98893005264	1419.59997558594
1595.60901420832	1428
1596.22901727941	1424.80004882813
1596.84893927338	1434.40002441406
1597.46878019767	1438.59997558594
1598.08854005975	1440.19995117188
1598.70821886707	1442.59997558594
1599.32781662708	1442
1599.94733334725	1438.80004882813
1600.56676903502	1431
1601.18612369785	1425.80004882813
1601.8053973432	1439
1602.42458997851	1418.80004882813
1603.04370161124	1425.80004882813
1603.66273224884	1417
1604.28168189878	1425.40002441406
1604.90055056849	1425.40002441406
1605.51933826543	1409.19995117188
1606.13804499705	1415.80004882813
1606.75667077081	1423.40002441406
1607.37521559415	1425.80004882813
1607.99367947452	1417.40002441406
1608.61206241938	1404.40002441406
1609.23036443618	1424.59997558594
1609.84858553236	1414.40002441406
1610.46672571537	1412.19995117188
1611.08478499267	1415.59997558594
1611.7027633717	1413.40002441406
1612.3206608599	1419
1612.93847746473	1413.59997558594
1613.55621319364	1397.59997558594
1614.17386805407	1387.59997558594
1614.79144205347	1390.19995117188
1615.40893519928	1399
1616.02634749895	1400.40002441406
1616.64367895993	1385.40002441406
1617.26092958966	1382
1617.87809939559	1377.59997558594
1618.49518838516	1384.59997558594
1619.11219656582	1382.40002441406
1619.729123945	1388.40002441406
1620.34597053016	1386.59997558594
1620.96273632874	1390.40002441406
1621.57942134818	1398.40002441406
1622.19602559592	1388.80004882813
1622.8125490794	1387.59997558594
1623.42899180607	1400.40002441406
1624.04535378337	1388.19995117188
1624.66163501874	1390.59997558594
1625.27783551963	1385.59997558594
1625.89395529346	1389
1626.50999434768	1385.59997558594
1627.12595268974	1377.59997558594
1627.74183032707	1377.19995117188
1628.3576272671	1384.19995117188
1628.97334351729	1369.19995117188
1629.58897908506	1371.40002441406
1630.20453397786	1373.59997558594
1630.82000820313	1372.59997558594
1631.43540176829	1390.19995117188
1632.05071468079	1381
1632.66594694807	1388.19995117188
1633.28109857756	1396.80004882813
1633.8961695767	1393.40002441406
1634.51115995292	1382.80004882813
1635.12606971366	1390
1635.74089886636	1397.19995117188
1636.35564741844	1394.19995117188
1636.97031537734	1399.80004882813
1637.58490275051	1397.80004882813
1638.19940954536	1413.19995117188
1638.81383576934	1417.40002441406
1639.42818142987	1414.19995117188
1640.0424465344	1423.40002441406
1640.65663109034	1424.59997558594
1641.27073510515	1432
1641.88475858623	1413.80004882813
1642.49870154104	1414
1643.11256397699	1422.80004882813
1643.72634590152	1413.59997558594
1644.34004732206	1420.40002441406
1644.95366824604	1437.40002441406
1645.56720868089	1442.19995117188
1646.18066863404	1436.80004882813
1646.79404811291	1435.59997558594
1647.40734712494	1439.40002441406
1648.02056567755	1430.19995117188
1648.63370377817	1439.40002441406
1649.24676143423	1438.19995117188
1649.85973865316	1442.40002441406
1650.47263544238	1435.80004882813
1651.08545180932	1447.40002441406
1651.6981877614	1430.59997558594
1652.31084330606	1428.59997558594
1652.92341845071	1417
1653.53591320278	1408.19995117188
1654.1483275697	1411.59997558594
1654.7606615589	1400.19995117188
1655.37291517778	1395.19995117188
1655.98508843379	1384.80004882813
1656.59718133434	1392.19995117188
1657.20919388685	1381.19995117188
1657.82112609875	1397.40002441406
1658.43297797747	1393.80004882813
1659.04474953041	1380.19995117188
1659.65644076501	1385
1660.26805168869	1361.59997558594
1660.87958230886	1359.19995117188
1661.49103263294	1352.19995117188
1662.10240266837	1339.19995117188
1662.71369242255	1332.40002441406
1663.32490190291	1351.19995117188
1663.93603111687	1334.59997558594
1664.54708007184	1345
1665.15804877524	1341.19995117188
1665.7689372345	1337.80004882813
1666.37974545703	1335.59997558594
1666.99047345024	1334.80004882813
1667.60112122156	1340.40002441406
1668.2116887784	1330
1668.82217612818	1317
1669.43258327831	1318.80004882813
1670.04291023622	1302.19995117188
1670.65315700931	1307.40002441406
1671.263323605	1300.59997558594
1671.8734100307	1301
1672.48341629384	1297.40002441406
1673.09334240182	1300.40002441406
1673.70318836206	1281.19995117188
1674.31295418197	1292.19995117188
1674.92263986896	1298.19995117188
1675.53224543046	1298.19995117188
1676.14177087386	1299
1676.75121620658	1293.19995117188
1677.36058143604	1307.19995117188
1677.96986656964	1289.59997558594
1678.5790716148	1304.19995117188
1679.18819657892	1302.40002441406
1679.79724146943	1292.80004882813
1680.40620629372	1296.80004882813
1681.0150910592	1293.59997558594
1681.6238957733	1302.19995117188
1682.23262044341	1297.40002441406
1682.84126507694	1298
1683.4498296813	1304.40002441406
1684.0583142639	1318.19995117188
1684.66671883216	1318
1685.27504339346	1317
1685.88328795523	1311.59997558594
1686.49145252487	1304.19995117188
1687.09953710978	1305.19995117188
1687.70754171737	1312.19995117188
1688.31546635505	1367
1688.92331103021	1347.80004882813
1689.53107575028	1318.80004882813
1690.13876052265	1311.40002441406
1690.74636535472	1318.59997558594
1691.3538902539	1297.19995117188
1691.96133522759	1291.19995117188
1692.5687002832	1289
1693.17598542812	1283.59997558594
1693.78319066977	1282.40002441406
1694.39031601554	1288.80004882813
1694.99736147283	1283.80004882813
1695.60432704905	1288.40002441406
1696.2112127516	1287.19995117188
1696.81801858788	1299.59997558594
1697.42474456528	1290.40002441406
1698.03139069121	1304.40002441406
1698.63795697307	1299.40002441406
1699.24444341826	1300.40002441406
1699.85085003417	1296.40002441406
1700.45717682821	1285.40002441406
1701.06342380778	1286.59997558594
1701.66959098026	1292.19995117188
1702.27567835307	1275.80004882813
1702.88168593359	1273.80004882813
1703.48761372922	1266.19995117188
1704.09346174737	1260.40002441406
1704.69922999542	1260
1705.30491848077	1269
1705.91052721083	1275
1706.51605619297	1281.19995117188
1707.12150543461	1279.59997558594
1707.72687494312	1273.59997558594
1708.33216472592	1265
1708.93737479039	1262.59997558594
1709.54250514392	1256
