634.977642221345	2310.39990234375
635.719821695905	2313.39990234375
636.461909203392	2298.19995117188
637.203904751776	2301.19995117188
637.945808349023	2312.80004882813
638.687620003102	2342.19995117188
639.42933972198	2344.39990234375
640.170967513616	2349.39990234375
640.912503385981	2307.60009765625
641.653947347041	2299.80004882813
642.395299404758	2288.39990234375
643.13655956709	2264.19995117188
643.877727842014	2227.39990234375
644.61880423748	2225.80004882813
645.359788761455	2243.80004882813
646.100681421905	2262.39990234375
646.841482226789	2269.80004882813
647.582191184074	2277.60009765625
648.322808301711	2285.60009765625
649.06333358767	2277.60009765625
649.803767049909	2291.80004882813
650.544108696385	2326.80004882813
651.28435853506	2324.19995117188
652.024516573894	2347.19995117188
652.764582820849	2334.80004882813
653.504557283875	2347.60009765625
654.244439970937	2372
654.984230889991	2367.80004882813
655.723930048995	2371.60009765625
656.463537455909	2380.39990234375
657.203053118683	2394.60009765625
657.942477045275	2390.80004882813
658.681809243647	2399.39990234375
659.421049721747	2387.80004882813
660.160198487535	2386.39990234375
660.899255548962	2390.60009765625
661.638220913985	2388.80004882813
662.377094590559	2401.80004882813
663.115876586631	2396.60009765625
663.854566910165	2381.39990234375
664.593165569107	2373.19995117188
665.331672571406	2374.60009765625
666.07008792502	2374.39990234375
666.808411637902	2382.80004882813
667.546643717996	2364.19995117188
668.284784173258	2361.80004882813
669.022833011641	2376.60009765625
669.760790241089	2377.19995117188
670.498655869554	2348
671.236429904987	2335.39990234375
671.97411235534	2359.60009765625
672.711703228551	2360.60009765625
673.449202532577	2397.39990234375
674.186610275364	2428.19995117188
674.923926464857	2424.80004882813
675.661151109008	2454.19995117188
676.398284215759	2423.39990234375
677.135325793058	2435.60009765625
677.87227584885	2446.80004882813
678.609134391082	2432.39990234375
679.345901427696	2455.39990234375
680.082576966644	2460
680.819161015861	2458.19995117188
681.555653583298	2425.19995117188
682.292054676895	2431.60009765625
683.028364304594	2417.80004882813
683.764582474344	2409
684.500709194083	2410.39990234375
685.236744471752	2405.60009765625
685.972688315294	2391.39990234375
686.708540732652	2389.60009765625
687.444301731762	2391.60009765625
688.179971320572	2403.80004882813
688.915549507013	2384
689.651036299034	2365.60009765625
690.386431704569	2348
691.121735731559	2352.39990234375
691.85694838794	2344
692.592069681652	2346
693.327099620632	2369
694.062038212821	2370
694.796885466149	2372.19995117188
695.531641388561	2436.60009765625
696.266305987987	2419
697.000879272367	2470.19995117188
697.735361249632	2474.60009765625
698.469751927722	2487.39990234375
699.204051314568	2464.19995117188
699.938259418107	2474
700.672376246272	2427.80004882813
701.406401806997	2424
702.140336108212	2412.19995117188
702.874179157855	2407
703.607930963856	2426.19995117188
704.341591534147	2425.39990234375
705.07516087666	2410.39990234375
705.808638999324	2402
706.542025910073	2427.80004882813
707.275321616841	2415.19995117188
708.008526127549	2416.39990234375
708.741639450132	2410
709.474661592521	2413
710.207592562641	2404
710.940432368424	2423.60009765625
711.673181017796	2410.60009765625
712.405838518687	2422.39990234375
713.138404879025	2420
713.870880106731	2437.60009765625
714.603264209738	2457
715.335557195971	2464
716.067759073357	2455.80004882813
716.799869849816	2448.39990234375
717.531889533281	2466.19995117188
718.263818131673	2471
718.995655652917	2449.39990234375
719.727402104934	2430.39990234375
720.45905749565	2396.80004882813
721.19062183299	2403
721.922095124877	2383.80004882813
722.653477379231	2391.80004882813
723.384768603973	2399
724.11596880703	2423
724.847077996319	2426.80004882813
725.578096179762	2446
726.309023365281	2453.39990234375
727.039859560792	2461.19995117188
727.770604774222	2461.19995117188
728.501259013484	2478
729.231822286501	2479.80004882813
729.962294601191	2488.60009765625
730.692675965469	2437.80004882813
731.42296638726	2409.39990234375
732.153165874472	2415.80004882813
732.883274435032	2444.80004882813
733.613292076851	2473
734.343218807843	2491
735.07305463593	2488
735.802799569028	2466.80004882813
736.532453615048	2469.60009765625
737.262016781904	2469.19995117188
737.991489077517	2478
738.720870509794	2453.19995117188
739.450161086654	2445
740.179360816009	2441.80004882813
740.908469705772	2454.39990234375
741.637487763854	2476.80004882813
742.366414998168	2477.80004882813
743.095251416623	2492.39990234375
743.823997027137	2505.39990234375
744.552651837618	2494
745.281215855978	2471.60009765625
746.009689090124	2477.60009765625
746.738071547964	2452.39990234375
747.466363237419	2444.80004882813
748.194564166384	2464.80004882813
748.92267434278	2428.39990234375
749.650693774504	2449
750.378622469476	2443.80004882813
751.106460435596	2473.80004882813
751.834207680771	2462.39990234375
752.561864212909	2498.60009765625
753.289430039919	2496.19995117188
754.016905169707	2475.80004882813
754.744289610175	2489.60009765625
755.471583369231	2475.60009765625
756.198786454782	2465
756.925898874728	2467
757.652920636979	2464.60009765625
758.379851749433	2452.39990234375
759.106692219996	2467.19995117188
759.833442056572	2500.80004882813
760.560101267063	2514.60009765625
761.28666985937	2536.19995117188
762.0131478414	2553.80004882813
762.739535221046	2546.60009765625
763.465832006219	2551.80004882813
764.192038204812	2589
764.918153824731	2562
765.644178873872	2598
766.370113360138	2612.60009765625
767.095957291425	2644.39990234375
767.821710675635	2635.80004882813
768.547373520665	2659.39990234375
769.272945834415	2672.39990234375
769.998427624781	2705.80004882813
770.723818899658	2735.60009765625
771.449119666949	2727.39990234375
772.174329934546	2755.60009765625
772.899449710347	2773.39990234375
773.624479002248	2805.39990234375
774.349417818145	2824.39990234375
775.074266165934	2838.19995117188
775.799024053505	2861.80004882813
776.523691488757	2813.60009765625
777.248268479582	2768.60009765625
777.972755033877	2704.19995117188
778.69715115953	2673
779.421456864441	2646.19995117188
780.145672156493	2606.60009765625
780.869797043587	2603.19995117188
781.593831533611	2594.19995117188
782.317775634457	2593.19995117188
783.041629354012	2591.60009765625
783.765392700174	2573
784.489065680828	2558.60009765625
785.212648303866	2531.39990234375
785.936140577177	2534.39990234375
786.659542508652	2532.19995117188
787.382854106174	2560.60009765625
788.106075377639	2539.39990234375
788.829206330928	2540
789.552246973933	2549.80004882813
790.275197314542	2545
790.998057360638	2546.19995117188
791.720827120108	2536
792.443506600841	2514.80004882813
793.166095810722	2499.60009765625
793.888594757635	2486.60009765625
794.611003449465	2474.80004882813
795.333321894098	2496.60009765625
796.055550099417	2506
796.777688073308	2531.60009765625
797.499735823654	2508.19995117188
798.221693358334	2507.19995117188
798.943560685235	2513.19995117188
799.665337812239	2529.60009765625
800.387024747226	2530.39990234375
801.108621498075	2545.60009765625
801.830128072674	2520.19995117188
802.551544478902	2518.80004882813
803.272870724636	2544.60009765625
803.994106817761	2531.39990234375
804.715252766148	2530.19995117188
805.436308577687	2533.60009765625
806.157274260251	2519
806.878149821721	2506.39990234375
807.598935269973	2481.60009765625
808.319630612886	2473.80004882813
809.040235858336	2471
809.760751014202	2499.80004882813
810.481176088361	2484.19995117188
811.201511088685	2501.80004882813
811.921756023059	2486.80004882813
812.641910899347	2464.80004882813
813.361975725432	2442.80004882813
814.081950509188	2447.80004882813
814.801835258489	2464.19995117188
815.521629981206	2486
816.241334685218	2468.39990234375
816.960949378392	2468.80004882813
817.680474068606	2474.80004882813
818.399908763731	2463.80004882813
819.11925347164	2485.60009765625
819.838508200202	2476.60009765625
820.55767295729	2474
821.276747750778	2470.80004882813
821.995732588531	2495
822.714627478425	2525.19995117188
823.433432428327	2510.80004882813
824.152147446105	2527.19995117188
824.870772539632	2538.60009765625
825.589307716775	2542
826.307752985404	2561.19995117188
827.026108353378	2534.39990234375
827.744373828579	2508.39990234375
828.462549418867	2495
829.180635132107	2481.60009765625
829.898630976168	2488.39990234375
830.616536958915	2515.39990234375
831.334353088218	2538.60009765625
832.052079371938	2520.60009765625
832.769715817942	2509.80004882813
833.487262434092	2513
834.204719228255	2516
834.922086208293	2491.19995117188
835.639363382073	2497
836.356550757456	2492.19995117188
837.073648342304	2510
837.790656144484	2504
838.507574171847	2486.60009765625
839.22440243227	2477.39990234375
839.941140933601	2500.60009765625
840.657789683706	2479.80004882813
841.374348690448	2461.19995117188
842.090817961686	2485
842.807197505276	2482.80004882813
843.523487329083	2503.80004882813
844.23968744096	2486.39990234375
844.955797848771	2483
845.671818560374	2483.39990234375
846.387749583622	2473.19995117188
847.103590926378	2462.60009765625
847.819342596497	2424.80004882813
848.535004601833	2427.39990234375
849.25057695025	2413.80004882813
849.966059649598	2388.39990234375
850.681452707735	2390.39990234375
851.396756132513	2430
852.111969931789	2462.60009765625
852.827094113419	2479.19995117188
853.542128685257	2467
854.257073655158	2505.19995117188
854.971929030969	2510.60009765625
855.686694820551	2487.19995117188
856.40137103175	2466.19995117188
857.115957672423	2478.39990234375
857.830454750423	2462.80004882813
858.544862273597	2451.19995117188
859.259180249797	2492
859.97340868688	2473
860.687547592688	2515
861.401596975075	2502.80004882813
862.115556841891	2492.19995117188
862.829427200985	2502.80004882813
863.543208060205	2493.39990234375
864.256899427402	2465.19995117188
864.970501310423	2458
865.684013717114	2442.19995117188
866.397436655325	2434
867.110770132901	2424.80004882813
867.824014157691	2411.60009765625
868.537168737542	2438
869.250233880299	2430.60009765625
869.963209593803	2453.19995117188
870.676095885902	2450.19995117188
871.388892764445	2460.80004882813
872.101600237276	2440.80004882813
872.814218312233	2428.60009765625
873.526746997165	2449.80004882813
874.239186299914	2477.39990234375
874.951536228323	2484.60009765625
875.663796790231	2435
876.375967993487	2455
877.088049845928	2474
877.8000423554	2454.60009765625
878.511945529739	2439
879.22375937679	2424.19995117188
879.935483904388	2425
880.64711912038	2426.60009765625
881.358665032604	2426.60009765625
882.070121648892	2422
882.78148897709	2423.19995117188
883.492767025039	2414.80004882813
884.203955800571	2436
884.915055311525	2433.39990234375
885.626065565741	2423.60009765625
886.336986571053	2430.39990234375
887.047818335298	2426.80004882813
887.758560866315	2411
888.469214171937	2427.39990234375
889.179778260005	2432.80004882813
889.890253138347	2435.60009765625
890.600638814803	2412.60009765625
891.310935297204	2431.39990234375
892.021142593385	2432.60009765625
892.731260711183	2445.60009765625
893.441289658429	2436
894.15122944295	2441
894.861080072591	2444.19995117188
895.570841555173	2443.19995117188
896.280513898534	2454.60009765625
896.990097110503	2455.80004882813
897.699591198913	2460.39990234375
898.408996171595	2458.19995117188
899.118312036375	2441.39990234375
899.827538801089	2467.60009765625
900.536676473561	2466.19995117188
901.245725061628	2466.60009765625
901.954684573109	2472.60009765625
902.663555015838	2486.19995117188
903.372336397644	2499.39990234375
904.081028726351	2478.60009765625
904.789632009793	2483.19995117188
905.49814625579	2511.39990234375
906.20657147217	2492.19995117188
906.914907666765	2468.19995117188
907.623154847391	2484
908.331313021885	2489.39990234375
909.039382198064	2463.60009765625
909.747362383754	2473.39990234375
910.455253586782	2470.80004882813
911.163055814972	2478.60009765625
911.870769076143	2486.19995117188
912.578393378126	2483.80004882813
913.285928728738	2481.39990234375
913.993375135802	2480.80004882813
914.700732607145	2472.80004882813
915.408001150579	2491.19995117188
916.115180773937	2479
916.822271485037	2474.80004882813
917.529273291693	2502
918.236186201733	2475.60009765625
918.943010222971	2458.80004882813
919.649745363234	2445
920.356391630333	2434
921.062949032096	2438.19995117188
921.769417576333	2459
922.475797270864	2453
923.182088123512	2493.60009765625
923.888290142089	2474.60009765625
924.594403334414	2477
925.300427708304	2485
926.006363271572	2511.80004882813
926.712210032039	2514.80004882813
927.417967997522	2498
928.123637175827	2496
928.829217574776	2501
929.534709202184	2525
930.240112065859	2496.39990234375
930.945426173621	2506
931.650651533283	2496.19995117188
932.355788152653	2484.39990234375
933.060836039547	2487.19995117188
933.765795201776	2480.60009765625
934.470665647153	2457.80004882813
935.175447383492	2436.19995117188
935.880140418599	2439.60009765625
936.584744760286	2465
937.289260416366	2454.80004882813
937.993687394647	2477.19995117188
938.698025702939	2501.39990234375
939.402275349051	2531
940.106436340793	2548.19995117188
940.810508685976	2527.80004882813
941.5144923924	2521.60009765625
942.21838746788	2499.80004882813
942.922193920223	2483.80004882813
943.625911757231	2471.39990234375
944.329540986716	2454.80004882813
945.033081616484	2439.39990234375
945.736533654334	2436.80004882813
946.439897108083	2432.60009765625
947.143171985529	2439
947.846358294477	2464.39990234375
948.549456042732	2456.60009765625
949.2524652381	2460
949.955385888382	2470
950.658218001384	2471.19995117188
951.360961584907	2480.80004882813
952.063616646755	2461.39990234375
952.766183194733	2464.19995117188
953.468661236636	2445
954.171050780271	2441.19995117188
954.873351833437	2437.60009765625
955.575564403935	2426.60009765625
956.277688499565	2447.60009765625
956.97972412813	2426.80004882813
957.681671297424	2419
958.383530015255	2417.60009765625
959.085300289414	2418.80004882813
959.786982127703	2449.39990234375
960.488575537918	2430.19995117188
961.190080527859	2427.60009765625
961.891497105327	2415
962.592825278111	2408.60009765625
963.294065054012	2409.39990234375
963.995216440829	2424.39990234375
964.696279446353	2456.80004882813
965.397254078383	2464.60009765625
966.098140344714	2464.60009765625
966.798938253139	2439.19995117188
967.499647811456	2438.80004882813
968.200269027458	2451.19995117188
968.900801908937	2416.39990234375
969.601246463685	2413.19995117188
970.3016026995	2402.80004882813
971.001870624169	2392
971.702050245491	2413
972.402141571249	2383
973.102144609245	2399.39990234375
973.802059367267	2386.60009765625
974.501885853103	2431.60009765625
975.201624074541	2444.60009765625
975.901274039379	2461.19995117188
976.600835755399	2454.19995117188
977.3003092304	2438.19995117188
977.999694472158	2440
978.698991488473	2452
979.39820028713	2428.60009765625
980.097320875915	2440
980.796353262618	2449
981.495297455024	2448
982.194153460919	2447
982.892921288093	2458.80004882813
983.591600944331	2452
984.290192437419	2457.60009765625
984.98869577514	2435.60009765625
985.687110965282	2419.80004882813
986.385438015629	2400.80004882813
987.083676933961	2380.60009765625
987.781827728069	2407.60009765625
988.479890405732	2418.60009765625
989.177864974732	2414.80004882813
989.875751442857	2421.80004882813
990.573549817888	2408.60009765625
991.271260107602	2434.80004882813
991.968882319786	2426.39990234375
992.666416462217	2409.80004882813
993.363862542681	2408.60009765625
994.061220568959	2384.19995117188
994.758490548823	2387.60009765625
995.455672490061	2390
996.152766400451	2427.39990234375
996.849772287773	2443.60009765625
997.5466901598	2419.80004882813
998.243520024317	2425.80004882813
998.940261889097	2417.60009765625
999.636915761923	2401.39990234375
1000.33348165057	2367.39990234375
1001.02995956281	2362.19995117188
1001.72634950643	2377.39990234375
1002.42265148919	2410
1003.11886551889	2411.60009765625
1003.81499160328	2444.39990234375
1004.51102975015	2449
1005.20697996727	2447
1005.90284226242	2433.80004882813
1006.59861664337	2437.39990234375
1007.2943031179	2409.60009765625
1007.98990169377	2452
1008.68541237876	2454.39990234375
1009.38083518064	2462.19995117188
1010.07617010719	2463
1010.77141716617	2453.60009765625
1011.46657636536	2448.39990234375
1012.16164771253	2457
1012.85663121546	2437.39990234375
1013.5515268819	2440.19995117188
1014.24633471963	2423.60009765625
1014.94105473642	2426.60009765625
1015.63568694004	2422.19995117188
1016.33023133826	2452.19995117188
1017.02468793885	2439
1017.71905674957	2435.60009765625
1018.41333777819	2435.60009765625
1019.10753103249	2433
1019.80163652022	2424.80004882813
1020.49565424916	2425.80004882813
1021.18958422707	2408
1021.88342646171	2409.19995117188
1022.57718096085	2406.39990234375
1023.27084773227	2430
1023.96442678371	2432.80004882813
1024.65791812296	2405.80004882813
1025.35132175776	2368.19995117188
1026.04463769589	2361.60009765625
1026.73786594511	2352.19995117188
1027.43100651318	2359.39990234375
1028.12405940786	2353.39990234375
1028.81702463692	2351
1029.50990220812	2359.39990234375
1030.20269212921	2349.80004882813
1030.89539440798	2360
1031.58800905216	2351
1032.28053606952	2328.19995117188
1032.97297546784	2338.39990234375
1033.66532725485	2353.39990234375
1034.35759143832	2362
1035.04976802602	2369.19995117188
1035.7418570257	2320.80004882813
1036.43385844511	2356.60009765625
1037.12577229202	2336.80004882813
1037.81759857419	2358.80004882813
1038.50933729937	2355.80004882813
1039.20098847531	2380.19995117188
1039.89255210978	2380.19995117188
1040.58402821053	2413.19995117188
1041.27541678532	2401.39990234375
1041.96671784191	2386.60009765625
1042.65793138804	2390
1043.34905743147	2382.39990234375
1044.04009597996	2395.19995117188
1044.73104704125	2368.39990234375
1045.42191062312	2381.39990234375
1046.1126867333	2369.80004882813
1046.80337537955	2389.60009765625
1047.49397656962	2377.80004882813
1048.18449031127	2377.60009765625
1048.87491661225	2386
1049.5652554803	2356.60009765625
1050.25550692319	2328.80004882813
1050.94567094865	2299.39990234375
1051.63574756444	2310.60009765625
1052.32573677832	2335.60009765625
1053.01563859803	2350.39990234375
1053.70545303131	2326.80004882813
1054.39518008592	2325.80004882813
1055.08481976961	2347.19995117188
1055.77437209013	2339.19995117188
1056.46383705522	2348.80004882813
1057.15321467262	2331.80004882813
1057.8425049501	2342.39990234375
1058.53170789539	2343.80004882813
1059.22082351624	2311.60009765625
1059.9098518204	2302
1060.59879281561	2312.19995117188
1061.28764650962	2307.39990234375
1061.97641291016	2341.39990234375
1062.665092025	2325.19995117188
1063.35368386187	2315.39990234375
1064.04218842851	2335.19995117188
1064.73060573268	2336.60009765625
1065.4189357821	2343.60009765625
1066.10717858452	2328.19995117188
1066.7953341477	2329
1067.48340247936	2313
1068.17138358725	2289.19995117188
1068.85927747912	2304.39990234375
1069.5470841627	2324.60009765625
1070.23480364573	2330.60009765625
1070.92243593595	2328.19995117188
1071.60998104111	2328.19995117188
1072.29743896894	2331.39990234375
1072.98480972718	2319
1073.67209332357	2330.19995117188
1074.35928976585	2363
1075.04639906176	2342.39990234375
1075.73342121903	2366
1076.42035624541	2367.60009765625
1077.10720414862	2388.80004882813
1077.79396493641	2398.39990234375
1078.48063861651	2376.60009765625
1079.16722519666	2360.39990234375
1079.85372468459	2360.39990234375
1080.54013708804	2368
1081.22646241474	2359.39990234375
1081.91270067243	2357
1082.59885186884	2347.60009765625
1083.28491601171	2355.19995117188
1083.97089310877	2357.80004882813
1084.65678316774	2376
1085.34258619637	2386.39990234375
1086.02830220239	2381.39990234375
1086.71393119352	2377.60009765625
1087.39947317751	2370.80004882813
1088.08492816207	2384.19995117188
1088.77029615495	2423.80004882813
1089.45557716387	2400.60009765625
1090.14077119656	2391.60009765625
1090.82587826075	2379.80004882813
1091.51089836417	2381.19995117188
1092.19583151456	2378.39990234375
1092.88067771963	2383.19995117188
1093.56543698712	2351.19995117188
1094.25010932475	2337.80004882813
1094.93469474026	2330.80004882813
1095.61919324137	2343.19995117188
1096.3036048358	2328.60009765625
1096.98792953129	2339.80004882813
1097.67216733555	2363.39990234375
1098.35631825632	2392.80004882813
1099.04038230132	2379.39990234375
1099.72435947828	2366
1100.40824979492	2338.19995117188
1101.09205325895	2349.60009765625
1101.77576987812	2317.80004882813
1102.45939966014	2289
1103.14294261273	2274
1103.82639874362	2280.19995117188
1104.50976806054	2283
1105.19305057119	2305.60009765625
1105.87624628331	2327
1106.55935520461	2356.39990234375
1107.24237734283	2353.19995117188
1107.92531270566	2367.60009765625
1108.60816130085	2382.39990234375
1109.2909231361	2377.60009765625
1109.97359821914	2394.60009765625
1110.65618655768	2414
1111.33868815946	2427.39990234375
1112.02110303217	2401
1112.70343118355	2407.60009765625
1113.3856726213	2393.80004882813
1114.06782735316	2345.19995117188
1114.74989538683	2363.80004882813
1115.43187673002	2344.80004882813
1116.11377139047	2352.39990234375
1116.79557937588	2344
1117.47730069397	2357.80004882813
1118.15893535245	2383
1118.84048335904	2381
1119.52194472146	2362
1120.20331944741	2383.80004882813
1120.88460754462	2366.39990234375
1121.56580902079	2374.19995117188
1122.24692388364	2384.39990234375
1122.92795214088	2383.60009765625
1123.60889380022	2404.39990234375
1124.28974886938	2446.39990234375
1124.97051735606	2451.39990234375
1125.65119926799	2446.80004882813
1126.33179461286	2447.19995117188
1127.0123033984	2451.19995117188
1127.6927256323	2453.60009765625
1128.37306132229	2414.80004882813
1129.05331047606	2430.39990234375
1129.73347310134	2427.60009765625
1130.41354920582	2417
1131.09353879722	2394.39990234375
1131.77344188324	2383.80004882813
1132.45325847159	2382
1133.13298856999	2386.39990234375
1133.81263218612	2377.39990234375
1134.49218932772	2415.19995117188
1135.17166000247	2407.19995117188
1135.85104421809	2385
1136.53034198227	2367.80004882813
1137.20955330274	2349.39990234375
1137.88867818718	2339.60009765625
1138.56771664331	2355
1139.24666867883	2361.60009765625
1139.92553430144	2361
1140.60431351885	2365.19995117188
1141.28300633876	2356.60009765625
1141.96161276887	2379
1142.64013281689	2364.80004882813
1143.31856649051	2355.60009765625
1143.99691379744	2329
1144.67517474538	2320.39990234375
1145.35334934203	2322.39990234375
1146.03143759509	2314.60009765625
1146.70943951226	2301.39990234375
1147.38735510125	2302
1148.06518436974	2255
1148.74292732545	2281.60009765625
1149.42058397606	2277
1150.09815432928	2307.19995117188
1150.7756383928	2308.60009765625
1151.45303617432	2339
1152.13034768155	2348.19995117188
1152.80757292217	2394.60009765625
1153.48471190389	2374.39990234375
1154.16176463439	2396
1154.83873112138	2371.60009765625
1155.51561137255	2339.80004882813
1156.1924053956	2333.80004882813
1156.86911319822	2354.60009765625
1157.5457347881	2341
1158.22227017294	2349.39990234375
1158.89871936044	2319.19995117188
1159.57508235828	2332
1160.25135917416	2322.80004882813
1160.92754981578	2318.60009765625
1161.60365429081	2338.80004882813
1162.27967260697	2326.80004882813
1162.95560477193	2332.39990234375
1163.63145079339	2317
1164.30721067904	2329.19995117188
1164.98288443657	2312.39990234375
1165.65847207367	2325.39990234375
1166.33397359803	2350.19995117188
1167.00938901735	2328.80004882813
1167.6847183393	2351.39990234375
1168.35996157157	2366
1169.03511872187	2372.39990234375
1169.71018979787	2354.19995117188
1170.38517480726	2348
1171.06007375773	2349.80004882813
1171.73488665696	2318.60009765625
1172.40961351265	2327.19995117188
1173.08425433247	2324.39990234375
1173.75880912412	2330
1174.43327789528	2351.39990234375
1175.10766065364	2377.80004882813
1175.78195740687	2386.19995117188
1176.45616816267	2424.19995117188
1177.13029292871	2429
1177.80433171269	2418.39990234375
1178.47828452229	2421
1179.15215136518	2431
1179.82593224905	2420.80004882813
1180.49962718159	2437.60009765625
1181.17323617047	2469.19995117188
1181.84675922337	2482.60009765625
1182.52019634799	2477.19995117188
1183.193547552	2475.60009765625
1183.86681284307	2456
1184.53999222889	2444.80004882813
1185.21308571714	2436.80004882813
1185.8860933155	2417.80004882813
1186.55901503165	2426.39990234375
1187.23185087326	2422.39990234375
1187.90460084802	2426.19995117188
1188.5772649636	2433
1189.24984322768	2429.39990234375
1189.92233564794	2444.80004882813
1190.59474223206	2437.80004882813
1191.2670629877	2459.60009765625
1191.93929792255	2466.80004882813
1192.61144704428	2466.80004882813
1193.28351036058	2441
1193.9554878791	2432.19995117188
1194.62737960754	2434.80004882813
1195.29918555356	2417.80004882813
1195.97090572483	2415.19995117188
1196.64254012903	2431
1197.31408877384	2441.19995117188
1197.98555166693	2434
1198.65692881596	2425.80004882813
1199.32822022862	2421
1199.99942591256	2401.60009765625
1200.67054587548	2391.19995117188
1201.34158012503	2377
1202.01252866889	2373.39990234375
1202.68339151473	2359.80004882813
1203.35416867021	2351.80004882813
1204.02486014301	2337.19995117188
1204.6954659408	2360.39990234375
1205.36598607124	2360
1206.03642054201	2347.80004882813
1206.70676936078	2344.60009765625
1207.3770325352	2332
1208.04721007295	2334.19995117188
1208.7173019817	2320.80004882813
1209.38730826911	2303.39990234375
1210.05722894285	2326.80004882813
1210.72706401059	2303.80004882813
1211.39681347999	2296.60009765625
1212.06647735872	2287.60009765625
1212.73605565444	2286.19995117188
1213.40554837481	2298.60009765625
1214.07495552751	2321.80004882813
1214.74427712019	2323.60009765625
1215.41351316052	2333.39990234375
1216.08266365617	2343.19995117188
1216.75172861479	2326.60009765625
1217.42070804405	2312
1218.0896019516	2314.19995117188
1218.75841034513	2314.39990234375
1219.42713323227	2351.19995117188
1220.0957706207	2348
1220.76432251808	2340.39990234375
1221.43278893207	2340.80004882813
1222.10116987032	2332.80004882813
1222.7694653405	2337
1223.43767535026	2332.80004882813
1224.10579990727	2328.19995117188
1224.77383901918	2337
1225.44179269366	2332.60009765625
1226.10966093835	2335
1226.77744376093	2337
1227.44514116904	2338.60009765625
1228.11275317034	2328.39990234375
1228.78027977249	2323.19995117188
1229.44772098315	2314.19995117188
1230.11507680996	2296.60009765625
1230.7823472606	2299.39990234375
1231.44953234271	2273.19995117188
1232.11663206394	2266
1232.78364643195	2275.60009765625
1233.4505754544	2280
1234.11741913894	2280.80004882813
1234.78417749322	2286.39990234375
1235.45085052489	2301.19995117188
1236.11743824162	2284.19995117188
1236.78394065104	2256.80004882813
1237.45035776082	2284.80004882813
1238.1166895786	2285.60009765625
1238.78293611204	2291.80004882813
1239.44909736878	2273.60009765625
1240.11517335648	2264.60009765625
1240.78116408279	2276.19995117188
1241.44706955535	2284.39990234375
1242.11288978182	2280.80004882813
1242.77862476985	2267.39990234375
1243.44427452708	2250
1244.10983906116	2221.60009765625
1244.77531837974	2208
1245.44071249047	2244.60009765625
1246.106021401	2235
1246.77124511898	2244.80004882813
1247.43638365204	2268.80004882813
1248.10143700783	2275.60009765625
1248.76640519401	2280.19995117188
1249.43128821822	2246.19995117188
1250.0960860881	2250.39990234375
1250.76079881129	2255.80004882813
1251.42542639545	2251.19995117188
1252.08996884822	2241.60009765625
1252.75442617723	2238.60009765625
1253.41879839014	2245
1254.08308549458	2265.80004882813
1254.74728749821	2276.39990234375
1255.41140440866	2273.19995117188
1256.07543623357	2256.80004882813
1256.73938298059	2248
1257.40324465735	2239.60009765625
1258.0670212715	2232
1258.73071283068	2224.39990234375
1259.39431934253	2220.60009765625
1260.05784081468	2210.19995117188
1260.72127725479	2209.39990234375
1261.38462867049	2213.39990234375
1262.0478950694	2241.60009765625
1262.71107645919	2242
1263.37417284748	2253.80004882813
1264.03718424191	2268.19995117188
1264.70011065011	2264.80004882813
1265.36295207974	2267.60009765625
1266.02570853841	2258.80004882813
1266.68838003378	2250.60009765625
1267.35096657346	2248.39990234375
1268.01346816511	2263.39990234375
1268.67588481636	2257.80004882813
1269.33821653483	2254.39990234375
1270.00046332817	2233
1270.66262520401	2275.39990234375
1271.32470216998	2267
1271.98669423372	2268.60009765625
1272.64860140285	2233
1273.31042368503	2238.19995117188
1273.97216108786	2266.39990234375
1274.633813619	2282.19995117188
1275.29538128606	2298.19995117188
1275.95686409669	2294.60009765625
1276.6182620585	2288.80004882813
1277.27957517914	2295.19995117188
1277.94080346624	2269
1278.60194692741	2263.60009765625
1279.2630055703	2279.19995117188
1279.92397940253	2292.39990234375
1280.58486843173	2269.19995117188
1281.24567266552	2266.19995117188
1281.90639211155	2259
1282.56702677743	2248.60009765625
1283.2275766708	2249
1283.88804179927	2223.60009765625
1284.54842217049	2216.80004882813
1285.20871779206	2212
1285.86892867163	2228.19995117188
1286.52905481681	2266.19995117188
1287.18909623523	2287.60009765625
1287.84905293452	2285
1288.5089249223	2291.80004882813
1289.16871220619	2290.60009765625
1289.82841479383	2306.80004882813
1290.48803269282	2321.19995117188
1291.1475659108	2282.19995117188
1291.80701445539	2272.39990234375
1292.46637833421	2243.80004882813
1293.12565755489	2241.39990234375
1293.78485212504	2218.19995117188
1294.44396205229	2192.39990234375
1295.10298734425	2214.39990234375
1295.76192800856	2207
1296.42078405283	2215.80004882813
1297.07955548467	2215.19995117188
1297.73824231171	2232.39990234375
1298.39684454158	2225.39990234375
1299.05536218188	2253.80004882813
1299.71379524023	2257
1300.37214372427	2248.60009765625
1301.03040764159	2242.39990234375
1301.68858699983	2241.19995117188
1302.34668180659	2274.39990234375
1303.0046920695	2305.80004882813
1303.66261779617	2287.60009765625
1304.32045899422	2297.19995117188
1304.97821567126	2319.60009765625
1305.63588783492	2312
1306.29347549279	2324.19995117188
1306.95097865251	2336
1307.60839732168	2331
1308.26573150791	2349.19995117188
1308.92298121883	2361.60009765625
1309.58014646204	2319
1310.23722724517	2345.80004882813
1310.89422357581	2347.39990234375
1311.55113546158	2357.19995117188
1312.2079629101	2380.60009765625
1312.86470592898	2386.80004882813
1313.52136452582	2394.19995117188
1314.17793870824	2382.60009765625
1314.83442848386	2375.39990234375
1315.49083386027	2379
1316.14715484509	2369.60009765625
1316.80339144594	2367
1317.45954367041	2370.19995117188
1318.11561152611	2378
1318.77159502067	2357.60009765625
1319.42749416168	2369
1320.08330895674	2357.60009765625
1320.73903941348	2361.19995117188
1321.3946855395	2330.39990234375
1322.0502473424	2306.39990234375
1322.70572482978	2309.60009765625
1323.36111800926	2315.60009765625
1324.01642688845	2317.39990234375
1324.67165147494	2304.39990234375
1325.32679177634	2311.60009765625
1325.98184780025	2317.19995117188
1326.63681955429	2285.80004882813
1327.29170704605	2263.19995117188
1327.94651028314	2249
1328.60122927316	2245
1329.25586402371	2250
1329.9104145424	2247.80004882813
1330.56488083683	2231.39990234375
1331.2192629146	2238.39990234375
1331.87356078331	2222.39990234375
1332.52777445056	2255.60009765625
1333.18190392395	2256.80004882813
1333.83594921109	2255.80004882813
1334.48991031958	2256.80004882813
1335.143787257	2221.19995117188
1335.79758003097	2228.80004882813
1336.45128864908	2235
1337.10491311893	2233.39990234375
1337.75845344813	2234.19995117188
1338.41190964425	2223.19995117188
1339.06528171491	2235.39990234375
1339.71856966771	2234.39990234375
1340.37177351023	2217.39990234375
1341.02489325007	2212.19995117188
1341.67792889484	2190.39990234375
1342.33088045212	2180
1342.98374792952	2189
1343.63653133462	2196.60009765625
1344.28923067503	2223.80004882813
1344.94184595833	2235.80004882813
1345.59437719212	2249
1346.246824384	2258.39990234375
1346.89918754155	2270.80004882813
1347.55146667238	2276.39990234375
1348.20366178407	2276.19995117188
1348.85577288421	2290.60009765625
1349.50779998041	2295.19995117188
1350.15974308024	2320.19995117188
1350.8116021913	2326.39990234375
1351.46337732119	2345
1352.11506847748	2366.60009765625
1352.76667566778	2372.80004882813
1353.41819889967	2347
1354.06963818074	2364
1354.72099351858	2388.60009765625
1355.37226492079	2393
1356.02345239494	2394.19995117188
1356.67455594862	2434.60009765625
1357.32557558943	2468.80004882813
1357.97651132496	2505.39990234375
1358.62736316277	2523.39990234375
1359.27813111048	2536.80004882813
1359.92881517565	2554
1360.57941536589	2561.39990234375
1361.22993168876	2597
1361.88036415186	2592.39990234375
1362.53071276278	2599.39990234375
1363.1809775291	2614.80004882813
1363.8311584584	2616
1364.48125555826	2594.80004882813
1365.13126883627	2543.80004882813
1365.78119830001	2524.39990234375
1366.43104395707	2470.80004882813
1367.08080581503	2429.39990234375
1367.73048388147	2408.39990234375
1368.38007816397	2371
1369.02958867011	2353.60009765625
1369.67901540748	2349.80004882813
1370.32835838365	2327.60009765625
1370.9776176062	2316.19995117188
1371.62679308273	2318.60009765625
1372.27588482079	2311.39990234375
1372.92489282798	2326.39990234375
1373.57381711188	2330
1374.22265768006	2305.39990234375
1374.87141454009	2277.80004882813
1375.52008769957	2284
1376.16867716606	2267.39990234375
1376.81718294715	2265.39990234375
1377.4656050504	2244.60009765625
1378.1139434834	2263.19995117188
1378.76219825373	2263
1379.41036936895	2257.39990234375
1380.05845683664	2245.39990234375
1380.70646066439	2259.60009765625
1381.35438085976	2237.80004882813
1382.00221743032	2215.80004882813
1382.64997038366	2219.39990234375
1383.29763972735	2205.39990234375
1383.94522546895	2218.19995117188
1384.59272761605	2221.19995117188
1385.24014617621	2227.19995117188
1385.88748115701	2217.60009765625
1386.53473256602	2238.19995117188
1387.18190041081	2234.39990234375
1387.82898469895	2224.80004882813
1388.47598543802	2229
1389.12290263558	2215.60009765625
1389.7697362992	2191.60009765625
1390.41648643646	2168
1391.06315305492	2162
1391.70973616215	2148
1392.35623576573	2145
1393.00265187321	2130.39990234375
1393.64898449217	2148
1394.29523363018	2153
1394.94139929481	2119.39990234375
1395.58748149361	2134
1396.23348023415	2106.60009765625
1396.87939552402	2092.60009765625
1397.52522737076	2070.19995117188
1398.17097578195	2067.19995117188
1398.81664076514	2047.80004882813
1399.46222232792	2043.59997558594
1400.10772047783	2047.40002441406
1400.75313522245	2055
1401.39846656934	2104.19995117188
1402.04371452605	2100.60009765625
1402.68887910016	2114.60009765625
1403.33396029924	2124.60009765625
1403.97895813083	2133.80004882813
1404.6238726025	2137.39990234375
1405.26870372182	2134.60009765625
1405.91345149634	2146.80004882813
1406.55811593363	2122.39990234375
1407.20269704125	2101
1407.84719482676	2110
1408.49160929772	2076.60009765625
1409.13594046168	2089
1409.78018832622	2101
1410.42435289887	2089.39990234375
1411.06843418722	2093.60009765625
1411.7124321988	2101.39990234375
1412.3563469412	2114.19995117188
1413.00017842194	2137.39990234375
1413.64392664861	2160.60009765625
1414.28759162875	2176.80004882813
1414.93117336992	2166.39990234375
1415.57467187967	2135.60009765625
1416.21808716557	2154.39990234375
1416.86141923516	2158.60009765625
1417.50466809601	2151
1418.14783375567	2159.39990234375
1418.79091622169	2175.60009765625
1419.43391550162	2147.60009765625
1420.07683160303	2128.80004882813
1420.71966453346	2138.19995117188
1421.36241430046	2138.39990234375
1422.0050809116	2143.80004882813
1422.64766437442	2138
1423.29016469647	2156.19995117188
1423.93258188531	2167.80004882813
1424.57491594848	2163.60009765625
1425.21716689354	2159.39990234375
1425.85933472805	2140.19995117188
1426.50141945954	2132.19995117188
1427.14342109557	2110.80004882813
1427.78533964369	2126.39990234375
1428.42717511144	2114.80004882813
1429.06892750639	2131.60009765625
1429.71059683607	2116.19995117188
1430.35218310803	2117
1430.99368632983	2118.60009765625
1431.635106509	2129.80004882813
1432.2764436531	2137.80004882813
1432.91769776967	2127.39990234375
1433.55886886627	2151.80004882813
1434.19995695043	2139.80004882813
1434.84096202969	2151.60009765625
1435.48188411162	2108.80004882813
1436.12272320375	2118.19995117188
1436.76347931363	2114.39990234375
1437.40415244879	2118.39990234375
1438.0447426168	2130.19995117188
1438.68524982518	2118.39990234375
1439.32567408148	2114.80004882813
1439.96601539325	2107.19995117188
1440.60627376803	2091.39990234375
1441.24644921336	2102.39990234375
1441.88654173678	2091
1442.52655134583	2101.60009765625
1443.16647804806	2081.39990234375
1443.806321851	2095.39990234375
1444.4460827622	2092.39990234375
1445.0857607892	2076.60009765625
1445.72535593953	2078
1446.36486822074	2088.19995117188
1447.00429764037	2072
1447.64364420595	2085.19995117188
1448.28290792502	2098.60009765625
1448.92208880512	2095.19995117188
1449.56118685379	2096
1450.20020207857	2102.80004882813
1450.83913448699	2107
1451.47798408659	2126.60009765625
1452.1167508849	2116.19995117188
1452.75543488947	2119.60009765625
1453.39403610782	2101.80004882813
1454.0325545475	2106.39990234375
1454.67099021603	2095
1455.30934312097	2114.19995117188
1455.94761326982	2103.39990234375
1456.58580067014	2083.19995117188
1457.22390532945	2097.60009765625
1457.86192725529	2099.80004882813
1458.49986645519	2117.19995117188
1459.13772293668	2111.60009765625
1459.7754967073	2098
1460.41318777457	2092.39990234375
1461.05079614604	2104.60009765625
1461.68832182922	2073
1462.32576483166	2067.19995117188
1462.96312516087	2073
1463.6004028244	2082.80004882813
1464.23759782977	2072.19995117188
1464.8747101845	2086.39990234375
1465.51173989614	2101.60009765625
1466.14868697221	2096.80004882813
1466.78555142024	2088.19995117188
1467.42233324774	2091.80004882813
1468.05903246227	2082.39990234375
1468.69564907133	2077
1469.33218308246	2061.39990234375
1469.96863450317	2066
1470.60500334102	2071
1471.2412896035	2101.80004882813
1471.87749329816	2094.39990234375
1472.51361443251	2088.60009765625
1473.14965301409	2103.39990234375
1473.78560905041	2100.80004882813
1474.421482549	2092.19995117188
1475.05727351739	2088.60009765625
1475.69298196309	2077.60009765625
1476.32860789364	2078
1476.96415131654	2065
1477.59961223934	2062
1478.23499066954	2051.60009765625
1478.87028661467	2055.19995117188
1479.50550008226	2056
1480.14063107981	2048.80004882813
1480.77567961486	2051.60009765625
1481.41064569492	2049.39990234375
1482.04552932752	2053.60009765625
1482.68033052017	2062.19995117188
1483.31504928039	2078
1483.9496856157	2087.39990234375
1484.58423953363	2091
1485.21871104168	2100
1485.85310014738	2082.80004882813
1486.48740685824	2058.80004882813
1487.12163118178	2052
1487.75577312553	2076.19995117188
1488.38983269698	2083.80004882813
1489.02380990367	2071.19995117188
1489.65770475311	2073
1490.29151725281	2090.39990234375
1490.92524741029	2115.19995117188
1491.55889523306	2107.39990234375
1492.19246072863	2132
1492.82594390453	2138.39990234375
1493.45934476826	2165.80004882813
1494.09266332734	2147.80004882813
1494.72589958928	2160.39990234375
1495.3590535616	2170
1495.99212525181	2195.39990234375
1496.62511466741	2197.60009765625
1497.25802181592	2164.60009765625
1497.89084670485	2179
1498.52358934172	2194
1499.15624973403	2203.80004882813
1499.7888278893	2222.39990234375
1500.42132381503	2225.60009765625
1501.05373751873	2272.19995117188
1501.68606900792	2297.39990234375
1502.31831829009	2327
1502.95048537277	2350.80004882813
1503.58257026346	2340.19995117188
1504.21457296966	2356.80004882813
1504.84649349889	2369.19995117188
1505.47833185864	2394.19995117188
1506.11008805644	2389.39990234375
1506.74176209978	2403.19995117188
1507.37335399617	2411.39990234375
1508.00486375312	2397.39990234375
1508.63629137813	2379.19995117188
1509.2676368787	2376.39990234375
1509.89890026235	2403.60009765625
1510.53008153658	2407.60009765625
1511.16118070889	2387.80004882813
1511.79219778677	2383.60009765625
1512.42313277775	2357.39990234375
1513.05398568932	2343.39990234375
1513.68475652898	2367
1514.31544530424	2338.19995117188
1514.9460520226	2308.60009765625
1515.57657669155	2255.80004882813
1516.20701931861	2226.39990234375
1516.83737991127	2197.19995117188
1517.46765847702	2190
1518.09785502339	2183.19995117188
1518.72796955785	2197
1519.35800208792	2191.60009765625
1519.98795262109	2190.19995117188
1520.61782116486	2179.60009765625
1521.24760772673	2189
1521.87731231419	2178
1522.50693493475	2152.19995117188
1523.1364755959	2154
1523.76593430514	2129.60009765625
1524.39531106997	2133.39990234375
1525.02460589788	2117
1525.65381879637	2105
1526.28294977293	2099
1526.91199883507	2090.39990234375
1527.54096599027	2064.80004882813
1528.16985124603	2062.39990234375
1528.79865460984	2060.19995117188
1529.4273760892	2046
1530.05601569161	2065.39990234375
1530.68457342455	2096.80004882813
1531.31304929552	2098.80004882813
1531.94144331201	2121.80004882813
1532.56975548151	2142
1533.19798581152	2130.19995117188
1533.82613430953	2144.60009765625
1534.45420098302	2157.39990234375
1535.08218583949	2127.80004882813
1535.71008888643	2095.60009765625
1536.33791013134	2080.60009765625
1536.96564958169	2112.80004882813
1537.59330724498	2111.60009765625
1538.22088312871	2096
1538.84837724034	2082.80004882813
1539.47578958739	2078
1540.10312017733	2054.80004882813
1540.73036901765	2057.39990234375
1541.35753611584	2053.19995117188
1541.98462147939	2043.59997558594
1542.61162511578	2043.80004882813
1543.2385470325	2061
1543.86538723704	2068
1544.49214573688	2071.19995117188
1545.11882253951	2095.39990234375
1545.74541765241	2101
1546.37193108306	2092.39990234375
1546.99836283896	2083.60009765625
1547.62471292758	2067.80004882813
1548.25098135641	2063.19995117188
1548.87716813294	2064.60009765625
1549.50327326464	2045.80004882813
1550.12929675899	2049.39990234375
1550.75523862349	2040.59997558594
1551.38109886561	2035.19995117188
1552.00687749284	2042.59997558594
1552.63257451264	2054.60009765625
1553.25818993252	2051.19995117188
1553.88372375994	2026.59997558594
1554.50917600239	2032.19995117188
1555.13454666734	2030.59997558594
1555.75983576228	2033.59997558594
1556.38504329469	2012.59997558594
1557.01016927204	2005.40002441406
1557.63521370181	2014.59997558594
1558.26017659149	2011.80004882813
1558.88505794854	2030.19995117188
1559.50985778045	2033
1560.13457609469	2024.40002441406
1560.75921289874	2005.40002441406
1561.38376820008	2033.80004882813
1562.00824200618	2004
1562.63263432452	2014
1563.25694516257	2032.40002441406
1563.88117452781	2025
1564.50532242772	2014.19995117188
1565.12938886976	2035
1565.75337386141	2054.80004882813
1566.37727741015	2060.39990234375
1567.00109952345	2069
1567.62484020878	2098
1568.24849947361	2107.39990234375
1568.87207732542	2102.39990234375
1569.49557377168	2115.39990234375
1570.11898881986	2126.80004882813
1570.74232247743	2132.39990234375
1571.36557475186	2143.19995117188
1571.98874565062	2142.19995117188
1572.61183518119	2152.39990234375
1573.23484335103	2169.39990234375
1573.85777016761	2185.80004882813
1574.4806156384	2188.60009765625
1575.10337977088	2218.19995117188
1575.7260625725	2188.19995117188
1576.34866405074	2165.80004882813
1576.97118421306	2144.19995117188
1577.59362306694	2148.60009765625
1578.21598061984	2180
1578.83825687922	2168.19995117188
1579.46045185255	2142.39990234375
1580.08256554731	2112.80004882813
1580.70459797094	2109.19995117188
1581.32654913093	2073.39990234375
1581.94841903473	2049
1582.57020768981	2030.59997558594
1583.19191510364	2009.80004882813
1583.81354128367	2015.59997558594
1584.43508623737	2021.59997558594
1585.05654997221	1998.80004882813
1585.67793249564	1991.19995117188
1586.29923381514	1998.19995117188
1586.92045393815	1964
1587.54159287216	1971.19995117188
1588.1626506246	1980.80004882813
1588.78362720296	1970
1589.40452261468	1983
1590.02533686724	1977.40002441406
1590.64606996808	1978.80004882813
1591.26672192467	1962.80004882813
1591.88729274447	1954.80004882813
1592.50778243493	1943.59997558594
1593.12819100352	1946.59997558594
1593.7485184577	1957.59997558594
1594.36876480492	1943.80004882813
1594.98893005264	1944.40002441406
1595.60901420832	1945.40002441406
1596.22901727941	1945.40002441406
1596.84893927338	1968.80004882813
1597.46878019767	1969.80004882813
1598.08854005975	1963
1598.70821886707	1966.80004882813
1599.32781662708	1983
1599.94733334725	1985.80004882813
1600.56676903502	1968.19995117188
1601.18612369785	1980.19995117188
1601.8053973432	1956
1602.42458997851	1959.19995117188
1603.04370161124	1948
1603.66273224884	1944.80004882813
1604.28168189878	1931.40002441406
1604.90055056849	1930
1605.51933826543	1929.40002441406
1606.13804499705	1917.19995117188
1606.75667077081	1919.80004882813
1607.37521559415	1922.19995117188
1607.99367947452	1932.40002441406
1608.61206241938	1928
1609.23036443618	1923.80004882813
1609.84858553236	1916
1610.46672571537	1914.19995117188
1611.08478499267	1936.19995117188
1611.7027633717	1924.19995117188
1612.3206608599	1914.40002441406
1612.93847746473	1917.59997558594
1613.55621319364	1892.80004882813
1614.17386805407	1881.80004882813
1614.79144205347	1889.80004882813
1615.40893519928	1877.40002441406
1616.02634749895	1893.80004882813
1616.64367895993	1873.40002441406
1617.26092958966	1837.80004882813
1617.87809939559	1845.19995117188
1618.49518838516	1840
1619.11219656582	1839.19995117188
1619.729123945	1850
1620.34597053016	1824
1620.96273632874	1863.19995117188
1621.57942134818	1859
1622.19602559592	1863.59997558594
1622.8125490794	1846
1623.42899180607	1872.59997558594
1624.04535378337	1849.40002441406
1624.66163501874	1867.59997558594
1625.27783551963	1868.19995117188
1625.89395529346	1861.80004882813
1626.50999434768	1845.19995117188
1627.12595268974	1841.19995117188
1627.74183032707	1833.19995117188
1628.3576272671	1820.40002441406
1628.97334351729	1819.19995117188
1629.58897908506	1814.59997558594
1630.20453397786	1819
1630.82000820313	1822.40002441406
1631.43540176829	1824
1632.05071468079	1821.40002441406
1632.66594694807	1847.59997558594
1633.28109857756	1858.80004882813
1633.8961695767	1846.80004882813
1634.51115995292	1834.59997558594
1635.12606971366	1845
1635.74089886636	1853.59997558594
1636.35564741844	1857.59997558594
1636.97031537734	1865.40002441406
1637.58490275051	1884.19995117188
1638.19940954536	1885
1638.81383576934	1903
1639.42818142987	1901.59997558594
1640.0424465344	1921.80004882813
1640.65663109034	1934.40002441406
1641.27073510515	1928
1641.88475858623	1957.19995117188
1642.49870154104	1948.40002441406
1643.11256397699	1939.80004882813
1643.72634590152	1935.59997558594
1644.34004732206	1956
1644.95366824604	1979
1645.56720868089	2008.19995117188
1646.18066863404	2015.59997558594
1646.79404811291	2031.80004882813
1647.40734712494	2054.80004882813
1648.02056567755	2077.80004882813
1648.63370377817	2062.60009765625
1649.24676143423	2066
1649.85973865316	2046.80004882813
1650.47263544238	2039
1651.08545180932	2066.60009765625
1651.6981877614	2059
1652.31084330606	2045.80004882813
1652.92341845071	2017
1653.53591320278	1992
1654.1483275697	1972.59997558594
1654.7606615589	1942.40002441406
1655.37291517778	1926.59997558594
1655.98508843379	1916
1656.59718133434	1905.80004882813
1657.20919388685	1895.59997558594
1657.82112609875	1880.19995117188
1658.43297797747	1901.59997558594
1659.04474953041	1888.59997558594
1659.65644076501	1881.19995117188
1660.26805168869	1866
1660.87958230886	1834.80004882813
1661.49103263294	1810.40002441406
1662.10240266837	1807
1662.71369242255	1802.80004882813
1663.32490190291	1783.40002441406
1663.93603111687	1786
1664.54708007184	1773.19995117188
1665.15804877524	1771.19995117188
1665.7689372345	1779.40002441406
1666.37974545703	1772.19995117188
1666.99047345024	1776.59997558594
1667.60112122156	1776
1668.2116887784	1736.40002441406
1668.82217612818	1722
1669.43258327831	1720
1670.04291023622	1704.40002441406
1670.65315700931	1692.40002441406
1671.263323605	1694.40002441406
1671.8734100307	1682.80004882813
1672.48341629384	1672.19995117188
1673.09334240182	1677.19995117188
1673.70318836206	1682.19995117188
1674.31295418197	1659.40002441406
1674.92263986896	1674
1675.53224543046	1662.19995117188
1676.14177087386	1681
1676.75121620658	1671.59997558594
1677.36058143604	1668.59997558594
1677.96986656964	1671.80004882813
1678.5790716148	1666.80004882813
1679.18819657892	1663.80004882813
1679.79724146943	1687
1680.40620629372	1672.80004882813
1681.0150910592	1669.59997558594
1681.6238957733	1682.40002441406
1682.23262044341	1687
1682.84126507694	1690.19995117188
1683.4498296813	1695.19995117188
1684.0583142639	1691.59997558594
1684.66671883216	1708.40002441406
1685.27504339346	1707.59997558594
1685.88328795523	1703.80004882813
1686.49145252487	1679.19995117188
1687.09953710978	1673.80004882813
1687.70754171737	1683
1688.31546635505	1669.40002441406
1688.92331103021	1685.80004882813
1689.53107575028	1682.19995117188
1690.13876052265	1692.80004882813
1690.74636535472	1687.19995117188
1691.3538902539	1687
1691.96133522759	1675
1692.5687002832	1669.59997558594
1693.17598542812	1656.40002441406
1693.78319066977	1654.59997558594
1694.39031601554	1658.80004882813
1694.99736147283	1661.19995117188
1695.60432704905	1667
1696.2112127516	1697.59997558594
1696.81801858788	1688.40002441406
1697.42474456528	1685
1698.03139069121	1706.19995117188
1698.63795697307	1691.59997558594
1699.24444341826	1688.80004882813
1699.85085003417	1684.19995117188
1700.45717682821	1669
1701.06342380778	1668.19995117188
1701.66959098026	1668.19995117188
1702.27567835307	1653.19995117188
1702.88168593359	1639.59997558594
1703.48761372922	1655.40002441406
1704.09346174737	1638.80004882813
1704.69922999542	1631.19995117188
1705.30491848077	1623.59997558594
1705.91052721083	1635.19995117188
1706.51605619297	1642.59997558594
1707.12150543461	1656
1707.72687494312	1645.40002441406
1708.33216472592	1640
1708.93737479039	1624.19995117188
1709.54250514392	1610.40002441406
