634.977642221345	2636.80004882813
635.719821695905	2632
636.461909203392	2645
637.203904751776	2660
637.945808349023	2667.60009765625
638.687620003102	2707
639.42933972198	2708.39990234375
640.170967513616	2702.80004882813
640.912503385981	2706.19995117188
641.653947347041	2667
642.395299404758	2641.19995117188
643.13655956709	2633
643.877727842014	2618.39990234375
644.61880423748	2587.60009765625
645.359788761455	2583.19995117188
646.100681421905	2589
646.841482226789	2647.80004882813
647.582191184074	2632
648.322808301711	2621.80004882813
649.06333358767	2628.19995117188
649.803767049909	2629.39990234375
650.544108696385	2675.60009765625
651.28435853506	2684.80004882813
652.024516573894	2723.19995117188
652.764582820849	2719.39990234375
653.504557283875	2724.39990234375
654.244439970937	2731.19995117188
654.984230889991	2725.39990234375
655.723930048995	2742.80004882813
656.463537455909	2750.60009765625
657.203053118683	2740.60009765625
657.942477045275	2740.80004882813
658.681809243647	2738.80004882813
659.421049721747	2731.80004882813
660.160198487535	2725.19995117188
660.899255548962	2732
661.638220913985	2759.80004882813
662.377094590559	2755.39990234375
663.115876586631	2763.19995117188
663.854566910165	2764.39990234375
664.593165569107	2768.39990234375
665.331672571406	2759.60009765625
666.07008792502	2764.39990234375
666.808411637902	2751.19995117188
667.546643717996	2721.80004882813
668.284784173258	2710.19995117188
669.022833011641	2694.60009765625
669.760790241089	2731
670.498655869554	2699.80004882813
671.236429904987	2705
671.97411235534	2722.39990234375
672.711703228551	2742.39990234375
673.449202532577	2777.19995117188
674.186610275364	2803.60009765625
674.923926464857	2817
675.661151109008	2834.39990234375
676.398284215759	2812.80004882813
677.135325793058	2833.60009765625
677.87227584885	2858.60009765625
678.609134391082	2864.60009765625
679.345901427696	2864.60009765625
680.082576966644	2855.80004882813
680.819161015861	2851.60009765625
681.555653583298	2833.60009765625
682.292054676895	2820.39990234375
683.028364304594	2784.19995117188
683.764582474344	2782.80004882813
684.500709194083	2778.19995117188
685.236744471752	2769.39990234375
685.972688315294	2776.39990234375
686.708540732652	2765.80004882813
687.444301731762	2777.60009765625
688.179971320572	2790.19995117188
688.915549507013	2772.19995117188
689.651036299034	2766.39990234375
690.386431704569	2720.39990234375
691.121735731559	2723.39990234375
691.85694838794	2727.80004882813
692.592069681652	2699.39990234375
693.327099620632	2699.19995117188
694.062038212821	2710.19995117188
694.796885466149	2758
695.531641388561	2788
696.266305987987	2823
697.000879272367	2816.60009765625
697.735361249632	2830.39990234375
698.469751927722	2817.60009765625
699.204051314568	2842.19995117188
699.938259418107	2856
700.672376246272	2837.80004882813
701.406401806997	2830.80004882813
702.140336108212	2803
702.874179157855	2824
703.607930963856	2813.39990234375
704.341591534147	2821.60009765625
705.07516087666	2794.39990234375
705.808638999324	2816.39990234375
706.542025910073	2792.60009765625
707.275321616841	2805.19995117188
708.008526127549	2795.19995117188
708.741639450132	2796.19995117188
709.474661592521	2800.80004882813
710.207592562641	2820.19995117188
710.940432368424	2806.19995117188
711.673181017796	2835.39990234375
712.405838518687	2818
713.138404879025	2784.39990234375
713.870880106731	2812.39990234375
714.603264209738	2850.80004882813
715.335557195971	2871.60009765625
716.067759073357	2858
716.799869849816	2855.39990234375
717.531889533281	2879
718.263818131673	2835.19995117188
718.995655652917	2856.19995117188
719.727402104934	2827
720.45905749565	2812
721.19062183299	2817
721.922095124877	2800.39990234375
722.653477379231	2770
723.384768603973	2780.60009765625
724.11596880703	2801
724.847077996319	2815
725.578096179762	2846.39990234375
726.309023365281	2866.80004882813
727.039859560792	2860
727.770604774222	2859.60009765625
728.501259013484	2866
729.231822286501	2874.60009765625
729.962294601191	2891.19995117188
730.692675965469	2849.80004882813
731.42296638726	2797.39990234375
732.153165874472	2782.80004882813
732.883274435032	2822.80004882813
733.613292076851	2827.80004882813
734.343218807843	2848.80004882813
735.07305463593	2858
735.802799569028	2834.80004882813
736.532453615048	2838
737.262016781904	2837.19995117188
737.991489077517	2848.60009765625
738.720870509794	2834.39990234375
739.450161086654	2813.60009765625
740.179360816009	2823.19995117188
740.908469705772	2825.19995117188
741.637487763854	2852.19995117188
742.366414998168	2870.80004882813
743.095251416623	2883.60009765625
743.823997027137	2852.19995117188
744.552651837618	2875.60009765625
745.281215855978	2862.39990234375
746.009689090124	2860.19995117188
746.738071547964	2849.39990234375
747.466363237419	2805.39990234375
748.194564166384	2829.39990234375
748.92267434278	2833
749.650693774504	2825.80004882813
750.378622469476	2854.39990234375
751.106460435596	2880.60009765625
751.834207680771	2889.19995117188
752.561864212909	2857.19995117188
753.289430039919	2870
754.016905169707	2876.80004882813
754.744289610175	2880.80004882813
755.471583369231	2850.60009765625
756.198786454782	2842.80004882813
756.925898874728	2830
757.652920636979	2823.39990234375
758.379851749433	2835
759.106692219996	2838.19995117188
759.833442056572	2858.39990234375
760.560101267063	2878.60009765625
761.28666985937	2921
762.0131478414	2920.19995117188
762.739535221046	2924.39990234375
763.465832006219	2913.80004882813
764.192038204812	2945.39990234375
764.918153824731	2951.60009765625
765.644178873872	2961.19995117188
766.370113360138	2961.39990234375
767.095957291425	3012.39990234375
767.821710675635	3032.80004882813
768.547373520665	3040.39990234375
769.272945834415	3081
769.998427624781	3139
770.723818899658	3124.60009765625
771.449119666949	3129.39990234375
772.174329934546	3147.39990234375
772.899449710347	3161
773.624479002248	3164
774.349417818145	3187.19995117188
775.074266165934	3187.19995117188
775.799024053505	3189.39990234375
776.523691488757	3162
777.248268479582	3122.39990234375
777.972755033877	3080.80004882813
778.69715115953	3032.60009765625
779.421456864441	2987
780.145672156493	2982.39990234375
780.869797043587	2952.39990234375
781.593831533611	2974.60009765625
782.317775634457	2966.60009765625
783.041629354012	2979.19995117188
783.765392700174	2941
784.489065680828	2932.39990234375
785.212648303866	2922.39990234375
785.936140577177	2899.19995117188
786.659542508652	2896.19995117188
787.382854106174	2920
788.106075377639	2932
788.829206330928	2968.80004882813
789.552246973933	2929.19995117188
790.275197314542	2958
790.998057360638	2920.80004882813
791.720827120108	2892.60009765625
792.443506600841	2908.80004882813
793.166095810722	2876.39990234375
793.888594757635	2865.60009765625
794.611003449465	2838.39990234375
795.333321894098	2852.80004882813
796.055550099417	2891.19995117188
796.777688073308	2903
797.499735823654	2914.19995117188
798.221693358334	2886.60009765625
798.943560685235	2904
799.665337812239	2902.19995117188
800.387024747226	2918.60009765625
801.108621498075	2924.80004882813
801.830128072674	2937.39990234375
802.551544478902	2961.60009765625
803.272870724636	2911.19995117188
803.994106817761	2916.39990234375
804.715252766148	2903.80004882813
805.436308577687	2897.19995117188
806.157274260251	2877.60009765625
806.878149821721	2870.60009765625
807.598935269973	2867.60009765625
808.319630612886	2873
809.040235858336	2859.39990234375
809.760751014202	2878.39990234375
810.481176088361	2906
811.201511088685	2883
811.921756023059	2886.19995117188
812.641910899347	2843
813.361975725432	2830
814.081950509188	2809.80004882813
814.801835258489	2836.60009765625
815.521629981206	2837.19995117188
816.241334685218	2836
816.960949378392	2852.80004882813
817.680474068606	2873.80004882813
818.399908763731	2848
819.11925347164	2851
819.838508200202	2826.80004882813
820.55767295729	2832
821.276747750778	2830
821.995732588531	2841.80004882813
822.714627478425	2850.39990234375
823.433432428327	2868.60009765625
824.152147446105	2885.19995117188
824.870772539632	2890.39990234375
825.589307716775	2916
826.307752985404	2940.19995117188
827.026108353378	2919.39990234375
827.744373828579	2888
828.462549418867	2876.80004882813
829.180635132107	2886.60009765625
829.898630976168	2898.60009765625
830.616536958915	2923.39990234375
831.334353088218	2923.80004882813
832.052079371938	2894.80004882813
832.769715817942	2907.39990234375
833.487262434092	2896.60009765625
834.204719228255	2881.19995117188
834.922086208293	2860
835.639363382073	2853.19995117188
836.356550757456	2881.60009765625
837.073648342304	2862.39990234375
837.790656144484	2861.80004882813
838.507574171847	2906.19995117188
839.22440243227	2883.19995117188
839.941140933601	2869.80004882813
840.657789683706	2850.19995117188
841.374348690448	2858
842.090817961686	2854.80004882813
842.807197505276	2876.19995117188
843.523487329083	2860.80004882813
844.23968744096	2861.60009765625
844.955797848771	2857.80004882813
845.671818560374	2834.60009765625
846.387749583622	2819.19995117188
847.103590926378	2824
847.819342596497	2782.60009765625
848.535004601833	2776.60009765625
849.25057695025	2757.39990234375
849.966059649598	2748.80004882813
850.681452707735	2756
851.396756132513	2791.19995117188
852.111969931789	2805
852.827094113419	2861.39990234375
853.542128685257	2850.60009765625
854.257073655158	2870
854.971929030969	2871.60009765625
855.686694820551	2867.39990234375
856.40137103175	2869
857.115957672423	2827.39990234375
857.830454750423	2836.39990234375
858.544862273597	2831.19995117188
859.259180249797	2836
859.97340868688	2847.39990234375
860.687547592688	2871
861.401596975075	2894.80004882813
862.115556841891	2906
862.829427200985	2904
863.543208060205	2892.80004882813
864.256899427402	2881.39990234375
864.970501310423	2832.39990234375
865.684013717114	2825.80004882813
866.397436655325	2825.19995117188
867.110770132901	2815.80004882813
867.824014157691	2791.19995117188
868.537168737542	2790
869.250233880299	2804.60009765625
869.963209593803	2821
870.676095885902	2812.60009765625
871.388892764445	2815.39990234375
872.101600237276	2797.60009765625
872.814218312233	2789.60009765625
873.526746997165	2815.60009765625
874.239186299914	2834.80004882813
874.951536228323	2845.19995117188
875.663796790231	2799.39990234375
876.375967993487	2805.80004882813
877.088049845928	2808.39990234375
877.8000423554	2817.19995117188
878.511945529739	2784.80004882813
879.22375937679	2772.60009765625
879.935483904388	2785
880.64711912038	2760.19995117188
881.358665032604	2750.80004882813
882.070121648892	2747
882.78148897709	2773.80004882813
883.492767025039	2782.60009765625
884.203955800571	2813.39990234375
884.915055311525	2819.80004882813
885.626065565741	2780.80004882813
886.336986571053	2787.80004882813
887.047818335298	2778.60009765625
887.758560866315	2754.80004882813
888.469214171937	2766.80004882813
889.179778260005	2771
889.890253138347	2759.39990234375
890.600638814803	2766.60009765625
891.310935297204	2746.80004882813
892.021142593385	2748
892.731260711183	2775
893.441289658429	2786.80004882813
894.15122944295	2790.39990234375
894.861080072591	2795.19995117188
895.570841555173	2782.80004882813
896.280513898534	2785
896.990097110503	2809.80004882813
897.699591198913	2787.60009765625
898.408996171595	2794
899.118312036375	2819.80004882813
899.827538801089	2815.19995117188
900.536676473561	2811.19995117188
901.245725061628	2788.80004882813
901.954684573109	2838.19995117188
902.663555015838	2832
903.372336397644	2843
904.081028726351	2844.60009765625
904.789632009793	2834.80004882813
905.49814625579	2841.19995117188
906.20657147217	2857.80004882813
906.914907666765	2817
907.623154847391	2840.80004882813
908.331313021885	2814.80004882813
909.039382198064	2820.39990234375
909.747362383754	2824.80004882813
910.455253586782	2845.39990234375
911.163055814972	2813.80004882813
911.870769076143	2831.39990234375
912.578393378126	2807.60009765625
913.285928728738	2809.39990234375
913.993375135802	2815.60009765625
914.700732607145	2810.60009765625
915.408001150579	2822
916.115180773937	2842.39990234375
916.822271485037	2832
917.529273291693	2836.39990234375
918.236186201733	2817.39990234375
918.943010222971	2795
919.649745363234	2805.60009765625
920.356391630333	2801.19995117188
921.062949032096	2801.39990234375
921.769417576333	2791
922.475797270864	2788.19995117188
923.182088123512	2807.19995117188
923.888290142089	2820.39990234375
924.594403334414	2819.80004882813
925.300427708304	2831.19995117188
926.006363271572	2826
926.712210032039	2834.39990234375
927.417967997522	2822
928.123637175827	2820.19995117188
928.829217574776	2841.60009765625
929.534709202184	2842.60009765625
930.240112065859	2839
930.945426173621	2826.60009765625
931.650651533283	2803.39990234375
932.355788152653	2792.60009765625
933.060836039547	2809.60009765625
933.765795201776	2809
934.470665647153	2771.39990234375
935.175447383492	2777.39990234375
935.880140418599	2797
936.584744760286	2800.60009765625
937.289260416366	2816.60009765625
937.993687394647	2842
938.698025702939	2829.19995117188
939.402275349051	2873.19995117188
940.106436340793	2872
940.810508685976	2865
941.5144923924	2856.19995117188
942.21838746788	2844.80004882813
942.922193920223	2822.80004882813
943.625911757231	2828.80004882813
944.329540986716	2790.19995117188
945.033081616484	2770
945.736533654334	2737
946.439897108083	2774.39990234375
947.143171985529	2769.39990234375
947.846358294477	2757.80004882813
948.549456042732	2782.60009765625
949.2524652381	2798.39990234375
949.955385888382	2817.80004882813
950.658218001384	2805.19995117188
951.360961584907	2806
952.063616646755	2797.80004882813
952.766183194733	2804.39990234375
953.468661236636	2801.60009765625
954.171050780271	2796.60009765625
954.873351833437	2764.80004882813
955.575564403935	2741.60009765625
956.277688499565	2739.19995117188
956.97972412813	2726.19995117188
957.681671297424	2744.39990234375
958.383530015255	2724
959.085300289414	2721
959.786982127703	2742.39990234375
960.488575537918	2724
961.190080527859	2719.60009765625
961.891497105327	2720.19995117188
962.592825278111	2717.19995117188
963.294065054012	2721.60009765625
963.995216440829	2769.19995117188
964.696279446353	2734.60009765625
965.397254078383	2763.19995117188
966.098140344714	2756.19995117188
966.798938253139	2777.39990234375
967.499647811456	2776.19995117188
968.200269027458	2731.39990234375
968.900801908937	2721
969.601246463685	2712.19995117188
970.3016026995	2692.80004882813
971.001870624169	2699.39990234375
971.702050245491	2692.39990234375
972.402141571249	2697
973.102144609245	2702.80004882813
973.802059367267	2688.39990234375
974.501885853103	2713.80004882813
975.201624074541	2736.39990234375
975.901274039379	2767.60009765625
976.600835755399	2771
977.3003092304	2748.19995117188
977.999694472158	2770
978.698991488473	2759.19995117188
979.39820028713	2788.80004882813
980.097320875915	2762.80004882813
980.796353262618	2758.39990234375
981.495297455024	2750.60009765625
982.194153460919	2795
982.892921288093	2799
983.591600944331	2769
984.290192437419	2752.19995117188
984.98869577514	2759
985.687110965282	2754.60009765625
986.385438015629	2712.80004882813
987.083676933961	2724.19995117188
987.781827728069	2693
988.479890405732	2692.19995117188
989.177864974732	2689
989.875751442857	2703
990.573549817888	2723.39990234375
991.271260107602	2724.19995117188
991.968882319786	2708.19995117188
992.666416462217	2711
993.363862542681	2697
994.061220568959	2668.80004882813
994.758490548823	2641.80004882813
995.455672490061	2700.80004882813
996.152766400451	2698.19995117188
996.849772287773	2719.39990234375
997.5466901598	2738.19995117188
998.243520024317	2724.60009765625
998.940261889097	2711.60009765625
999.636915761923	2682.80004882813
1000.33348165057	2677.60009765625
1001.02995956281	2693.80004882813
1001.72634950643	2692
1002.42265148919	2696.80004882813
1003.11886551889	2708.60009765625
1003.81499160328	2713
1004.51102975015	2719.39990234375
1005.20697996727	2735
1005.90284226242	2730.60009765625
1006.59861664337	2739.60009765625
1007.2943031179	2750
1007.98990169377	2765.80004882813
1008.68541237876	2769.19995117188
1009.38083518064	2772.80004882813
1010.07617010719	2775.39990234375
1010.77141716617	2764
1011.46657636536	2759.60009765625
1012.16164771253	2733.80004882813
1012.85663121546	2714.39990234375
1013.5515268819	2690.60009765625
1014.24633471963	2706.19995117188
1014.94105473642	2715
1015.63568694004	2695.19995117188
1016.33023133826	2717.60009765625
1017.02468793885	2736.80004882813
1017.71905674957	2737.19995117188
1018.41333777819	2726.80004882813
1019.10753103249	2727.60009765625
1019.80163652022	2712.60009765625
1020.49565424916	2709.80004882813
1021.18958422707	2696.60009765625
1021.88342646171	2698.19995117188
1022.57718096085	2707.39990234375
1023.27084773227	2727.60009765625
1023.96442678371	2695.39990234375
1024.65791812296	2653
1025.35132175776	2639.60009765625
1026.04463769589	2626
1026.73786594511	2615
1027.43100651318	2635
1028.12405940786	2634.19995117188
1028.81702463692	2636.60009765625
1029.50990220812	2644
1030.20269212921	2651.39990234375
1030.89539440798	2659.60009765625
1031.58800905216	2646.60009765625
1032.28053606952	2594.60009765625
1032.97297546784	2594.60009765625
1033.66532725485	2612.39990234375
1034.35759143832	2625.39990234375
1035.04976802602	2654.39990234375
1035.7418570257	2629
1036.43385844511	2625.19995117188
1037.12577229202	2627.80004882813
1037.81759857419	2623
1038.50933729937	2645.39990234375
1039.20098847531	2665.60009765625
1039.89255210978	2682.39990234375
1040.58402821053	2699.80004882813
1041.27541678532	2654.39990234375
1041.96671784191	2655.80004882813
1042.65793138804	2646.80004882813
1043.34905743147	2641
1044.04009597996	2658.39990234375
1044.73104704125	2665.39990234375
1045.42191062312	2658
1046.1126867333	2655.60009765625
1046.80337537955	2664.60009765625
1047.49397656962	2657.19995117188
1048.18449031127	2658.39990234375
1048.87491661225	2653.60009765625
1049.5652554803	2640
1050.25550692319	2609
1050.94567094865	2600
1051.63574756444	2597.19995117188
1052.32573677832	2629
1053.01563859803	2612
1053.70545303131	2636.39990234375
1054.39518008592	2622.80004882813
1055.08481976961	2609.19995117188
1055.77437209013	2606.60009765625
1056.46383705522	2630.39990234375
1057.15321467262	2603.39990234375
1057.8425049501	2628.80004882813
1058.53170789539	2590
1059.22082351624	2576.80004882813
1059.9098518204	2561.39990234375
1060.59879281561	2575.39990234375
1061.28764650962	2578.60009765625
1061.97641291016	2585.80004882813
1062.665092025	2583.60009765625
1063.35368386187	2612.39990234375
1064.04218842851	2587.60009765625
1064.73060573268	2614.60009765625
1065.4189357821	2604.80004882813
1066.10717858452	2588.19995117188
1066.7953341477	2572.19995117188
1067.48340247936	2570.80004882813
1068.17138358725	2564.80004882813
1068.85927747912	2583.39990234375
1069.5470841627	2606.60009765625
1070.23480364573	2605.19995117188
1070.92243593595	2618.60009765625
1071.60998104111	2618.60009765625
1072.29743896894	2612
1072.98480972718	2609.39990234375
1073.67209332357	2609
1074.35928976585	2623.39990234375
1075.04639906176	2620
1075.73342121903	2637.19995117188
1076.42035624541	2635.19995117188
1077.10720414862	2653
1077.79396493641	2647.80004882813
1078.48063861651	2641.39990234375
1079.16722519666	2647.80004882813
1079.85372468459	2629.39990234375
1080.54013708804	2630.39990234375
1081.22646241474	2612.39990234375
1081.91270067243	2605
1082.59885186884	2605
1083.28491601171	2645
1083.97089310877	2634
1084.65678316774	2635
1085.34258619637	2663
1086.02830220239	2654.19995117188
1086.71393119352	2663.80004882813
1087.39947317751	2636
1088.08492816207	2638
1088.77029615495	2643
1089.45557716387	2651.60009765625
1090.14077119656	2673.80004882813
1090.82587826075	2644
1091.51089836417	2625
1092.19583151456	2643
1092.88067771963	2619.60009765625
1093.56543698712	2584.19995117188
1094.25010932475	2590.39990234375
1094.93469474026	2573.80004882813
1095.61919324137	2566.80004882813
1096.3036048358	2593.39990234375
1096.98792953129	2584.60009765625
1097.67216733555	2571.80004882813
1098.35631825632	2610.39990234375
1099.04038230132	2612.60009765625
1099.72435947828	2601.80004882813
1100.40824979492	2589.19995117188
1101.09205325895	2584
1101.77576987812	2561.19995117188
1102.45939966014	2523.19995117188
1103.14294261273	2519.39990234375
1103.82639874362	2501.19995117188
1104.50976806054	2529.60009765625
1105.19305057119	2534.39990234375
1105.87624628331	2553.60009765625
1106.55935520461	2565.80004882813
1107.24237734283	2627.39990234375
1107.92531270566	2635.19995117188
1108.60816130085	2631.19995117188
1109.2909231361	2641.80004882813
1109.97359821914	2645.60009765625
1110.65618655768	2685
1111.33868815946	2676.39990234375
1112.02110303217	2668.80004882813
1112.70343118355	2655.19995117188
1113.3856726213	2654.80004882813
1114.06782735316	2642
1114.74989538683	2633.80004882813
1115.43187673002	2619.39990234375
1116.11377139047	2572.60009765625
1116.79557937588	2597
1117.47730069397	2611
1118.15893535245	2632.39990234375
1118.84048335904	2638.19995117188
1119.52194472146	2635.39990234375
1120.20331944741	2608.80004882813
1120.88460754462	2596.19995117188
1121.56580902079	2607.19995117188
1122.24692388364	2626.39990234375
1122.92795214088	2629.60009765625
1123.60889380022	2667.80004882813
1124.28974886938	2686
1124.97051735606	2725.19995117188
1125.65119926799	2731.80004882813
1126.33179461286	2713
1127.0123033984	2705.60009765625
1127.6927256323	2689.39990234375
1128.37306132229	2685.19995117188
1129.05331047606	2676.19995117188
1129.73347310134	2669.19995117188
1130.41354920582	2633.60009765625
1131.09353879722	2628.60009765625
1131.77344188324	2628.19995117188
1132.45325847159	2614.80004882813
1133.13298856999	2617.60009765625
1133.81263218612	2624.60009765625
1134.49218932772	2635.80004882813
1135.17166000247	2619.39990234375
1135.85104421809	2640.19995117188
1136.53034198227	2611.19995117188
1137.20955330274	2587
1137.88867818718	2578.39990234375
1138.56771664331	2584
1139.24666867883	2598.60009765625
1139.92553430144	2593.39990234375
1140.60431351885	2607.60009765625
1141.28300633876	2596.39990234375
1141.96161276887	2608.80004882813
1142.64013281689	2620.60009765625
1143.31856649051	2582
1143.99691379744	2573.80004882813
1144.67517474538	2580.39990234375
1145.35334934203	2566.60009765625
1146.03143759509	2536.39990234375
1146.70943951226	2532.80004882813
1147.38735510125	2500.60009765625
1148.06518436974	2538
1148.74292732545	2526.39990234375
1149.42058397606	2521
1150.09815432928	2520.19995117188
1150.7756383928	2538
1151.45303617432	2547
1152.13034768155	2578.80004882813
1152.80757292217	2602.80004882813
1153.48471190389	2648
1154.16176463439	2593
1154.83873112138	2587.80004882813
1155.51561137255	2594.80004882813
1156.1924053956	2572.80004882813
1156.86911319822	2590
1157.5457347881	2598
1158.22227017294	2575.39990234375
1158.89871936044	2575.39990234375
1159.57508235828	2563
1160.25135917416	2563
1160.92754981578	2560.19995117188
1161.60365429081	2567.19995117188
1162.27967260697	2569.39990234375
1162.95560477193	2549.19995117188
1163.63145079339	2539.39990234375
1164.30721067904	2538
1164.98288443657	2534
1165.65847207367	2569
1166.33397359803	2535
1167.00938901735	2560.19995117188
1167.6847183393	2587.80004882813
1168.35996157157	2612.60009765625
1169.03511872187	2588.60009765625
1169.71018979787	2584.39990234375
1170.38517480726	2604
1171.06007375773	2581.80004882813
1171.73488665696	2548.60009765625
1172.40961351265	2521
1173.08425433247	2508.60009765625
1173.75880912412	2512.39990234375
1174.43327789528	2553.39990234375
1175.10766065364	2562.19995117188
1175.78195740687	2584.80004882813
1176.45616816267	2579.39990234375
1177.13029292871	2570.19995117188
1177.80433171269	2576
1178.47828452229	2599.39990234375
1179.15215136518	2590
1179.82593224905	2590.60009765625
1180.49962718159	2634.60009765625
1181.17323617047	2608.19995117188
1181.84675922337	2652.19995117188
1182.52019634799	2660.60009765625
1183.193547552	2671.60009765625
1183.86681284307	2657.39990234375
1184.53999222889	2632.19995117188
1185.21308571714	2619
1185.8860933155	2630.80004882813
1186.55901503165	2616
1187.23185087326	2622.60009765625
1187.90460084802	2612.60009765625
1188.5772649636	2623.80004882813
1189.24984322768	2633.19995117188
1189.92233564794	2630.39990234375
1190.59474223206	2634.80004882813
1191.2670629877	2639.39990234375
1191.93929792255	2667.80004882813
1192.61144704428	2634.39990234375
1193.28351036058	2668
1193.9554878791	2630.39990234375
1194.62737960754	2628
1195.29918555356	2615.60009765625
1195.97090572483	2627.80004882813
1196.64254012903	2625.39990234375
1197.31408877384	2635.19995117188
1197.98555166693	2636.80004882813
1198.65692881596	2598.39990234375
1199.32822022862	2628.80004882813
1199.99942591256	2593.39990234375
1200.67054587548	2590.60009765625
1201.34158012503	2564.60009765625
1202.01252866889	2556.80004882813
1202.68339151473	2532.39990234375
1203.35416867021	2541.39990234375
1204.02486014301	2526.80004882813
1204.6954659408	2554.19995117188
1205.36598607124	2570.80004882813
1206.03642054201	2575.80004882813
1206.70676936078	2561.19995117188
1207.3770325352	2559
1208.04721007295	2525.19995117188
1208.7173019817	2528.19995117188
1209.38730826911	2522.60009765625
1210.05722894285	2509
1210.72706401059	2489.80004882813
1211.39681347999	2495.60009765625
1212.06647735872	2476.60009765625
1212.73605565444	2486.19995117188
1213.40554837481	2482.19995117188
1214.07495552751	2504
1214.74427712019	2506.60009765625
1215.41351316052	2511.80004882813
1216.08266365617	2542.39990234375
1216.75172861479	2525.19995117188
1217.42070804405	2485.60009765625
1218.0896019516	2481.39990234375
1218.75841034513	2487.60009765625
1219.42713323227	2502.19995117188
1220.0957706207	2527.80004882813
1220.76432251808	2541.80004882813
1221.43278893207	2531.19995117188
1222.10116987032	2541.80004882813
1222.7694653405	2557.19995117188
1223.43767535026	2553.60009765625
1224.10579990727	2553.60009765625
1224.77383901918	2542.60009765625
1225.44179269366	2547.60009765625
1226.10966093835	2532
1226.77744376093	2534.19995117188
1227.44514116904	2535.19995117188
1228.11275317034	2522
1228.78027977249	2528.60009765625
1229.44772098315	2521.80004882813
1230.11507680996	2517.80004882813
1230.7823472606	2471.19995117188
1231.44953234271	2487.19995117188
1232.11663206394	2475.60009765625
1232.78364643195	2482.80004882813
1233.4505754544	2474.19995117188
1234.11741913894	2461.60009765625
1234.78417749322	2468
1235.45085052489	2481.60009765625
1236.11743824162	2484.39990234375
1236.78394065104	2466.19995117188
1237.45035776082	2465
1238.1166895786	2481
1238.78293611204	2469.19995117188
1239.44909736878	2490
1240.11517335648	2465.60009765625
1240.78116408279	2473.19995117188
1241.44706955535	2492.60009765625
1242.11288978182	2471.60009765625
1242.77862476985	2461
1243.44427452708	2442.60009765625
1244.10983906116	2437.19995117188
1244.77531837974	2433
1245.44071249047	2437.60009765625
1246.106021401	2465
1246.77124511898	2436.80004882813
1247.43638365204	2463.60009765625
1248.10143700783	2493.60009765625
1248.76640519401	2471.39990234375
1249.43128821822	2461.80004882813
1250.0960860881	2456.19995117188
1250.76079881129	2446.80004882813
1251.42542639545	2441.39990234375
1252.08996884822	2445.60009765625
1252.75442617723	2436.39990234375
1253.41879839014	2437.19995117188
1254.08308549458	2481.39990234375
1254.74728749821	2470.19995117188
1255.41140440866	2467.19995117188
1256.07543623357	2457.60009765625
1256.73938298059	2427
1257.40324465735	2428.39990234375
1258.0670212715	2415
1258.73071283068	2409
1259.39431934253	2432
1260.05784081468	2433.39990234375
1260.72127725479	2422.80004882813
1261.38462867049	2425.80004882813
1262.0478950694	2405.19995117188
1262.71107645919	2416.19995117188
1263.37417284748	2408.60009765625
1264.03718424191	2449
1264.70011065011	2428.80004882813
1265.36295207974	2438.60009765625
1266.02570853841	2450.80004882813
1266.68838003378	2413.80004882813
1267.35096657346	2411.80004882813
1268.01346816511	2411.80004882813
1268.67588481636	2405.80004882813
1269.33821653483	2400
1270.00046332817	2422.19995117188
1270.66262520401	2425.80004882813
1271.32470216998	2440.39990234375
1271.98669423372	2449.80004882813
1272.64860140285	2407.80004882813
1273.31042368503	2413.80004882813
1273.97216108786	2426.39990234375
1274.633813619	2429.39990234375
1275.29538128606	2433.19995117188
1275.95686409669	2446.60009765625
1276.6182620585	2445.39990234375
1277.27957517914	2426
1277.94080346624	2425.60009765625
1278.60194692741	2421.39990234375
1279.2630055703	2436.80004882813
1279.92397940253	2454
1280.58486843173	2440.60009765625
1281.24567266552	2429
1281.90639211155	2419.39990234375
1282.56702677743	2391.80004882813
1283.2275766708	2407.39990234375
1283.88804179927	2403.80004882813
1284.54842217049	2386
1285.20871779206	2389.19995117188
1285.86892867163	2413
1286.52905481681	2408.39990234375
1287.18909623523	2440
1287.84905293452	2436.39990234375
1288.5089249223	2441
1289.16871220619	2441.39990234375
1289.82841479383	2448.80004882813
1290.48803269282	2458.39990234375
1291.1475659108	2439.19995117188
1291.80701445539	2411.19995117188
1292.46637833421	2386.60009765625
1293.12565755489	2349
1293.78485212504	2346
1294.44396205229	2357.19995117188
1295.10298734425	2363.39990234375
1295.76192800856	2351.39990234375
1296.42078405283	2340
1297.07955548467	2353.19995117188
1297.73824231171	2361.60009765625
1298.39684454158	2378
1299.05536218188	2378
1299.71379524023	2395.19995117188
1300.37214372427	2385.19995117188
1301.03040764159	2379.60009765625
1301.68858699983	2371.80004882813
1302.34668180659	2384.39990234375
1303.0046920695	2385.39990234375
1303.66261779617	2424.39990234375
1304.32045899422	2435.19995117188
1304.97821567126	2432.19995117188
1305.63588783492	2425.80004882813
1306.29347549279	2413
1306.95097865251	2422.80004882813
1307.60839732168	2447.39990234375
1308.26573150791	2465.19995117188
1308.92298121883	2469.19995117188
1309.58014646204	2447.19995117188
1310.23722724517	2439.19995117188
1310.89422357581	2457.60009765625
1311.55113546158	2478.39990234375
1312.2079629101	2474
1312.86470592898	2493.60009765625
1313.52136452582	2503.39990234375
1314.17793870824	2501.80004882813
1314.83442848386	2520.19995117188
1315.49083386027	2490
1316.14715484509	2488.80004882813
1316.80339144594	2499.80004882813
1317.45954367041	2513
1318.11561152611	2503.80004882813
1318.77159502067	2476.19995117188
1319.42749416168	2482
1320.08330895674	2493
1320.73903941348	2464.80004882813
1321.3946855395	2426.39990234375
1322.0502473424	2423.60009765625
1322.70572482978	2426.39990234375
1323.36111800926	2459.80004882813
1324.01642688845	2438.39990234375
1324.67165147494	2447
1325.32679177634	2462.80004882813
1325.98184780025	2439.39990234375
1326.63681955429	2455.39990234375
1327.29170704605	2418.39990234375
1327.94651028314	2404
1328.60122927316	2400.60009765625
1329.25586402371	2411
1329.9104145424	2392.80004882813
1330.56488083683	2362.19995117188
1331.2192629146	2337.19995117188
1331.87356078331	2378.19995117188
1332.52777445056	2386.60009765625
1333.18190392395	2382.60009765625
1333.83594921109	2380.39990234375
1334.48991031958	2369.39990234375
1335.143787257	2356.19995117188
1335.79758003097	2362.80004882813
1336.45128864908	2369.60009765625
1337.10491311893	2366.19995117188
1337.75845344813	2371.80004882813
1338.41190964425	2378
1339.06528171491	2339
1339.71856966771	2356
1340.37177351023	2331.19995117188
1341.02489325007	2325.60009765625
1341.67792889484	2300
1342.33088045212	2275.19995117188
1342.98374792952	2292
1343.63653133462	2291.39990234375
1344.28923067503	2311.19995117188
1344.94184595833	2300.60009765625
1345.59437719212	2329.60009765625
1346.246824384	2351.60009765625
1346.89918754155	2371
1347.55146667238	2378.19995117188
1348.20366178407	2382
1348.85577288421	2377.80004882813
1349.50779998041	2378.80004882813
1350.15974308024	2384.39990234375
1350.8116021913	2380.19995117188
1351.46337732119	2388.60009765625
1352.11506847748	2401.19995117188
1352.76667566778	2415.19995117188
1353.41819889967	2422.80004882813
1354.06963818074	2412.19995117188
1354.72099351858	2448
1355.37226492079	2445.80004882813
1356.02345239494	2458.60009765625
1356.67455594862	2508.80004882813
1357.32557558943	2529.19995117188
1357.97651132496	2537.39990234375
1358.62736316277	2576.39990234375
1359.27813111048	2565.19995117188
1359.92881517565	2615.19995117188
1360.57941536589	2625.39990234375
1361.22993168876	2627
1361.88036415186	2643.80004882813
1362.53071276278	2668.39990234375
1363.1809775291	2676.19995117188
1363.8311584584	2680.80004882813
1364.48125555826	2669.80004882813
1365.13126883627	2649
1365.78119830001	2593.60009765625
1366.43104395707	2562.80004882813
1367.08080581503	2525
1367.73048388147	2497.60009765625
1368.38007816397	2479
1369.02958867011	2476.80004882813
1369.67901540748	2438
1370.32835838365	2451.60009765625
1370.9776176062	2437.80004882813
1371.62679308273	2441
1372.27588482079	2443.19995117188
1372.92489282798	2448.19995117188
1373.57381711188	2437.19995117188
1374.22265768006	2427.80004882813
1374.87141454009	2413.60009765625
1375.52008769957	2390
1376.16867716606	2397.19995117188
1376.81718294715	2378.80004882813
1377.4656050504	2352.80004882813
1378.1139434834	2378.39990234375
1378.76219825373	2364.60009765625
1379.41036936895	2367
1380.05845683664	2349.39990234375
1380.70646066439	2361
1381.35438085976	2378.80004882813
1382.00221743032	2342.19995117188
1382.64997038366	2355.80004882813
1383.29763972735	2374.19995117188
1383.94522546895	2350
1384.59272761605	2343.39990234375
1385.24014617621	2349.60009765625
1385.88748115701	2348
1386.53473256602	2339.80004882813
1387.18190041081	2322.39990234375
1387.82898469895	2347.80004882813
1388.47598543802	2341.19995117188
1389.12290263558	2333.39990234375
1389.7697362992	2302.60009765625
1390.41648643646	2286.39990234375
1391.06315305492	2287.39990234375
1391.70973616215	2255.60009765625
1392.35623576573	2243
1393.00265187321	2250
1393.64898449217	2257.80004882813
1394.29523363018	2269.39990234375
1394.94139929481	2273.19995117188
1395.58748149361	2236.19995117188
1396.23348023415	2237.80004882813
1396.87939552402	2231
1397.52522737076	2190.39990234375
1398.17097578195	2178.60009765625
1398.81664076514	2165.39990234375
1399.46222232792	2157.39990234375
1400.10772047783	2124
1400.75313522245	2145.60009765625
1401.39846656934	2189.19995117188
1402.04371452605	2217.19995117188
1402.68887910016	2232.19995117188
1403.33396029924	2229
1403.97895813083	2248.80004882813
1404.6238726025	2255.19995117188
1405.26870372182	2252.19995117188
1405.91345149634	2259.80004882813
1406.55811593363	2236.19995117188
1407.20269704125	2223.19995117188
1407.84719482676	2218.39990234375
1408.49160929772	2202.80004882813
1409.13594046168	2210
1409.78018832622	2193.80004882813
1410.42435289887	2197
1411.06843418722	2218.80004882813
1411.7124321988	2222
1412.3563469412	2236.39990234375
1413.00017842194	2250.80004882813
1413.64392664861	2279.39990234375
1414.28759162875	2295
1414.93117336992	2281.19995117188
1415.57467187967	2265.19995117188
1416.21808716557	2262
1416.86141923516	2263.39990234375
1417.50466809601	2276.19995117188
1418.14783375567	2254.39990234375
1418.79091622169	2257.19995117188
1419.43391550162	2263.39990234375
1420.07683160303	2240.80004882813
1420.71966453346	2248.80004882813
1421.36241430046	2255.19995117188
1422.0050809116	2275
1422.64766437442	2274.60009765625
1423.29016469647	2277.60009765625
1423.93258188531	2290.60009765625
1424.57491594848	2275.80004882813
1425.21716689354	2282
1425.85933472805	2271.19995117188
1426.50141945954	2253.19995117188
1427.14342109557	2235.80004882813
1427.78533964369	2251.80004882813
1428.42717511144	2214.19995117188
1429.06892750639	2213.60009765625
1429.71059683607	2209
1430.35218310803	2194.60009765625
1430.99368632983	2212.19995117188
1431.635106509	2221.19995117188
1432.2764436531	2230.19995117188
1432.91769776967	2237.39990234375
1433.55886886627	2269.80004882813
1434.19995695043	2241.39990234375
1434.84096202969	2244.80004882813
1435.48188411162	2236.19995117188
1436.12272320375	2224.19995117188
1436.76347931363	2242.60009765625
1437.40415244879	2231
1438.0447426168	2238.80004882813
1438.68524982518	2234.60009765625
1439.32567408148	2218.39990234375
1439.96601539325	2200
1440.60627376803	2190.80004882813
1441.24644921336	2185
1441.88654173678	2177.19995117188
1442.52655134583	2189.80004882813
1443.16647804806	2177.19995117188
1443.806321851	2192
1444.4460827622	2199.60009765625
1445.0857607892	2209.19995117188
1445.72535593953	2196.60009765625
1446.36486822074	2182.60009765625
1447.00429764037	2186
1447.64364420595	2177.39990234375
1448.28290792502	2187.19995117188
1448.92208880512	2189.80004882813
1449.56118685379	2217
1450.20020207857	2217
1450.83913448699	2203.19995117188
1451.47798408659	2219.80004882813
1452.1167508849	2220.19995117188
1452.75543488947	2212.19995117188
1453.39403610782	2188.19995117188
1454.0325545475	2190.80004882813
1454.67099021603	2213.39990234375
1455.30934312097	2193
1455.94761326982	2223.39990234375
1456.58580067014	2216
1457.22390532945	2190.80004882813
1457.86192725529	2184.39990234375
1458.49986645519	2190
1459.13772293668	2209.19995117188
1459.7754967073	2201.80004882813
1460.41318777457	2182.80004882813
1461.05079614604	2175.80004882813
1461.68832182922	2177.39990234375
1462.32576483166	2148.80004882813
1462.96312516087	2153.60009765625
1463.6004028244	2168.39990234375
1464.23759782977	2170
1464.8747101845	2191
1465.51173989614	2184.39990234375
1466.14868697221	2183.39990234375
1466.78555142024	2155.60009765625
1467.42233324774	2165
1468.05903246227	2154
1468.69564907133	2159.19995117188
1469.33218308246	2143.39990234375
1469.96863450317	2159.80004882813
1470.60500334102	2180
1471.2412896035	2199.19995117188
1471.87749329816	2201.60009765625
1472.51361443251	2192.80004882813
1473.14965301409	2192.19995117188
1473.78560905041	2180
1474.421482549	2191.80004882813
1475.05727351739	2182.80004882813
1475.69298196309	2179.39990234375
1476.32860789364	2174.39990234375
1476.96415131654	2155
1477.59961223934	2131.19995117188
1478.23499066954	2115.19995117188
1478.87028661467	2130
1479.50550008226	2140.19995117188
1480.14063107981	2139.60009765625
1480.77567961486	2128
1481.41064569492	2105
1482.04552932752	2116
1482.68033052017	2124.39990234375
1483.31504928039	2128.19995117188
1483.9496856157	2148
1484.58423953363	2132.19995117188
1485.21871104168	2162.19995117188
1485.85310014738	2161.19995117188
1486.48740685824	2136.80004882813
1487.12163118178	2139.60009765625
1487.75577312553	2131
1488.38983269698	2132.19995117188
1489.02380990367	2122
1489.65770475311	2129.39990234375
1490.29151725281	2165.19995117188
1490.92524741029	2174.60009765625
1491.55889523306	2172.80004882813
1492.19246072863	2169.60009765625
1492.82594390453	2191.60009765625
1493.45934476826	2210.19995117188
1494.09266332734	2198.80004882813
1494.72589958928	2194
1495.3590535616	2216.60009765625
1495.99212525181	2213.19995117188
1496.62511466741	2202.39990234375
1497.25802181592	2212
1497.89084670485	2220.39990234375
1498.52358934172	2217.19995117188
1499.15624973403	2248.39990234375
1499.7888278893	2245.39990234375
1500.42132381503	2272.60009765625
1501.05373751873	2298.39990234375
1501.68606900792	2308.60009765625
1502.31831829009	2340.80004882813
1502.95048537277	2340
1503.58257026346	2331.60009765625
1504.21457296966	2367
1504.84649349889	2397.39990234375
1505.47833185864	2406.19995117188
1506.11008805644	2386.19995117188
1506.74176209978	2380.39990234375
1507.37335399617	2366
1508.00486375312	2368
1508.63629137813	2372.19995117188
1509.2676368787	2345.19995117188
1509.89890026235	2379.39990234375
1510.53008153658	2374.19995117188
1511.16118070889	2388.80004882813
1511.79219778677	2357.19995117188
1512.42313277775	2351
1513.05398568932	2360
1513.68475652898	2362.60009765625
1514.31544530424	2352
1514.9460520226	2304.60009765625
1515.57657669155	2281
1516.20701931861	2235.39990234375
1516.83737991127	2243.39990234375
1517.46765847702	2217
1518.09785502339	2244
1518.72796955785	2233.39990234375
1519.35800208792	2210.19995117188
1519.98795262109	2233.60009765625
1520.61782116486	2221.80004882813
1521.24760772673	2209.60009765625
1521.87731231419	2202.39990234375
1522.50693493475	2212.80004882813
1523.1364755959	2212
1523.76593430514	2199.19995117188
1524.39531106997	2165
1525.02460589788	2156.80004882813
1525.65381879637	2178
1526.28294977293	2167.60009765625
1526.91199883507	2122.19995117188
1527.54096599027	2108
1528.16985124603	2096.60009765625
1528.79865460984	2109.80004882813
1529.4273760892	2115.19995117188
1530.05601569161	2131.39990234375
1530.68457342455	2129.60009765625
1531.31304929552	2138.80004882813
1531.94144331201	2153
1532.56975548151	2155
1533.19798581152	2174.60009765625
1533.82613430953	2204
1534.45420098302	2190
1535.08218583949	2183.80004882813
1535.71008888643	2176.39990234375
1536.33791013134	2139.60009765625
1536.96564958169	2159.60009765625
1537.59330724498	2141.60009765625
1538.22088312871	2134
1538.84837724034	2122.60009765625
1539.47578958739	2114.19995117188
1540.10312017733	2107.19995117188
1540.73036901765	2113.19995117188
1541.35753611584	2091.39990234375
1541.98462147939	2083.80004882813
1542.61162511578	2094.39990234375
1543.2385470325	2110.60009765625
1543.86538723704	2129.19995117188
1544.49214573688	2137.60009765625
1545.11882253951	2124.19995117188
1545.74541765241	2147
1546.37193108306	2136.19995117188
1546.99836283896	2140
1547.62471292758	2120.60009765625
1548.25098135641	2110.39990234375
1548.87716813294	2101.80004882813
1549.50327326464	2117.80004882813
1550.12929675899	2117.80004882813
1550.75523862349	2100.60009765625
1551.38109886561	2093.39990234375
1552.00687749284	2113.60009765625
1552.63257451264	2112.60009765625
1553.25818993252	2085.60009765625
1553.88372375994	2091.80004882813
1554.50917600239	2074.19995117188
1555.13454666734	2064.80004882813
1555.75983576228	2063.80004882813
1556.38504329469	2064.19995117188
1557.01016927204	2068
1557.63521370181	2055.19995117188
1558.26017659149	2070.80004882813
1558.88505794854	2074.39990234375
1559.50985778045	2080.19995117188
1560.13457609469	2077.19995117188
1560.75921289874	2098.80004882813
1561.38376820008	2083.39990234375
1562.00824200618	2078.80004882813
1562.63263432452	2060.80004882813
1563.25694516257	2093.39990234375
1563.88117452781	2085.19995117188
1564.50532242772	2081.60009765625
1565.12938886976	2071.39990234375
1565.75337386141	2092.60009765625
1566.37727741015	2105.60009765625
1567.00109952345	2111.19995117188
1567.62484020878	2126.80004882813
1568.24849947361	2139.80004882813
1568.87207732542	2141.19995117188
1569.49557377168	2162.80004882813
1570.11898881986	2156.60009765625
1570.74232247743	2162
1571.36557475186	2159.60009765625
1571.98874565062	2158.60009765625
1572.61183518119	2187
1573.23484335103	2201.39990234375
1573.85777016761	2234.60009765625
1574.4806156384	2235.19995117188
1575.10337977088	2219
1575.7260625725	2199.80004882813
1576.34866405074	2205.39990234375
1576.97118421306	2171
1577.59362306694	2186
1578.21598061984	2181.19995117188
1578.83825687922	2178.19995117188
1579.46045185255	2171.60009765625
1580.08256554731	2174.19995117188
1580.70459797094	2139.60009765625
1581.32654913093	2123.60009765625
1581.94841903473	2111
1582.57020768981	2069.39990234375
1583.19191510364	2062.80004882813
1583.81354128367	2063.80004882813
1584.43508623737	2053.19995117188
1585.05654997221	2033.59997558594
1585.67793249564	2046.19995117188
1586.29923381514	2044.80004882813
1586.92045393815	2023.19995117188
1587.54159287216	2016
1588.1626506246	2031.40002441406
1588.78362720296	2014.80004882813
1589.40452261468	2009.19995117188
1590.02533686724	2002.40002441406
1590.64606996808	1984.80004882813
1591.26672192467	1997.59997558594
1591.88729274447	1978
1592.50778243493	1983.80004882813
1593.12819100352	1982
1593.7485184577	1981
1594.36876480492	1979.59997558594
1594.98893005264	1985.59997558594
1595.60901420832	1979
1596.22901727941	1992
1596.84893927338	1991.19995117188
1597.46878019767	2006.80004882813
1598.08854005975	2009.40002441406
1598.70821886707	2002.40002441406
1599.32781662708	2026.19995117188
1599.94733334725	2013.19995117188
1600.56676903502	2017
1601.18612369785	2003.40002441406
1601.8053973432	1998.40002441406
1602.42458997851	1989.19995117188
1603.04370161124	1968.40002441406
1603.66273224884	1963.40002441406
1604.28168189878	1955.59997558594
1604.90055056849	1947.19995117188
1605.51933826543	1947.59997558594
1606.13804499705	1949
1606.75667077081	1955.59997558594
1607.37521559415	1967.40002441406
1607.99367947452	1973.80004882813
1608.61206241938	1982.59997558594
1609.23036443618	1966.19995117188
1609.84858553236	1962
1610.46672571537	1959.19995117188
1611.08478499267	1973.19995117188
1611.7027633717	1981.80004882813
1612.3206608599	1977.19995117188
1612.93847746473	1960.40002441406
1613.55621319364	1956
1614.17386805407	1946.40002441406
1614.79144205347	1935.80004882813
1615.40893519928	1933.19995117188
1616.02634749895	1934.80004882813
1616.64367895993	1902.80004882813
1617.26092958966	1901.59997558594
1617.87809939559	1889.80004882813
1618.49518838516	1901.19995117188
1619.11219656582	1898
1619.729123945	1898.59997558594
1620.34597053016	1910.40002441406
1620.96273632874	1915
1621.57942134818	1897.59997558594
1622.19602559592	1904.19995117188
1622.8125490794	1903.59997558594
1623.42899180607	1909.59997558594
1624.04535378337	1917.19995117188
1624.66163501874	1933.80004882813
1625.27783551963	1925.40002441406
1625.89395529346	1914.59997558594
1626.50999434768	1901.40002441406
1627.12595268974	1900.40002441406
1627.74183032707	1883
1628.3576272671	1884.59997558594
1628.97334351729	1856
1629.58897908506	1856.80004882813
1630.20453397786	1873.80004882813
1630.82000820313	1851
1631.43540176829	1865.59997558594
1632.05071468079	1878.19995117188
1632.66594694807	1864.19995117188
1633.28109857756	1875
1633.8961695767	1878.19995117188
1634.51115995292	1889.19995117188
1635.12606971366	1869.80004882813
1635.74089886636	1864.59997558594
1636.35564741844	1872.40002441406
1636.97031537734	1896.19995117188
1637.58490275051	1894.80004882813
1638.19940954536	1890.59997558594
1638.81383576934	1918.19995117188
1639.42818142987	1923.59997558594
1640.0424465344	1937.80004882813
1640.65663109034	1940.59997558594
1641.27073510515	1933.19995117188
1641.88475858623	1937.80004882813
1642.49870154104	1931.59997558594
1643.11256397699	1930
1643.72634590152	1936.80004882813
1644.34004732206	1958.59997558594
1644.95366824604	1968.40002441406
1645.56720868089	1978.59997558594
1646.18066863404	1985.80004882813
1646.79404811291	1992.59997558594
1647.40734712494	1976.59997558594
1648.02056567755	1974.80004882813
1648.63370377817	1993.19995117188
1649.24676143423	2000
1649.85973865316	2009.80004882813
1650.47263544238	2000.59997558594
1651.08545180932	2015
1651.6981877614	2019
1652.31084330606	2006.19995117188
1652.92341845071	1974.19995117188
1653.53591320278	1971
1654.1483275697	1960.40002441406
1654.7606615589	1956.40002441406
1655.37291517778	1931
1655.98508843379	1931.40002441406
1656.59718133434	1919.19995117188
1657.20919388685	1913.59997558594
1657.82112609875	1918.19995117188
1658.43297797747	1909
1659.04474953041	1890.80004882813
1659.65644076501	1906.40002441406
1660.26805168869	1871.40002441406
1660.87958230886	1871.19995117188
1661.49103263294	1847.40002441406
1662.10240266837	1847.80004882813
1662.71369242255	1835.19995117188
1663.32490190291	1849.19995117188
1663.93603111687	1828.59997558594
1664.54708007184	1828.59997558594
1665.15804877524	1828.19995117188
1665.7689372345	1811.40002441406
1666.37974545703	1826
1666.99047345024	1819.19995117188
1667.60112122156	1820.80004882813
1668.2116887784	1791.40002441406
1668.82217612818	1776.40002441406
1669.43258327831	1768.19995117188
1670.04291023622	1741.40002441406
1670.65315700931	1733.80004882813
1671.263323605	1732.19995117188
1671.8734100307	1735.40002441406
1672.48341629384	1720.19995117188
1673.09334240182	1725.40002441406
1673.70318836206	1714.59997558594
1674.31295418197	1711
1674.92263986896	1697.59997558594
1675.53224543046	1712
1676.14177087386	1688.59997558594
1676.75121620658	1715.19995117188
1677.36058143604	1713.59997558594
1677.96986656964	1714.80004882813
1678.5790716148	1713.40002441406
1679.18819657892	1720
1679.79724146943	1743.80004882813
1680.40620629372	1739.19995117188
1681.0150910592	1749.40002441406
1681.6238957733	1735.19995117188
1682.23262044341	1730.80004882813
1682.84126507694	1745
1683.4498296813	1730.19995117188
1684.0583142639	1751.80004882813
1684.66671883216	1763.19995117188
1685.27504339346	1745.19995117188
1685.88328795523	1726.40002441406
1686.49145252487	1723.59997558594
1687.09953710978	1712.80004882813
1687.70754171737	1702.80004882813
1688.31546635505	1711
1688.92331103021	1727.80004882813
1689.53107575028	1732.40002441406
1690.13876052265	1740.40002441406
1690.74636535472	1719.80004882813
1691.3538902539	1728.80004882813
1691.96133522759	1717
1692.5687002832	1703.80004882813
1693.17598542812	1688.80004882813
1693.78319066977	1693
1694.39031601554	1689.80004882813
1694.99736147283	1695
1695.60432704905	1711.19995117188
1696.2112127516	1726.19995117188
1696.81801858788	1722
1697.42474456528	1731
1698.03139069121	1725.59997558594
1698.63795697307	1733.40002441406
1699.24444341826	1715.59997558594
1699.85085003417	1723.80004882813
1700.45717682821	1732
1701.06342380778	1711.80004882813
1701.66959098026	1706
1702.27567835307	1706
1702.88168593359	1693
1703.48761372922	1672.19995117188
1704.09346174737	1662.80004882813
1704.69922999542	1668.19995117188
1705.30491848077	1674.80004882813
1705.91052721083	1683.19995117188
1706.51605619297	1670.40002441406
1707.12150543461	1688.40002441406
1707.72687494312	1674
1708.33216472592	1659.80004882813
1708.93737479039	1663.59997558594
1709.54250514392	1652
