634.977642221345	2394.80004882813
635.719821695905	2407.19995117188
636.461909203392	2432.39990234375
637.203904751776	2440.39990234375
637.945808349023	2446.60009765625
638.687620003102	2455.39990234375
639.42933972198	2488.39990234375
640.170967513616	2510.60009765625
640.912503385981	2495.80004882813
641.653947347041	2479.19995117188
642.395299404758	2438
643.13655956709	2419.19995117188
643.877727842014	2400.19995117188
644.61880423748	2373.39990234375
645.359788761455	2379.60009765625
646.100681421905	2414.60009765625
646.841482226789	2419.19995117188
647.582191184074	2423.39990234375
648.322808301711	2413.80004882813
649.06333358767	2405.39990234375
649.803767049909	2424.19995117188
650.544108696385	2459.80004882813
651.28435853506	2478.39990234375
652.024516573894	2487
652.764582820849	2475.39990234375
653.504557283875	2492.39990234375
654.244439970937	2496.80004882813
654.984230889991	2496.80004882813
655.723930048995	2505
656.463537455909	2538
657.203053118683	2547.19995117188
657.942477045275	2538.60009765625
658.681809243647	2524.39990234375
659.421049721747	2505.60009765625
660.160198487535	2511.19995117188
660.899255548962	2545.19995117188
661.638220913985	2539.19995117188
662.377094590559	2544.19995117188
663.115876586631	2552.39990234375
663.854566910165	2549.60009765625
664.593165569107	2557.39990234375
665.331672571406	2557.60009765625
666.07008792502	2535.60009765625
666.808411637902	2517.60009765625
667.546643717996	2505
668.284784173258	2499.60009765625
669.022833011641	2497.80004882813
669.760790241089	2526.19995117188
670.498655869554	2534.60009765625
671.236429904987	2512.39990234375
671.97411235534	2521.19995117188
672.711703228551	2553.39990234375
673.449202532577	2579.60009765625
674.186610275364	2581.80004882813
674.923926464857	2612.19995117188
675.661151109008	2625.19995117188
676.398284215759	2630.39990234375
677.135325793058	2618.39990234375
677.87227584885	2621.80004882813
678.609134391082	2684.80004882813
679.345901427696	2671.19995117188
680.082576966644	2660.19995117188
680.819161015861	2662.60009765625
681.555653583298	2665.39990234375
682.292054676895	2611.39990234375
683.028364304594	2605.19995117188
683.764582474344	2598.60009765625
684.500709194083	2581.39990234375
685.236744471752	2576.60009765625
685.972688315294	2579.19995117188
686.708540732652	2592.39990234375
687.444301731762	2588.80004882813
688.179971320572	2616.80004882813
688.915549507013	2564.60009765625
689.651036299034	2537.19995117188
690.386431704569	2544.19995117188
691.121735731559	2529.60009765625
691.85694838794	2502.39990234375
692.592069681652	2506.80004882813
693.327099620632	2520.39990234375
694.062038212821	2528.19995117188
694.796885466149	2564.19995117188
695.531641388561	2603
696.266305987987	2625
697.000879272367	2648.60009765625
697.735361249632	2682
698.469751927722	2685
699.204051314568	2673
699.938259418107	2651.39990234375
700.672376246272	2630.39990234375
701.406401806997	2613.39990234375
702.140336108212	2614
702.874179157855	2627.39990234375
703.607930963856	2610.19995117188
704.341591534147	2627.39990234375
705.07516087666	2604.19995117188
705.808638999324	2620.80004882813
706.542025910073	2618
707.275321616841	2629
708.008526127549	2611.39990234375
708.741639450132	2603.39990234375
709.474661592521	2607.60009765625
710.207592562641	2613.39990234375
710.940432368424	2627.19995117188
711.673181017796	2636
712.405838518687	2606.60009765625
713.138404879025	2626.19995117188
713.870880106731	2633.39990234375
714.603264209738	2652.39990234375
715.335557195971	2663.19995117188
716.067759073357	2684
716.799869849816	2662.39990234375
717.531889533281	2699.19995117188
718.263818131673	2683.19995117188
718.995655652917	2678.60009765625
719.727402104934	2671.39990234375
720.45905749565	2673.80004882813
721.19062183299	2658.60009765625
721.922095124877	2635.80004882813
722.653477379231	2631.39990234375
723.384768603973	2640.60009765625
724.11596880703	2619.39990234375
724.847077996319	2647
725.578096179762	2661.19995117188
726.309023365281	2679
727.039859560792	2684.80004882813
727.770604774222	2679.80004882813
728.501259013484	2693.80004882813
729.231822286501	2715.39990234375
729.962294601191	2708.60009765625
730.692675965469	2661.39990234375
731.42296638726	2617.19995117188
732.153165874472	2636
732.883274435032	2665.80004882813
733.613292076851	2697.19995117188
734.343218807843	2682.39990234375
735.07305463593	2683.19995117188
735.802799569028	2700
736.532453615048	2675.80004882813
737.262016781904	2673
737.991489077517	2673.60009765625
738.720870509794	2672.19995117188
739.450161086654	2676.80004882813
740.179360816009	2680.80004882813
740.908469705772	2702
741.637487763854	2722.19995117188
742.366414998168	2746.60009765625
743.095251416623	2740.19995117188
743.823997027137	2738.39990234375
744.552651837618	2717.80004882813
745.281215855978	2731.19995117188
746.009689090124	2717
746.738071547964	2690.80004882813
747.466363237419	2678.19995117188
748.194564166384	2687.80004882813
748.92267434278	2676.39990234375
749.650693774504	2683.80004882813
750.378622469476	2696.80004882813
751.106460435596	2713.39990234375
751.834207680771	2724.19995117188
752.561864212909	2736.19995117188
753.289430039919	2745.60009765625
754.016905169707	2725.19995117188
754.744289610175	2724.80004882813
755.471583369231	2740.19995117188
756.198786454782	2739.60009765625
756.925898874728	2718
757.652920636979	2711
758.379851749433	2713.60009765625
759.106692219996	2731
759.833442056572	2766.39990234375
760.560101267063	2788.19995117188
761.28666985937	2815.60009765625
762.0131478414	2808
762.739535221046	2814.60009765625
763.465832006219	2822
764.192038204812	2840.60009765625
764.918153824731	2817.19995117188
765.644178873872	2830.60009765625
766.370113360138	2880.80004882813
767.095957291425	2914.19995117188
767.821710675635	2963
768.547373520665	2978
769.272945834415	2985.39990234375
769.998427624781	3012
770.723818899658	3069.60009765625
771.449119666949	3070.80004882813
772.174329934546	3082.60009765625
772.899449710347	3123
773.624479002248	3141.60009765625
774.349417818145	3161.19995117188
775.074266165934	3162.19995117188
775.799024053505	3148.60009765625
776.523691488757	3106.60009765625
777.248268479582	3072.39990234375
777.972755033877	3006
778.69715115953	2972.80004882813
779.421456864441	2945.60009765625
780.145672156493	2895.60009765625
780.869797043587	2893.80004882813
781.593831533611	2906.60009765625
782.317775634457	2904.80004882813
783.041629354012	2878.60009765625
783.765392700174	2846.80004882813
784.489065680828	2799
785.212648303866	2782.60009765625
785.936140577177	2779
786.659542508652	2803.80004882813
787.382854106174	2805.60009765625
788.106075377639	2822
788.829206330928	2817.80004882813
789.552246973933	2859
790.275197314542	2860.39990234375
790.998057360638	2856.19995117188
791.720827120108	2808.19995117188
792.443506600841	2809.39990234375
793.166095810722	2773.19995117188
793.888594757635	2763.39990234375
794.611003449465	2778.80004882813
795.333321894098	2814
796.055550099417	2844.39990234375
796.777688073308	2852.80004882813
797.499735823654	2840.39990234375
798.221693358334	2841.60009765625
798.943560685235	2851
799.665337812239	2821.60009765625
800.387024747226	2851.39990234375
801.108621498075	2860.80004882813
801.830128072674	2890.39990234375
802.551544478902	2872.19995117188
803.272870724636	2858.19995117188
803.994106817761	2841.80004882813
804.715252766148	2847.19995117188
805.436308577687	2808.19995117188
806.157274260251	2792.80004882813
806.878149821721	2792.60009765625
807.598935269973	2808.19995117188
808.319630612886	2804
809.040235858336	2803.60009765625
809.760751014202	2819.80004882813
810.481176088361	2835.39990234375
811.201511088685	2813.60009765625
811.921756023059	2811.19995117188
812.641910899347	2772.80004882813
813.361975725432	2766
814.081950509188	2753.60009765625
814.801835258489	2766
815.521629981206	2790.80004882813
816.241334685218	2783
816.960949378392	2788.80004882813
817.680474068606	2802.19995117188
818.399908763731	2775.80004882813
819.11925347164	2785.80004882813
819.838508200202	2773.19995117188
820.55767295729	2775
821.276747750778	2762.60009765625
821.995732588531	2762.80004882813
822.714627478425	2785
823.433432428327	2821
824.152147446105	2803.39990234375
824.870772539632	2828.19995117188
825.589307716775	2846.80004882813
826.307752985404	2853.19995117188
827.026108353378	2861.60009765625
827.744373828579	2836.60009765625
828.462549418867	2835
829.180635132107	2853.80004882813
829.898630976168	2862.39990234375
830.616536958915	2875.80004882813
831.334353088218	2872.39990234375
832.052079371938	2879
832.769715817942	2870.80004882813
833.487262434092	2860.19995117188
834.204719228255	2838
834.922086208293	2839.39990234375
835.639363382073	2849.19995117188
836.356550757456	2854.80004882813
837.073648342304	2824.19995117188
837.790656144484	2850.80004882813
838.507574171847	2846
839.22440243227	2846.19995117188
839.941140933601	2835.39990234375
840.657789683706	2815
841.374348690448	2812
842.090817961686	2800.80004882813
842.807197505276	2819.80004882813
843.523487329083	2824.80004882813
844.23968744096	2799
844.955797848771	2783.80004882813
845.671818560374	2799.39990234375
846.387749583622	2794
847.103590926378	2794
847.819342596497	2772.80004882813
848.535004601833	2757.39990234375
849.25057695025	2750.60009765625
849.966059649598	2746.19995117188
850.681452707735	2742.19995117188
851.396756132513	2794.80004882813
852.111969931789	2815.19995117188
852.827094113419	2857.39990234375
853.542128685257	2850
854.257073655158	2874.39990234375
854.971929030969	2867.39990234375
855.686694820551	2846
856.40137103175	2822.39990234375
857.115957672423	2837.80004882813
857.830454750423	2858.80004882813
858.544862273597	2861.80004882813
859.259180249797	2850.80004882813
859.97340868688	2859.80004882813
860.687547592688	2878.39990234375
861.401596975075	2879
862.115556841891	2900.60009765625
862.829427200985	2924.39990234375
863.543208060205	2900.80004882813
864.256899427402	2853.39990234375
864.970501310423	2864
865.684013717114	2847.80004882813
866.397436655325	2836.39990234375
867.110770132901	2856.39990234375
867.824014157691	2807.80004882813
868.537168737542	2822.39990234375
869.250233880299	2829.19995117188
869.963209593803	2822
870.676095885902	2816.19995117188
871.388892764445	2823.19995117188
872.101600237276	2847
872.814218312233	2828.80004882813
873.526746997165	2835.39990234375
874.239186299914	2846
874.951536228323	2862.39990234375
875.663796790231	2853.39990234375
876.375967993487	2847.60009765625
877.088049845928	2853.60009765625
877.8000423554	2839.80004882813
878.511945529739	2824.39990234375
879.22375937679	2784.60009765625
879.935483904388	2787.39990234375
880.64711912038	2767.19995117188
881.358665032604	2771
882.070121648892	2765.39990234375
882.78148897709	2795.39990234375
883.492767025039	2818
884.203955800571	2827.80004882813
884.915055311525	2853.39990234375
885.626065565741	2841.39990234375
886.336986571053	2829
887.047818335298	2819.80004882813
887.758560866315	2801
888.469214171937	2813.80004882813
889.179778260005	2806.39990234375
889.890253138347	2778.80004882813
890.600638814803	2790.39990234375
891.310935297204	2792.80004882813
892.021142593385	2780.60009765625
892.731260711183	2817.39990234375
893.441289658429	2835.19995117188
894.15122944295	2846.39990234375
894.861080072591	2852.19995117188
895.570841555173	2819.60009765625
896.280513898534	2863.19995117188
896.990097110503	2847.39990234375
897.699591198913	2868.39990234375
898.408996171595	2867.60009765625
899.118312036375	2843.19995117188
899.827538801089	2871.19995117188
900.536676473561	2865.60009765625
901.245725061628	2873.60009765625
901.954684573109	2870.80004882813
902.663555015838	2902.39990234375
903.372336397644	2934
904.081028726351	2915.19995117188
904.789632009793	2939
905.49814625579	2924.19995117188
906.20657147217	2932.60009765625
906.914907666765	2938.19995117188
907.623154847391	2929.39990234375
908.331313021885	2902.39990234375
909.039382198064	2904.80004882813
909.747362383754	2906.60009765625
910.455253586782	2903.80004882813
911.163055814972	2903.19995117188
911.870769076143	2915.60009765625
912.578393378126	2901.60009765625
913.285928728738	2912.39990234375
913.993375135802	2920.39990234375
914.700732607145	2951.39990234375
915.408001150579	2930.19995117188
916.115180773937	2936
916.822271485037	2933.39990234375
917.529273291693	2934.19995117188
918.236186201733	2927.19995117188
918.943010222971	2886
919.649745363234	2901.60009765625
920.356391630333	2902.80004882813
921.062949032096	2900.60009765625
921.769417576333	2906.19995117188
922.475797270864	2917
923.182088123512	2936
923.888290142089	2950
924.594403334414	2938.39990234375
925.300427708304	2952.80004882813
926.006363271572	2966.60009765625
926.712210032039	2966.60009765625
927.417967997522	2963.60009765625
928.123637175827	2964.80004882813
928.829217574776	2955.60009765625
929.534709202184	2953.80004882813
930.240112065859	2963
930.945426173621	2927
931.650651533283	2932
932.355788152653	2942.39990234375
933.060836039547	2928.39990234375
933.765795201776	2917.60009765625
934.470665647153	2900
935.175447383492	2914
935.880140418599	2907.19995117188
936.584744760286	2904.80004882813
937.289260416366	2922.19995117188
937.993687394647	2941.80004882813
938.698025702939	2966
939.402275349051	3011.39990234375
940.106436340793	3016.60009765625
940.810508685976	3014.80004882813
941.5144923924	3008.60009765625
942.21838746788	3004.80004882813
942.922193920223	2968.39990234375
943.625911757231	2950.80004882813
944.329540986716	2911.60009765625
945.033081616484	2899.19995117188
945.736533654334	2885.80004882813
946.439897108083	2897.39990234375
947.143171985529	2894.19995117188
947.846358294477	2902.39990234375
948.549456042732	2922.80004882813
949.2524652381	2921.19995117188
949.955385888382	2940.80004882813
950.658218001384	2967.60009765625
951.360961584907	2937.60009765625
952.063616646755	2946.60009765625
952.766183194733	2940.39990234375
953.468661236636	2940
954.171050780271	2907.39990234375
954.873351833437	2908.80004882813
955.575564403935	2888.19995117188
956.277688499565	2880.39990234375
956.97972412813	2873.19995117188
957.681671297424	2859.39990234375
958.383530015255	2902.60009765625
959.085300289414	2886.80004882813
959.786982127703	2893.60009765625
960.488575537918	2906.80004882813
961.190080527859	2900
961.891497105327	2896.19995117188
962.592825278111	2931.39990234375
963.294065054012	2913.60009765625
963.995216440829	2916
964.696279446353	2929.19995117188
965.397254078383	2916.39990234375
966.098140344714	2944.39990234375
966.798938253139	2918
967.499647811456	2945.60009765625
968.200269027458	2906.39990234375
968.900801908937	2899.39990234375
969.601246463685	2885
970.3016026995	2875.39990234375
971.001870624169	2849
971.702050245491	2861.80004882813
972.402141571249	2848.19995117188
973.102144609245	2844
973.802059367267	2841.39990234375
974.501885853103	2867.80004882813
975.201624074541	2896.80004882813
975.901274039379	2944.39990234375
976.600835755399	2959.60009765625
977.3003092304	2942
977.999694472158	2963
978.698991488473	2954.39990234375
979.39820028713	2947.39990234375
980.097320875915	2940.19995117188
980.796353262618	2926.60009765625
981.495297455024	2973.39990234375
982.194153460919	2977.19995117188
982.892921288093	2958.19995117188
983.591600944331	2968.60009765625
984.290192437419	2952
984.98869577514	2943.19995117188
985.687110965282	2938.19995117188
986.385438015629	2935.60009765625
987.083676933961	2928.80004882813
987.781827728069	2898.60009765625
988.479890405732	2907.80004882813
989.177864974732	2896.60009765625
989.875751442857	2906.39990234375
990.573549817888	2918.80004882813
991.271260107602	2945
991.968882319786	2916
992.666416462217	2905
993.363862542681	2867.60009765625
994.061220568959	2867.60009765625
994.758490548823	2861.60009765625
995.455672490061	2912.19995117188
996.152766400451	2931.60009765625
996.849772287773	2928.39990234375
997.5466901598	2936.19995117188
998.243520024317	2929.39990234375
998.940261889097	2918.80004882813
999.636915761923	2898.39990234375
1000.33348165057	2878
1001.02995956281	2880.60009765625
1001.72634950643	2882.19995117188
1002.42265148919	2890.19995117188
1003.11886551889	2910.60009765625
1003.81499160328	2928
1004.51102975015	2927.60009765625
1005.20697996727	2934
1005.90284226242	2918
1006.59861664337	2946
1007.2943031179	2941.80004882813
1007.98990169377	2963.39990234375
1008.68541237876	3008
1009.38083518064	3021.80004882813
1010.07617010719	3036.19995117188
1010.77141716617	3035.60009765625
1011.46657636536	3046.19995117188
1012.16164771253	2979.19995117188
1012.85663121546	2984.19995117188
1013.5515268819	2941
1014.24633471963	2942.39990234375
1014.94105473642	2927.39990234375
1015.63568694004	2934.80004882813
1016.33023133826	2977.39990234375
1017.02468793885	2975.19995117188
1017.71905674957	2966
1018.41333777819	2993.39990234375
1019.10753103249	2982
1019.80163652022	2976
1020.49565424916	2957.19995117188
1021.18958422707	2947.19995117188
1021.88342646171	2958.19995117188
1022.57718096085	2980.60009765625
1023.27084773227	2974.60009765625
1023.96442678371	2929.19995117188
1024.65791812296	2905.60009765625
1025.35132175776	2862.80004882813
1026.04463769589	2863
1026.73786594511	2873.80004882813
1027.43100651318	2892
1028.12405940786	2895.19995117188
1028.81702463692	2881.19995117188
1029.50990220812	2898.60009765625
1030.20269212921	2907.60009765625
1030.89539440798	2911.39990234375
1031.58800905216	2907.39990234375
1032.28053606952	2847
1032.97297546784	2872
1033.66532725485	2876.80004882813
1034.35759143832	2932.19995117188
1035.04976802602	2933.39990234375
1035.7418570257	2929.60009765625
1036.43385844511	2943.80004882813
1037.12577229202	2914.19995117188
1037.81759857419	2933.60009765625
1038.50933729937	2942.60009765625
1039.20098847531	2962.60009765625
1039.89255210978	2987.80004882813
1040.58402821053	2955.39990234375
1041.27541678532	2917.80004882813
1041.96671784191	2923.39990234375
1042.65793138804	2919.80004882813
1043.34905743147	2916
1044.04009597996	2926.80004882813
1044.73104704125	2956.80004882813
1045.42191062312	2976.60009765625
1046.1126867333	2957.80004882813
1046.80337537955	2952.80004882813
1047.49397656962	2950.19995117188
1048.18449031127	2942.39990234375
1048.87491661225	2933.19995117188
1049.5652554803	2923.80004882813
1050.25550692319	2873.19995117188
1050.94567094865	2909.39990234375
1051.63574756444	2894.39990234375
1052.32573677832	2941.19995117188
1053.01563859803	2937.60009765625
1053.70545303131	2951.39990234375
1054.39518008592	2937
1055.08481976961	2930.60009765625
1055.77437209013	2931.80004882813
1056.46383705522	2944.19995117188
1057.15321467262	2951.19995117188
1057.8425049501	2923
1058.53170789539	2911.39990234375
1059.22082351624	2908.39990234375
1059.9098518204	2884
1060.59879281561	2897.19995117188
1061.28764650962	2890.60009765625
1061.97641291016	2905.80004882813
1062.665092025	2921.19995117188
1063.35368386187	2930.80004882813
1064.04218842851	2919.19995117188
1064.73060573268	2909.60009765625
1065.4189357821	2915.80004882813
1066.10717858452	2896
1066.7953341477	2911.39990234375
1067.48340247936	2882.60009765625
1068.17138358725	2888
1068.85927747912	2911.39990234375
1069.5470841627	2913
1070.23480364573	2921.60009765625
1070.92243593595	2966.39990234375
1071.60998104111	2964.39990234375
1072.29743896894	2961.60009765625
1072.98480972718	2961.60009765625
1073.67209332357	2956.19995117188
1074.35928976585	2954
1075.04639906176	2998.19995117188
1075.73342121903	3005.19995117188
1076.42035624541	3004
1077.10720414862	3009.60009765625
1077.79396493641	3010.19995117188
1078.48063861651	3008
1079.16722519666	3004.80004882813
1079.85372468459	3010.39990234375
1080.54013708804	3004.80004882813
1081.22646241474	2981.60009765625
1081.91270067243	2945.80004882813
1082.59885186884	2967.19995117188
1083.28491601171	2987
1083.97089310877	3007.60009765625
1084.65678316774	3009.80004882813
1085.34258619637	3030.39990234375
1086.02830220239	3031.80004882813
1086.71393119352	3014.80004882813
1087.39947317751	3024.39990234375
1088.08492816207	3024.39990234375
1088.77029615495	3041.39990234375
1089.45557716387	3047.60009765625
1090.14077119656	3052
1090.82587826075	3062
1091.51089836417	3043.19995117188
1092.19583151456	3027.80004882813
1092.88067771963	2998.60009765625
1093.56543698712	2989.80004882813
1094.25010932475	2959.19995117188
1094.93469474026	2944.39990234375
1095.61919324137	2964
1096.3036048358	2956.60009765625
1096.98792953129	2965.39990234375
1097.67216733555	2967.19995117188
1098.35631825632	2994
1099.04038230132	2995.19995117188
1099.72435947828	2999.60009765625
1100.40824979492	2964.19995117188
1101.09205325895	2924
1101.77576987812	2893
1102.45939966014	2866.80004882813
1103.14294261273	2913.39990234375
1103.82639874362	2845.60009765625
1104.50976806054	2868.39990234375
1105.19305057119	2909.80004882813
1105.87624628331	2951.60009765625
1106.55935520461	3004
1107.24237734283	3032
1107.92531270566	3041.19995117188
1108.60816130085	3032.80004882813
1109.2909231361	3044.19995117188
1109.97359821914	3072.19995117188
1110.65618655768	3091.19995117188
1111.33868815946	3117.19995117188
1112.02110303217	3103.39990234375
1112.70343118355	3097
1113.3856726213	3092.39990234375
1114.06782735316	3082.60009765625
1114.74989538683	3065.80004882813
1115.43187673002	3035.19995117188
1116.11377139047	2990.19995117188
1116.79557937588	3028.60009765625
1117.47730069397	3029
1118.15893535245	3079.60009765625
1118.84048335904	3071
1119.52194472146	3066.60009765625
1120.20331944741	3062.80004882813
1120.88460754462	3025
1121.56580902079	3054.80004882813
1122.24692388364	3083
1122.92795214088	3098.19995117188
1123.60889380022	3126.60009765625
1124.28974886938	3190
1124.97051735606	3180
1125.65119926799	3175.19995117188
1126.33179461286	3170.60009765625
1127.0123033984	3191
1127.6927256323	3161.60009765625
1128.37306132229	3147.60009765625
1129.05331047606	3147.19995117188
1129.73347310134	3136.60009765625
1130.41354920582	3142
1131.09353879722	3102.39990234375
1131.77344188324	3078.19995117188
1132.45325847159	3094.60009765625
1133.13298856999	3081
1133.81263218612	3090
1134.49218932772	3112.39990234375
1135.17166000247	3115.60009765625
1135.85104421809	3102.39990234375
1136.53034198227	3059.19995117188
1137.20955330274	3034.39990234375
1137.88867818718	3040
1138.56771664331	3033.39990234375
1139.24666867883	3036
1139.92553430144	3076
1140.60431351885	3055.80004882813
1141.28300633876	3065.19995117188
1141.96161276887	3100
1142.64013281689	3112.80004882813
1143.31856649051	3101
1143.99691379744	3086.19995117188
1144.67517474538	3055.19995117188
1145.35334934203	3045.19995117188
1146.03143759509	3033.80004882813
1146.70943951226	3028.80004882813
1147.38735510125	3012
1148.06518436974	3004
1148.74292732545	3010.80004882813
1149.42058397606	3002.39990234375
1150.09815432928	3000.19995117188
1150.7756383928	3014.60009765625
1151.45303617432	3023.39990234375
1152.13034768155	3066
1152.80757292217	3079.80004882813
1153.48471190389	3145.19995117188
1154.16176463439	3143.60009765625
1154.83873112138	3113.60009765625
1155.51561137255	3069.39990234375
1156.1924053956	3095.19995117188
1156.86911319822	3088.80004882813
1157.5457347881	3087.60009765625
1158.22227017294	3097.80004882813
1158.89871936044	3073.19995117188
1159.57508235828	3072
1160.25135917416	3043.80004882813
1160.92754981578	3055.39990234375
1161.60365429081	3073.60009765625
1162.27967260697	3079.60009765625
1162.95560477193	3050.39990234375
1163.63145079339	3052
1164.30721067904	3080.39990234375
1164.98288443657	3072
1165.65847207367	3084.19995117188
1166.33397359803	3089.39990234375
1167.00938901735	3082.60009765625
1167.6847183393	3093.19995117188
1168.35996157157	3101.19995117188
1169.03511872187	3124.60009765625
1169.71018979787	3148.39990234375
1170.38517480726	3137
1171.06007375773	3104.19995117188
1171.73488665696	3119
1172.40961351265	3088.19995117188
1173.08425433247	3036
1173.75880912412	3038.80004882813
1174.43327789528	3095.80004882813
1175.10766065364	3119.19995117188
1175.78195740687	3149.39990234375
1176.45616816267	3152.19995117188
1177.13029292871	3142
1177.80433171269	3141.19995117188
1178.47828452229	3126.80004882813
1179.15215136518	3158
1179.82593224905	3173.80004882813
1180.49962718159	3214.80004882813
1181.17323617047	3202.39990234375
1181.84675922337	3219.39990234375
1182.52019634799	3225.60009765625
1183.193547552	3250.39990234375
1183.86681284307	3215
1184.53999222889	3238.39990234375
1185.21308571714	3208.60009765625
1185.8860933155	3195.80004882813
1186.55901503165	3223.19995117188
1187.23185087326	3187.80004882813
1187.90460084802	3184.39990234375
1188.5772649636	3187
1189.24984322768	3187.19995117188
1189.92233564794	3190.39990234375
1190.59474223206	3212.39990234375
1191.2670629877	3219.39990234375
1191.93929792255	3232
1192.61144704428	3203.39990234375
1193.28351036058	3213.80004882813
1193.9554878791	3208.19995117188
1194.62737960754	3179.39990234375
1195.29918555356	3168.60009765625
1195.97090572483	3167
1196.64254012903	3184.39990234375
1197.31408877384	3226
1197.98555166693	3233.60009765625
1198.65692881596	3190.19995117188
1199.32822022862	3181.80004882813
1199.99942591256	3165
1200.67054587548	3156.80004882813
1201.34158012503	3140.39990234375
1202.01252866889	3101.19995117188
1202.68339151473	3094
1203.35416867021	3093.80004882813
1204.02486014301	3100.39990234375
1204.6954659408	3106.39990234375
1205.36598607124	3156.60009765625
1206.03642054201	3163.39990234375
1206.70676936078	3155.19995117188
1207.3770325352	3153.80004882813
1208.04721007295	3133.39990234375
1208.7173019817	3131.60009765625
1209.38730826911	3102.80004882813
1210.05722894285	3105
1210.72706401059	3108.39990234375
1211.39681347999	3075.80004882813
1212.06647735872	3096.19995117188
1212.73605565444	3076
1213.40554837481	3096.19995117188
1214.07495552751	3091.19995117188
1214.74427712019	3097.80004882813
1215.41351316052	3121
1216.08266365617	3126.39990234375
1216.75172861479	3115.39990234375
1217.42070804405	3071.60009765625
1218.0896019516	3076
1218.75841034513	3100.60009765625
1219.42713323227	3115.80004882813
1220.0957706207	3118.39990234375
1220.76432251808	3154.80004882813
1221.43278893207	3178
1222.10116987032	3199.80004882813
1222.7694653405	3206.19995117188
1223.43767535026	3206.19995117188
1224.10579990727	3195.39990234375
1224.77383901918	3179.19995117188
1225.44179269366	3162.80004882813
1226.10966093835	3147.39990234375
1226.77744376093	3171
1227.44514116904	3151.80004882813
1228.11275317034	3169
1228.78027977249	3162
1229.44772098315	3150.60009765625
1230.11507680996	3141
1230.7823472606	3146.19995117188
1231.44953234271	3146.60009765625
1232.11663206394	3105.19995117188
1232.78364643195	3098.80004882813
1233.4505754544	3062.39990234375
1234.11741913894	3045
1234.78417749322	3067.80004882813
1235.45085052489	3093.39990234375
1236.11743824162	3083.39990234375
1236.78394065104	3090.19995117188
1237.45035776082	3073.39990234375
1238.1166895786	3119
1238.78293611204	3119.19995117188
1239.44909736878	3114.39990234375
1240.11517335648	3100.19995117188
1240.78116408279	3120.39990234375
1241.44706955535	3115.80004882813
1242.11288978182	3145.39990234375
1242.77862476985	3102
1243.44427452708	3058.80004882813
1244.10983906116	3058.60009765625
1244.77531837974	3071.80004882813
1245.44071249047	3079
1246.106021401	3086.39990234375
1246.77124511898	3092.39990234375
1247.43638365204	3140.60009765625
1248.10143700783	3153.60009765625
1248.76640519401	3132.60009765625
1249.43128821822	3116.80004882813
1250.0960860881	3140.39990234375
1250.76079881129	3146.80004882813
1251.42542639545	3131.19995117188
1252.08996884822	3104.80004882813
1252.75442617723	3064.19995117188
1253.41879839014	3086.60009765625
1254.08308549458	3113.60009765625
1254.74728749821	3142.39990234375
1255.41140440866	3141.60009765625
1256.07543623357	3127.19995117188
1256.73938298059	3106.80004882813
1257.40324465735	3094.60009765625
1258.0670212715	3084.60009765625
1258.73071283068	3075.80004882813
1259.39431934253	3094
1260.05784081468	3094
1260.72127725479	3083.80004882813
1261.38462867049	3060.80004882813
1262.0478950694	3098
1262.71107645919	3089.80004882813
1263.37417284748	3101.60009765625
1264.03718424191	3130.60009765625
1264.70011065011	3095
1265.36295207974	3113.60009765625
1266.02570853841	3106.80004882813
1266.68838003378	3108
1267.35096657346	3072.19995117188
1268.01346816511	3046.80004882813
1268.67588481636	3048.39990234375
1269.33821653483	3022.60009765625
1270.00046332817	3083.19995117188
1270.66262520401	3159.80004882813
1271.32470216998	3137.60009765625
1271.98669423372	3082.60009765625
1272.64860140285	3068
1273.31042368503	3070.80004882813
1273.97216108786	3063.19995117188
1274.633813619	3099
1275.29538128606	3135.19995117188
1275.95686409669	3145.19995117188
1276.6182620585	3145.19995117188
1277.27957517914	3120.19995117188
1277.94080346624	3127.19995117188
1278.60194692741	3111.19995117188
1279.2630055703	3114.80004882813
1279.92397940253	3123
1280.58486843173	3186.80004882813
1281.24567266552	3119.80004882813
1281.90639211155	3100.60009765625
1282.56702677743	3084.39990234375
1283.2275766708	3084.19995117188
1283.88804179927	3098.80004882813
1284.54842217049	3062.19995117188
1285.20871779206	3053.39990234375
1285.86892867163	3080.39990234375
1286.52905481681	3095.39990234375
1287.18909623523	3129.60009765625
1287.84905293452	3145.60009765625
1288.5089249223	3159.80004882813
1289.16871220619	3160.60009765625
1289.82841479383	3178.60009765625
1290.48803269282	3184.60009765625
1291.1475659108	3150.39990234375
1291.80701445539	3118.19995117188
1292.46637833421	3064.39990234375
1293.12565755489	3027.39990234375
1293.78485212504	3035.39990234375
1294.44396205229	3051.19995117188
1295.10298734425	3042
1295.76192800856	3031
1296.42078405283	3005.80004882813
1297.07955548467	2995.60009765625
1297.73824231171	3036.60009765625
1298.39684454158	3034.39990234375
1299.05536218188	3064.19995117188
1299.71379524023	3073.80004882813
1300.37214372427	3076.39990234375
1301.03040764159	3063.60009765625
1301.68858699983	3057.39990234375
1302.34668180659	3043
1303.0046920695	3076
1303.66261779617	3092.19995117188
1304.32045899422	3106.19995117188
1304.97821567126	3144.39990234375
1305.63588783492	3161.80004882813
1306.29347549279	3120.60009765625
1306.95097865251	3146.39990234375
1307.60839732168	3148.19995117188
1308.26573150791	3182.19995117188
1308.92298121883	3199.39990234375
1309.58014646204	3185
1310.23722724517	3197.39990234375
1310.89422357581	3192.80004882813
1311.55113546158	3206
1312.2079629101	3227.39990234375
1312.86470592898	3262.80004882813
1313.52136452582	3248.39990234375
1314.17793870824	3255.60009765625
1314.83442848386	3264.19995117188
1315.49083386027	3271.80004882813
1316.14715484509	3284
1316.80339144594	3282.80004882813
1317.45954367041	3298
1318.11561152611	3272.60009765625
1318.77159502067	3237
1319.42749416168	3242.80004882813
1320.08330895674	3234
1320.73903941348	3238.80004882813
1321.3946855395	3199.60009765625
1322.0502473424	3201.19995117188
1322.70572482978	3182.39990234375
1323.36111800926	3168.39990234375
1324.01642688845	3192.19995117188
1324.67165147494	3218
1325.32679177634	3179.60009765625
1325.98184780025	3210.80004882813
1326.63681955429	3196.39990234375
1327.29170704605	3161.39990234375
1327.94651028314	3147.19995117188
1328.60122927316	3137.39990234375
1329.25586402371	3150.39990234375
1329.9104145424	3130.60009765625
1330.56488083683	3091.39990234375
1331.2192629146	3067.19995117188
1331.87356078331	3098.60009765625
1332.52777445056	3138.80004882813
1333.18190392395	3138.39990234375
1333.83594921109	3127.39990234375
1334.48991031958	3126.80004882813
1335.143787257	3110.19995117188
1335.79758003097	3112.80004882813
1336.45128864908	3118.19995117188
1337.10491311893	3112.19995117188
1337.75845344813	3132.80004882813
1338.41190964425	3129.19995117188
1339.06528171491	3116
1339.71856966771	3097.39990234375
1340.37177351023	3075.39990234375
1341.02489325007	3062.80004882813
1341.67792889484	3010
1342.33088045212	2990.39990234375
1342.98374792952	2996.60009765625
1343.63653133462	3015
1344.28923067503	3018.19995117188
1344.94184595833	3052.19995117188
1345.59437719212	3086.19995117188
1346.246824384	3101.60009765625
1346.89918754155	3109
1347.55146667238	3118.80004882813
1348.20366178407	3143.60009765625
1348.85577288421	3165.60009765625
1349.50779998041	3158.80004882813
1350.15974308024	3127.60009765625
1350.8116021913	3143.39990234375
1351.46337732119	3152.60009765625
1352.11506847748	3144.80004882813
1352.76667566778	3148
1353.41819889967	3179.80004882813
1354.06963818074	3190.19995117188
1354.72099351858	3190.80004882813
1355.37226492079	3213.19995117188
1356.02345239494	3223
1356.67455594862	3292.19995117188
1357.32557558943	3340.19995117188
1357.97651132496	3407.19995117188
1358.62736316277	3410.19995117188
1359.27813111048	3450
1359.92881517565	3458.80004882813
1360.57941536589	3459.60009765625
1361.22993168876	3494.39990234375
1361.88036415186	3522.39990234375
1362.53071276278	3561.60009765625
1363.1809775291	3580
1363.8311584584	3618.60009765625
1364.48125555826	3587.39990234375
1365.13126883627	3513.19995117188
1365.78119830001	3441.80004882813
1366.43104395707	3388.60009765625
1367.08080581503	3350.39990234375
1367.73048388147	3327.19995117188
1368.38007816397	3336.60009765625
1369.02958867011	3300.39990234375
1369.67901540748	3313.60009765625
1370.32835838365	3306.19995117188
1370.9776176062	3271.19995117188
1371.62679308273	3283
1372.27588482079	3298.19995117188
1372.92489282798	3322.60009765625
1373.57381711188	3311.19995117188
1374.22265768006	3233.80004882813
1374.87141454009	3247
1375.52008769957	3237.80004882813
1376.16867716606	3230.19995117188
1376.81718294715	3223.39990234375
1377.4656050504	3210.19995117188
1378.1139434834	3219.80004882813
1378.76219825373	3233.60009765625
1379.41036936895	3226.19995117188
1380.05845683664	3213.19995117188
1380.70646066439	3204.60009765625
1381.35438085976	3197
1382.00221743032	3205
1382.64997038366	3199.80004882813
1383.29763972735	3210.19995117188
1383.94522546895	3214
1384.59272761605	3228.19995117188
1385.24014617621	3205.60009765625
1385.88748115701	3224.39990234375
1386.53473256602	3187.80004882813
1387.18190041081	3201.80004882813
1387.82898469895	3198.19995117188
1388.47598543802	3181.39990234375
1389.12290263558	3168
1389.7697362992	3157
1390.41648643646	3121.80004882813
1391.06315305492	3083.60009765625
1391.70973616215	3044.60009765625
1392.35623576573	3027.80004882813
1393.00265187321	3044.60009765625
1393.64898449217	3063.39990234375
1394.29523363018	3083.39990234375
1394.94139929481	3073.19995117188
1395.58748149361	3069.60009765625
1396.23348023415	3035.80004882813
1396.87939552402	3026.60009765625
1397.52522737076	2971.60009765625
1398.17097578195	2943.80004882813
1398.81664076514	2906.19995117188
1399.46222232792	2918
1400.10772047783	2920
1400.75313522245	2886.19995117188
1401.39846656934	2942.60009765625
1402.04371452605	2996.80004882813
1402.68887910016	3009
1403.33396029924	3015.80004882813
1403.97895813083	3020.60009765625
1404.6238726025	3059.19995117188
1405.26870372182	3077.19995117188
1405.91345149634	3089
1406.55811593363	3063
1407.20269704125	3030
1407.84719482676	3006.19995117188
1408.49160929772	3041
1409.13594046168	3035.39990234375
1409.78018832622	3021.19995117188
1410.42435289887	3023.80004882813
1411.06843418722	3016
1411.7124321988	3000.39990234375
1412.3563469412	3046.39990234375
1413.00017842194	3082.19995117188
1413.64392664861	3111.80004882813
1414.28759162875	3154.39990234375
1414.93117336992	3123.80004882813
1415.57467187967	3128
1416.21808716557	3115
1416.86141923516	3132
1417.50466809601	3146.19995117188
1418.14783375567	3120
1418.79091622169	3125
1419.43391550162	3100
1420.07683160303	3081.19995117188
1420.71966453346	3094.39990234375
1421.36241430046	3118.39990234375
1422.0050809116	3139.80004882813
1422.64766437442	3157.60009765625
1423.29016469647	3180.80004882813
1423.93258188531	3172.80004882813
1424.57491594848	3172.80004882813
1425.21716689354	3160.80004882813
1425.85933472805	3144
1426.50141945954	3138
1427.14342109557	3113
1427.78533964369	3123
1428.42717511144	3088.80004882813
1429.06892750639	3076.80004882813
1429.71059683607	3043
1430.35218310803	3039.19995117188
1430.99368632983	3082
1431.635106509	3094.39990234375
1432.2764436531	3108.19995117188
1432.91769776967	3111.39990234375
1433.55886886627	3103.80004882813
1434.19995695043	3130.19995117188
1434.84096202969	3110.80004882813
1435.48188411162	3136.80004882813
1436.12272320375	3092.80004882813
1436.76347931363	3128
1437.40415244879	3108.39990234375
1438.0447426168	3132
1438.68524982518	3128.39990234375
1439.32567408148	3090.19995117188
1439.96601539325	3059.60009765625
1440.60627376803	3050.60009765625
1441.24644921336	3072
1441.88654173678	3026.60009765625
1442.52655134583	3058.60009765625
1443.16647804806	3039.19995117188
1443.806321851	3065.39990234375
1444.4460827622	3059.60009765625
1445.0857607892	3047.39990234375
1445.72535593953	3034.39990234375
1446.36486822074	3040.80004882813
1447.00429764037	3026
1447.64364420595	3050.80004882813
1448.28290792502	3076.39990234375
1448.92208880512	3098.60009765625
1449.56118685379	3094.80004882813
1450.20020207857	3112.60009765625
1450.83913448699	3106.80004882813
1451.47798408659	3122.39990234375
1452.1167508849	3113.39990234375
1452.75543488947	3107.39990234375
1453.39403610782	3082.39990234375
1454.0325545475	3072.60009765625
1454.67099021603	3087.60009765625
1455.30934312097	3110.19995117188
1455.94761326982	3115.80004882813
1456.58580067014	3094
1457.22390532945	3091.19995117188
1457.86192725529	3096.39990234375
1458.49986645519	3078.39990234375
1459.13772293668	3089.60009765625
1459.7754967073	3044.60009765625
1460.41318777457	3041.39990234375
1461.05079614604	3048
1461.68832182922	3040.19995117188
1462.32576483166	3022.19995117188
1462.96312516087	3022.80004882813
1463.6004028244	3031
1464.23759782977	3028.19995117188
1464.8747101845	3063.39990234375
1465.51173989614	3052.39990234375
1466.14868697221	3055
1466.78555142024	3054.80004882813
1467.42233324774	3041
1468.05903246227	3039.39990234375
1468.69564907133	3026.19995117188
1469.33218308246	3025.39990234375
1469.96863450317	3059
1470.60500334102	3063.60009765625
1471.2412896035	3119.39990234375
1471.87749329816	3082.19995117188
1472.51361443251	3085.39990234375
1473.14965301409	3067.39990234375
1473.78560905041	3062.60009765625
1474.421482549	3086.39990234375
1475.05727351739	3100.19995117188
1475.69298196309	3094.60009765625
1476.32860789364	3109.39990234375
1476.96415131654	3056.19995117188
1477.59961223934	3042
1478.23499066954	3032.80004882813
1478.87028661467	3003.39990234375
1479.50550008226	3030.60009765625
1480.14063107981	3017.39990234375
1480.77567961486	2977
1481.41064569492	2966.80004882813
1482.04552932752	2936
1482.68033052017	2943.39990234375
1483.31504928039	2971
1483.9496856157	2988.60009765625
1484.58423953363	2987.80004882813
1485.21871104168	3005.60009765625
1485.85310014738	3002.39990234375
1486.48740685824	2989.19995117188
1487.12163118178	2985.60009765625
1487.75577312553	2960.19995117188
1488.38983269698	2984.19995117188
1489.02380990367	2995.19995117188
1489.65770475311	2999.39990234375
1490.29151725281	3014.19995117188
1490.92524741029	3071
1491.55889523306	3067
1492.19246072863	3076.39990234375
1492.82594390453	3090
1493.45934476826	3112.80004882813
1494.09266332734	3116.19995117188
1494.72589958928	3104
1495.3590535616	3098
1495.99212525181	3142
1496.62511466741	3127.60009765625
1497.25802181592	3099.80004882813
1497.89084670485	3124.80004882813
1498.52358934172	3130.80004882813
1499.15624973403	3168
1499.7888278893	3142.39990234375
1500.42132381503	3174.80004882813
1501.05373751873	3192
1501.68606900792	3215.19995117188
1502.31831829009	3252.19995117188
1502.95048537277	3250.60009765625
1503.58257026346	3283.60009765625
1504.21457296966	3291.19995117188
1504.84649349889	3313
1505.47833185864	3328
1506.11008805644	3322.60009765625
1506.74176209978	3309.60009765625
1507.37335399617	3313.39990234375
1508.00486375312	3290.19995117188
1508.63629137813	3312.39990234375
1509.2676368787	3297.39990234375
1509.89890026235	3306.39990234375
1510.53008153658	3335.60009765625
1511.16118070889	3370
1511.79219778677	3351.80004882813
1512.42313277775	3392
1513.05398568932	3387.19995117188
1513.68475652898	3382
1514.31544530424	3365.39990234375
1514.9460520226	3323.19995117188
1515.57657669155	3275.80004882813
1516.20701931861	3211.80004882813
1516.83737991127	3187
1517.46765847702	3158.60009765625
1518.09785502339	3178.19995117188
1518.72796955785	3232.80004882813
1519.35800208792	3214.19995117188
1519.98795262109	3180.39990234375
1520.61782116486	3192.39990234375
1521.24760772673	3179
1521.87731231419	3148.80004882813
1522.50693493475	3139.80004882813
1523.1364755959	3143.39990234375
1523.76593430514	3126.39990234375
1524.39531106997	3109
1525.02460589788	3116.60009765625
1525.65381879637	3095
1526.28294977293	3090.80004882813
1526.91199883507	3069.39990234375
1527.54096599027	3014.39990234375
1528.16985124603	2989
1528.79865460984	2991
1529.4273760892	2980.60009765625
1530.05601569161	3007.19995117188
1530.68457342455	3046.19995117188
1531.31304929552	3040
1531.94144331201	3066.80004882813
1532.56975548151	3094.60009765625
1533.19798581152	3074.80004882813
1533.82613430953	3075.80004882813
1534.45420098302	3071.80004882813
1535.08218583949	3059.19995117188
1535.71008888643	3045.39990234375
1536.33791013134	3056.60009765625
1536.96564958169	3050.80004882813
1537.59330724498	3036.80004882813
1538.22088312871	3043.60009765625
1538.84837724034	2993.39990234375
1539.47578958739	2979.80004882813
1540.10312017733	2990.60009765625
1540.73036901765	2957.60009765625
1541.35753611584	2968.19995117188
1541.98462147939	2969.19995117188
1542.61162511578	2995.80004882813
1543.2385470325	3006.80004882813
1543.86538723704	3027.60009765625
1544.49214573688	3021
1545.11882253951	3051.19995117188
1545.74541765241	3045.60009765625
1546.37193108306	3036.60009765625
1546.99836283896	3043.60009765625
1547.62471292758	3051
1548.25098135641	3039
1548.87716813294	3025.60009765625
1549.50327326464	3052
1550.12929675899	3047.39990234375
1550.75523862349	3013.80004882813
1551.38109886561	3021.19995117188
1552.00687749284	3024.19995117188
1552.63257451264	3004.60009765625
1553.25818993252	3010.19995117188
1553.88372375994	2963.19995117188
1554.50917600239	2959.60009765625
1555.13454666734	2960
1555.75983576228	2961.19995117188
1556.38504329469	2995
1557.01016927204	2981.80004882813
1557.63521370181	2926
1558.26017659149	2961.39990234375
1558.88505794854	2993
1559.50985778045	3021
1560.13457609469	3028.80004882813
1560.75921289874	3013.80004882813
1561.38376820008	3029.80004882813
1562.00824200618	3008.39990234375
1562.63263432452	2988.80004882813
1563.25694516257	3015.60009765625
1563.88117452781	2996.80004882813
1564.50532242772	2988.80004882813
1565.12938886976	3009.19995117188
1565.75337386141	2987.39990234375
1566.37727741015	3034
1567.00109952345	3069
1567.62484020878	3079.39990234375
1568.24849947361	3102.80004882813
1568.87207732542	3115.80004882813
1569.49557377168	3132.39990234375
1570.11898881986	3146.39990234375
1570.74232247743	3132
1571.36557475186	3137.60009765625
1571.98874565062	3134.39990234375
1572.61183518119	3186.39990234375
1573.23484335103	3204.80004882813
1573.85777016761	3244
1574.4806156384	3262
1575.10337977088	3229.19995117188
1575.7260625725	3236.19995117188
1576.34866405074	3213
1576.97118421306	3172.80004882813
1577.59362306694	3148.19995117188
1578.21598061984	3164.60009765625
1578.83825687922	3161.80004882813
1579.46045185255	3143.60009765625
1580.08256554731	3130.19995117188
1580.70459797094	3125.80004882813
1581.32654913093	3106.80004882813
1581.94841903473	3082
1582.57020768981	3037.60009765625
1583.19191510364	3014.19995117188
1583.81354128367	2996.60009765625
1584.43508623737	2969.60009765625
1585.05654997221	3002.39990234375
1585.67793249564	2984.39990234375
1586.29923381514	2957.80004882813
1586.92045393815	2939
1587.54159287216	2956.80004882813
1588.1626506246	2969.19995117188
1588.78362720296	2963
1589.40452261468	2954.60009765625
1590.02533686724	2941.39990234375
1590.64606996808	2936.19995117188
1591.26672192467	2893
1591.88729274447	2869.60009765625
1592.50778243493	2862
1593.12819100352	2866.80004882813
1593.7485184577	2864.19995117188
1594.36876480492	2857.19995117188
1594.98893005264	2834.80004882813
1595.60901420832	2826
1596.22901727941	2846
1596.84893927338	2887.80004882813
1597.46878019767	2903.39990234375
1598.08854005975	2907.80004882813
1598.70821886707	2920.19995117188
1599.32781662708	2948.19995117188
1599.94733334725	2951.19995117188
1600.56676903502	2931.80004882813
1601.18612369785	2908.60009765625
1601.8053973432	2902.39990234375
1602.42458997851	2870.80004882813
1603.04370161124	2856.60009765625
1603.66273224884	2846
1604.28168189878	2825
1604.90055056849	2782.19995117188
1605.51933826543	2786.19995117188
1606.13804499705	2789.60009765625
1606.75667077081	2814.60009765625
1607.37521559415	2830.19995117188
1607.99367947452	2835.19995117188
1608.61206241938	2846.19995117188
1609.23036443618	2821.19995117188
1609.84858553236	2815.39990234375
1610.46672571537	2837.80004882813
1611.08478499267	2833.60009765625
1611.7027633717	2860.39990234375
1612.3206608599	2884
1612.93847746473	2851.39990234375
1613.55621319364	2816.19995117188
1614.17386805407	2810.19995117188
1614.79144205347	2774.19995117188
1615.40893519928	2797.80004882813
1616.02634749895	2762.19995117188
1616.64367895993	2719.39990234375
1617.26092958966	2740.39990234375
1617.87809939559	2720.19995117188
1618.49518838516	2754.39990234375
1619.11219656582	2753.80004882813
1619.729123945	2758.80004882813
1620.34597053016	2751.19995117188
1620.96273632874	2754
1621.57942134818	2767.60009765625
1622.19602559592	2750.19995117188
1622.8125490794	2768.39990234375
1623.42899180607	2774.39990234375
1624.04535378337	2786.60009765625
1624.66163501874	2784.80004882813
1625.27783551963	2811
1625.89395529346	2807.39990234375
1626.50999434768	2786.60009765625
1627.12595268974	2754
1627.74183032707	2729.80004882813
1628.3576272671	2723.60009765625
1628.97334351729	2679.19995117188
1629.58897908506	2698.60009765625
1630.20453397786	2706.60009765625
1630.82000820313	2711.39990234375
1631.43540176829	2698
1632.05071468079	2713.60009765625
1632.66594694807	2691
1633.28109857756	2698.80004882813
1633.8961695767	2701.39990234375
1634.51115995292	2664.19995117188
1635.12606971366	2657.60009765625
1635.74089886636	2670
1636.35564741844	2676.60009765625
1636.97031537734	2722.60009765625
1637.58490275051	2733
1638.19940954536	2746.19995117188
1638.81383576934	2758.39990234375
1639.42818142987	2782.19995117188
1640.0424465344	2806.19995117188
1640.65663109034	2824
1641.27073510515	2822.19995117188
1641.88475858623	2805
1642.49870154104	2800
1643.11256397699	2793.19995117188
1643.72634590152	2796.80004882813
1644.34004732206	2813.39990234375
1644.95366824604	2839
1645.56720868089	2856.80004882813
1646.18066863404	2854.60009765625
1646.79404811291	2871.80004882813
1647.40734712494	2875.19995117188
1648.02056567755	2881.39990234375
1648.63370377817	2891.60009765625
1649.24676143423	2896
1649.85973865316	2884.19995117188
1650.47263544238	2926.80004882813
1651.08545180932	2926.19995117188
1651.6981877614	2937.39990234375
1652.31084330606	2938.80004882813
1652.92341845071	2887.80004882813
1653.53591320278	2838.19995117188
1654.1483275697	2843.80004882813
1654.7606615589	2835.19995117188
1655.37291517778	2817.60009765625
1655.98508843379	2793
1656.59718133434	2806.80004882813
1657.20919388685	2822.80004882813
1657.82112609875	2790.39990234375
1658.43297797747	2804.80004882813
1659.04474953041	2775.80004882813
1659.65644076501	2777.39990234375
1660.26805168869	2728.60009765625
1660.87958230886	2706.60009765625
1661.49103263294	2706.19995117188
1662.10240266837	2691.39990234375
1662.71369242255	2712
1663.32490190291	2678
1663.93603111687	2684.60009765625
1664.54708007184	2640.19995117188
1665.15804877524	2636.19995117188
1665.7689372345	2620.19995117188
1666.37974545703	2648.39990234375
1666.99047345024	2641.19995117188
1667.60112122156	2620.39990234375
1668.2116887784	2599
1668.82217612818	2564.19995117188
1669.43258327831	2556.19995117188
1670.04291023622	2534
1670.65315700931	2521
1671.263323605	2489.39990234375
1671.8734100307	2481
1672.48341629384	2490.19995117188
1673.09334240182	2493.80004882813
1673.70318836206	2468.19995117188
1674.31295418197	2446
1674.92263986896	2439.19995117188
1675.53224543046	2467
1676.14177087386	2444.19995117188
1676.75121620658	2448
1677.36058143604	2474.60009765625
1677.96986656964	2457.39990234375
1678.5790716148	2492
1679.18819657892	2499
1679.79724146943	2519.80004882813
1680.40620629372	2532.19995117188
1681.0150910592	2544.80004882813
1681.6238957733	2535.80004882813
1682.23262044341	2534.19995117188
1682.84126507694	2532.19995117188
1683.4498296813	2563.39990234375
1684.0583142639	2574.60009765625
1684.66671883216	2560.80004882813
1685.27504339346	2557.39990234375
1685.88328795523	2513.39990234375
1686.49145252487	2483.19995117188
1687.09953710978	2472.60009765625
1687.70754171737	2485.39990234375
1688.31546635505	2477.60009765625
1688.92331103021	2515.60009765625
1689.53107575028	2517.39990234375
1690.13876052265	2534.19995117188
1690.74636535472	2525.80004882813
1691.3538902539	2495.60009765625
1691.96133522759	2501.80004882813
1692.5687002832	2492.80004882813
1693.17598542812	2454.60009765625
1693.78319066977	2450.39990234375
1694.39031601554	2433.19995117188
1694.99736147283	2437
1695.60432704905	2485.39990234375
1696.2112127516	2501.19995117188
1696.81801858788	2519.60009765625
1697.42474456528	2507
1698.03139069121	2521.80004882813
1698.63795697307	2517.60009765625
1699.24444341826	2511.39990234375
1699.85085003417	2497.60009765625
1700.45717682821	2497
1701.06342380778	2488.19995117188
1701.66959098026	2499.39990234375
1702.27567835307	2475
1702.88168593359	2450.19995117188
1703.48761372922	2417
1704.09346174737	2393.60009765625
1704.69922999542	2384.60009765625
1705.30491848077	2401.19995117188
1705.91052721083	2407
1706.51605619297	2405.80004882813
1707.12150543461	2419.39990234375
1707.72687494312	2403.19995117188
1708.33216472592	2395.19995117188
1708.93737479039	2393.39990234375
1709.54250514392	2370.80004882813
