634.977642221345	2397.19995117188
635.719821695905	2386.80004882813
636.461909203392	2381.19995117188
637.203904751776	2409.80004882813
637.945808349023	2424.80004882813
638.687620003102	2446.19995117188
639.42933972198	2469.60009765625
640.170967513616	2473.80004882813
640.912503385981	2461.80004882813
641.653947347041	2428.60009765625
642.395299404758	2421.19995117188
643.13655956709	2395.60009765625
643.877727842014	2368.80004882813
644.61880423748	2372.39990234375
645.359788761455	2366.60009765625
646.100681421905	2383.80004882813
646.841482226789	2403
647.582191184074	2406.19995117188
648.322808301711	2411.39990234375
649.06333358767	2387.80004882813
649.803767049909	2406.80004882813
650.544108696385	2429.80004882813
651.28435853506	2456
652.024516573894	2482.19995117188
652.764582820849	2478.80004882813
653.504557283875	2498
654.244439970937	2502
654.984230889991	2496.19995117188
655.723930048995	2485.80004882813
656.463537455909	2504.60009765625
657.203053118683	2504.80004882813
657.942477045275	2514
658.681809243647	2519.39990234375
659.421049721747	2512.19995117188
660.160198487535	2518
660.899255548962	2523
661.638220913985	2527.80004882813
662.377094590559	2533.39990234375
663.115876586631	2530
663.854566910165	2520.19995117188
664.593165569107	2535.39990234375
665.331672571406	2535.80004882813
666.07008792502	2533.80004882813
666.808411637902	2502.39990234375
667.546643717996	2488
668.284784173258	2469
669.022833011641	2481.19995117188
669.760790241089	2514.39990234375
670.498655869554	2484.80004882813
671.236429904987	2480.19995117188
671.97411235534	2500.80004882813
672.711703228551	2543.19995117188
673.449202532577	2570.39990234375
674.186610275364	2590
674.923926464857	2610.39990234375
675.661151109008	2594.60009765625
676.398284215759	2612.19995117188
677.135325793058	2600.19995117188
677.87227584885	2639.80004882813
678.609134391082	2681.60009765625
679.345901427696	2653.80004882813
680.082576966644	2661
680.819161015861	2643
681.555653583298	2599.39990234375
682.292054676895	2589
683.028364304594	2579.60009765625
683.764582474344	2578.60009765625
684.500709194083	2552.80004882813
685.236744471752	2552
685.972688315294	2545.39990234375
686.708540732652	2543.39990234375
687.444301731762	2548.80004882813
688.179971320572	2576.39990234375
688.915549507013	2552.19995117188
689.651036299034	2533.19995117188
690.386431704569	2523.60009765625
691.121735731559	2505.19995117188
691.85694838794	2504.39990234375
692.592069681652	2502.39990234375
693.327099620632	2500.60009765625
694.062038212821	2510.80004882813
694.796885466149	2543.19995117188
695.531641388561	2594
696.266305987987	2635.19995117188
697.000879272367	2664.39990234375
697.735361249632	2670.39990234375
698.469751927722	2657.39990234375
699.204051314568	2637.60009765625
699.938259418107	2614.39990234375
700.672376246272	2601.60009765625
701.406401806997	2632.39990234375
702.140336108212	2605.80004882813
702.874179157855	2621.80004882813
703.607930963856	2601.60009765625
704.341591534147	2616.80004882813
705.07516087666	2606.19995117188
705.808638999324	2627.60009765625
706.542025910073	2615
707.275321616841	2603
708.008526127549	2611.60009765625
708.741639450132	2576.80004882813
709.474661592521	2590.39990234375
710.207592562641	2604.80004882813
710.940432368424	2607.80004882813
711.673181017796	2622
712.405838518687	2624
713.138404879025	2622.39990234375
713.870880106731	2622.19995117188
714.603264209738	2618.19995117188
715.335557195971	2665.19995117188
716.067759073357	2668
716.799869849816	2678.19995117188
717.531889533281	2687.80004882813
718.263818131673	2687.60009765625
718.995655652917	2660.19995117188
719.727402104934	2669.19995117188
720.45905749565	2654
721.19062183299	2635.39990234375
721.922095124877	2630.19995117188
722.653477379231	2622.19995117188
723.384768603973	2625
724.11596880703	2621.60009765625
724.847077996319	2643.60009765625
725.578096179762	2637.60009765625
726.309023365281	2657.60009765625
727.039859560792	2655
727.770604774222	2645.39990234375
728.501259013484	2668.60009765625
729.231822286501	2700.60009765625
729.962294601191	2675.80004882813
730.692675965469	2668
731.42296638726	2623
732.153165874472	2619.80004882813
732.883274435032	2659.60009765625
733.613292076851	2684
734.343218807843	2693.19995117188
735.07305463593	2682.19995117188
735.802799569028	2664.80004882813
736.532453615048	2656.39990234375
737.262016781904	2637.60009765625
737.991489077517	2649
738.720870509794	2661.39990234375
739.450161086654	2667.39990234375
740.179360816009	2661.19995117188
740.908469705772	2690.19995117188
741.637487763854	2689.19995117188
742.366414998168	2706.80004882813
743.095251416623	2710
743.823997027137	2713.60009765625
744.552651837618	2695
745.281215855978	2712.19995117188
746.009689090124	2706
746.738071547964	2682.39990234375
747.466363237419	2659.60009765625
748.194564166384	2663.19995117188
748.92267434278	2683.60009765625
749.650693774504	2678.60009765625
750.378622469476	2697.80004882813
751.106460435596	2693.39990234375
751.834207680771	2706
752.561864212909	2720.39990234375
753.289430039919	2731.80004882813
754.016905169707	2706.80004882813
754.744289610175	2695.80004882813
755.471583369231	2696.80004882813
756.198786454782	2699
756.925898874728	2713.19995117188
757.652920636979	2729.19995117188
758.379851749433	2724.39990234375
759.106692219996	2732.60009765625
759.833442056572	2772.60009765625
760.560101267063	2781.19995117188
761.28666985937	2792.80004882813
762.0131478414	2792.80004882813
762.739535221046	2774.60009765625
763.465832006219	2778.39990234375
764.192038204812	2794.39990234375
764.918153824731	2813
765.644178873872	2792.19995117188
766.370113360138	2837.80004882813
767.095957291425	2865
767.821710675635	2908.19995117188
768.547373520665	2921.39990234375
769.272945834415	2964
769.998427624781	2987.80004882813
770.723818899658	3036.60009765625
771.449119666949	3038.19995117188
772.174329934546	3063
772.899449710347	3039
773.624479002248	3072.80004882813
774.349417818145	3081.80004882813
775.074266165934	3076.39990234375
775.799024053505	3072.39990234375
776.523691488757	3057.80004882813
777.248268479582	3012.39990234375
777.972755033877	2936.39990234375
778.69715115953	2900
779.421456864441	2900.80004882813
780.145672156493	2877.19995117188
780.869797043587	2860.19995117188
781.593831533611	2868.60009765625
782.317775634457	2846.80004882813
783.041629354012	2840.19995117188
783.765392700174	2828.39990234375
784.489065680828	2794.19995117188
785.212648303866	2767.80004882813
785.936140577177	2760.19995117188
786.659542508652	2757
787.382854106174	2768.19995117188
788.106075377639	2778.80004882813
788.829206330928	2809.80004882813
789.552246973933	2831
790.275197314542	2870.80004882813
790.998057360638	2833.39990234375
791.720827120108	2822.39990234375
792.443506600841	2811
793.166095810722	2770.19995117188
793.888594757635	2755.80004882813
794.611003449465	2746.19995117188
795.333321894098	2771.19995117188
796.055550099417	2812.39990234375
796.777688073308	2824.60009765625
797.499735823654	2833.60009765625
798.221693358334	2827.80004882813
798.943560685235	2805
799.665337812239	2813.60009765625
800.387024747226	2810.19995117188
801.108621498075	2850.19995117188
801.830128072674	2851
802.551544478902	2828.80004882813
803.272870724636	2832
803.994106817761	2829
804.715252766148	2831.19995117188
805.436308577687	2820.39990234375
806.157274260251	2793.19995117188
806.878149821721	2801.19995117188
807.598935269973	2792.19995117188
808.319630612886	2751.80004882813
809.040235858336	2762.80004882813
809.760751014202	2776
810.481176088361	2801.80004882813
811.201511088685	2795.39990234375
811.921756023059	2783.19995117188
812.641910899347	2763.39990234375
813.361975725432	2757.39990234375
814.081950509188	2775.60009765625
814.801835258489	2782.19995117188
815.521629981206	2791.60009765625
816.241334685218	2788.19995117188
816.960949378392	2796
817.680474068606	2793.60009765625
818.399908763731	2800.39990234375
819.11925347164	2786.19995117188
819.838508200202	2770.19995117188
820.55767295729	2739.19995117188
821.276747750778	2742.19995117188
821.995732588531	2747.19995117188
822.714627478425	2758
823.433432428327	2789.39990234375
824.152147446105	2792.80004882813
824.870772539632	2821.39990234375
825.589307716775	2843
826.307752985404	2823.39990234375
827.026108353378	2847.19995117188
827.744373828579	2824.80004882813
828.462549418867	2828.60009765625
829.180635132107	2821.39990234375
829.898630976168	2842.80004882813
830.616536958915	2836.19995117188
831.334353088218	2863.19995117188
832.052079371938	2856.39990234375
832.769715817942	2852.80004882813
833.487262434092	2837.80004882813
834.204719228255	2837.39990234375
834.922086208293	2809
835.639363382073	2808.60009765625
836.356550757456	2817.80004882813
837.073648342304	2843
837.790656144484	2860.19995117188
838.507574171847	2829.60009765625
839.22440243227	2820.19995117188
839.941140933601	2814.19995117188
840.657789683706	2787.60009765625
841.374348690448	2821.60009765625
842.090817961686	2823.19995117188
842.807197505276	2808
843.523487329083	2813.39990234375
844.23968744096	2804.39990234375
844.955797848771	2781.80004882813
845.671818560374	2797.60009765625
846.387749583622	2816
847.103590926378	2779.19995117188
847.819342596497	2791
848.535004601833	2775.19995117188
849.25057695025	2771.39990234375
849.966059649598	2744.60009765625
850.681452707735	2746.39990234375
851.396756132513	2774.19995117188
852.111969931789	2797
852.827094113419	2819.80004882813
853.542128685257	2812
854.257073655158	2863.60009765625
854.971929030969	2866
855.686694820551	2835.19995117188
856.40137103175	2850
857.115957672423	2854.60009765625
857.830454750423	2844.39990234375
858.544862273597	2838
859.259180249797	2832.39990234375
859.97340868688	2854.80004882813
860.687547592688	2889.19995117188
861.401596975075	2868.60009765625
862.115556841891	2896.19995117188
862.829427200985	2897.80004882813
863.543208060205	2905.80004882813
864.256899427402	2858.39990234375
864.970501310423	2850.19995117188
865.684013717114	2823.39990234375
866.397436655325	2854.60009765625
867.110770132901	2849
867.824014157691	2821
868.537168737542	2829.19995117188
869.250233880299	2813.60009765625
869.963209593803	2839.39990234375
870.676095885902	2835.19995117188
871.388892764445	2816
872.101600237276	2830.60009765625
872.814218312233	2833.39990234375
873.526746997165	2843.80004882813
874.239186299914	2848.39990234375
874.951536228323	2866.60009765625
875.663796790231	2866
876.375967993487	2842
877.088049845928	2863.60009765625
877.8000423554	2824
878.511945529739	2795.80004882813
879.22375937679	2799
879.935483904388	2806.80004882813
880.64711912038	2803.39990234375
881.358665032604	2777.19995117188
882.070121648892	2785.80004882813
882.78148897709	2804
883.492767025039	2807
884.203955800571	2827.60009765625
884.915055311525	2827.80004882813
885.626065565741	2837.60009765625
886.336986571053	2818
887.047818335298	2801
887.758560866315	2787
888.469214171937	2820.80004882813
889.179778260005	2814.39990234375
889.890253138347	2807.60009765625
890.600638814803	2799
891.310935297204	2779
892.021142593385	2789.39990234375
892.731260711183	2819.60009765625
893.441289658429	2794.80004882813
894.15122944295	2795.19995117188
894.861080072591	2802.60009765625
895.570841555173	2835
896.280513898534	2832.19995117188
896.990097110503	2859.39990234375
897.699591198913	2865
898.408996171595	2878
899.118312036375	2871
899.827538801089	2872.80004882813
900.536676473561	2847.60009765625
901.245725061628	2856.80004882813
901.954684573109	2871.80004882813
902.663555015838	2906
903.372336397644	2917.39990234375
904.081028726351	2915
904.789632009793	2923.80004882813
905.49814625579	2938
906.20657147217	2936
906.914907666765	2916
907.623154847391	2903.60009765625
908.331313021885	2915.39990234375
909.039382198064	2920.19995117188
909.747362383754	2908.60009765625
910.455253586782	2900
911.163055814972	2905
911.870769076143	2927
912.578393378126	2885.60009765625
913.285928728738	2920.60009765625
913.993375135802	2902
914.700732607145	2892.39990234375
915.408001150579	2922
916.115180773937	2942.60009765625
916.822271485037	2938
917.529273291693	2901.80004882813
918.236186201733	2895.19995117188
918.943010222971	2894.80004882813
919.649745363234	2912
920.356391630333	2902.39990234375
921.062949032096	2895.80004882813
921.769417576333	2900.19995117188
922.475797270864	2921.19995117188
923.182088123512	2909.19995117188
923.888290142089	2924.80004882813
924.594403334414	2919.39990234375
925.300427708304	2937.60009765625
926.006363271572	2951.39990234375
926.712210032039	2936.39990234375
927.417967997522	2954.60009765625
928.123637175827	2955.39990234375
928.829217574776	2937
929.534709202184	2945.80004882813
930.240112065859	2935.80004882813
930.945426173621	2932.19995117188
931.650651533283	2897.60009765625
932.355788152653	2914.60009765625
933.060836039547	2927.60009765625
933.765795201776	2922
934.470665647153	2879.80004882813
935.175447383492	2907.80004882813
935.880140418599	2885.80004882813
936.584744760286	2888
937.289260416366	2925
937.993687394647	2925
938.698025702939	2979.19995117188
939.402275349051	2997.60009765625
940.106436340793	2998
940.810508685976	3004.60009765625
941.5144923924	2993.60009765625
942.21838746788	2976.39990234375
942.922193920223	2959.19995117188
943.625911757231	2948.60009765625
944.329540986716	2915.39990234375
945.033081616484	2880.19995117188
945.736533654334	2873.19995117188
946.439897108083	2886
947.143171985529	2906.39990234375
947.846358294477	2882.19995117188
948.549456042732	2904.80004882813
949.2524652381	2903
949.955385888382	2943.39990234375
950.658218001384	2930.39990234375
951.360961584907	2942.39990234375
952.063616646755	2957.39990234375
952.766183194733	2942.39990234375
953.468661236636	2942.39990234375
954.171050780271	2920.80004882813
954.873351833437	2922.39990234375
955.575564403935	2877.60009765625
956.277688499565	2890.39990234375
956.97972412813	2900.60009765625
957.681671297424	2872.19995117188
958.383530015255	2896.60009765625
959.085300289414	2877
959.786982127703	2876
960.488575537918	2899.19995117188
961.190080527859	2897.80004882813
961.891497105327	2887.39990234375
962.592825278111	2877.60009765625
963.294065054012	2896
963.995216440829	2918
964.696279446353	2918.60009765625
965.397254078383	2925
966.098140344714	2936.19995117188
966.798938253139	2934.80004882813
967.499647811456	2935.80004882813
968.200269027458	2917.80004882813
968.900801908937	2895.60009765625
969.601246463685	2888.60009765625
970.3016026995	2868.80004882813
971.001870624169	2853.19995117188
971.702050245491	2824
972.402141571249	2845
973.102144609245	2840.39990234375
973.802059367267	2850.80004882813
974.501885853103	2863
975.201624074541	2898.19995117188
975.901274039379	2938
976.600835755399	2933
977.3003092304	2953.60009765625
977.999694472158	2932.60009765625
978.698991488473	2940.60009765625
979.39820028713	2940
980.097320875915	2936.80004882813
980.796353262618	2939.19995117188
981.495297455024	2939.80004882813
982.194153460919	2968.39990234375
982.892921288093	2971.80004882813
983.591600944331	2972.19995117188
984.290192437419	2971.60009765625
984.98869577514	2952.39990234375
985.687110965282	2916.60009765625
986.385438015629	2928.39990234375
987.083676933961	2907.80004882813
987.781827728069	2899.39990234375
988.479890405732	2907.19995117188
989.177864974732	2885.39990234375
989.875751442857	2899.60009765625
990.573549817888	2919.80004882813
991.271260107602	2954.39990234375
991.968882319786	2927
992.666416462217	2900.60009765625
993.363862542681	2884.19995117188
994.061220568959	2884.39990234375
994.758490548823	2855.39990234375
995.455672490061	2900.80004882813
996.152766400451	2921.39990234375
996.849772287773	2901.60009765625
997.5466901598	2938.60009765625
998.243520024317	2928.19995117188
998.940261889097	2919.60009765625
999.636915761923	2888.19995117188
1000.33348165057	2878.39990234375
1001.02995956281	2867.19995117188
1001.72634950643	2862.39990234375
1002.42265148919	2898.39990234375
1003.11886551889	2908.39990234375
1003.81499160328	2927.39990234375
1004.51102975015	2930.80004882813
1005.20697996727	2934.19995117188
1005.90284226242	2931
1006.59861664337	2937.80004882813
1007.2943031179	2966
1007.98990169377	2979.19995117188
1008.68541237876	2999.39990234375
1009.38083518064	3033.60009765625
1010.07617010719	3035.80004882813
1010.77141716617	3033.19995117188
1011.46657636536	3047
1012.16164771253	3002.19995117188
1012.85663121546	2984
1013.5515268819	2945.80004882813
1014.24633471963	2940.60009765625
1014.94105473642	2936.60009765625
1015.63568694004	2949.60009765625
1016.33023133826	2959.39990234375
1017.02468793885	2967.19995117188
1017.71905674957	2961
1018.41333777819	2970
1019.10753103249	2939.39990234375
1019.80163652022	2975
1020.49565424916	2971
1021.18958422707	2958.80004882813
1021.88342646171	2977.19995117188
1022.57718096085	2973
1023.27084773227	2977.19995117188
1023.96442678371	2956.19995117188
1024.65791812296	2931.19995117188
1025.35132175776	2897.19995117188
1026.04463769589	2890.19995117188
1026.73786594511	2903.60009765625
1027.43100651318	2873.19995117188
1028.12405940786	2873.19995117188
1028.81702463692	2893
1029.50990220812	2899
1030.20269212921	2911.19995117188
1030.89539440798	2896.60009765625
1031.58800905216	2874.60009765625
1032.28053606952	2870.19995117188
1032.97297546784	2842.60009765625
1033.66532725485	2862
1034.35759143832	2865.39990234375
1035.04976802602	2926.60009765625
1035.7418570257	2927.80004882813
1036.43385844511	2943.39990234375
1037.12577229202	2920.39990234375
1037.81759857419	2928.39990234375
1038.50933729937	2951.60009765625
1039.20098847531	2962.60009765625
1039.89255210978	2969.39990234375
1040.58402821053	2952.19995117188
1041.27541678532	2949.80004882813
1041.96671784191	2919
1042.65793138804	2925.19995117188
1043.34905743147	2922.60009765625
1044.04009597996	2952.80004882813
1044.73104704125	2944.19995117188
1045.42191062312	2971.19995117188
1046.1126867333	2987
1046.80337537955	2979
1047.49397656962	2961.19995117188
1048.18449031127	2964.80004882813
1048.87491661225	2935.60009765625
1049.5652554803	2917.60009765625
1050.25550692319	2905
1050.94567094865	2861.80004882813
1051.63574756444	2891.80004882813
1052.32573677832	2943.39990234375
1053.01563859803	2957
1053.70545303131	2932.39990234375
1054.39518008592	2931.19995117188
1055.08481976961	2932.19995117188
1055.77437209013	2941
1056.46383705522	2933.60009765625
1057.15321467262	2931.39990234375
1057.8425049501	2930.80004882813
1058.53170789539	2924.39990234375
1059.22082351624	2926.60009765625
1059.9098518204	2890.80004882813
1060.59879281561	2885.19995117188
1061.28764650962	2914
1061.97641291016	2925.60009765625
1062.665092025	2931.39990234375
1063.35368386187	2917.80004882813
1064.04218842851	2918.39990234375
1064.73060573268	2906.60009765625
1065.4189357821	2901.19995117188
1066.10717858452	2873.19995117188
1066.7953341477	2888.19995117188
1067.48340247936	2884.60009765625
1068.17138358725	2884.19995117188
1068.85927747912	2904.60009765625
1069.5470841627	2919.60009765625
1070.23480364573	2946
1070.92243593595	2973
1071.60998104111	2967.19995117188
1072.29743896894	2966.19995117188
1072.98480972718	2967.60009765625
1073.67209332357	2974
1074.35928976585	2935.80004882813
1075.04639906176	2975.60009765625
1075.73342121903	3004.19995117188
1076.42035624541	3007.80004882813
1077.10720414862	3015
1077.79396493641	3019.80004882813
1078.48063861651	3020
1079.16722519666	3004.60009765625
1079.85372468459	2977
1080.54013708804	2986
1081.22646241474	2955.80004882813
1081.91270067243	2952.39990234375
1082.59885186884	2984
1083.28491601171	2990.39990234375
1083.97089310877	3006.39990234375
1084.65678316774	3017.60009765625
1085.34258619637	3029.19995117188
1086.02830220239	3021
1086.71393119352	3022.80004882813
1087.39947317751	3023.19995117188
1088.08492816207	3012.60009765625
1088.77029615495	3039.19995117188
1089.45557716387	3050.19995117188
1090.14077119656	3043.19995117188
1090.82587826075	3030.39990234375
1091.51089836417	3028.19995117188
1092.19583151456	3011.80004882813
1092.88067771963	2979.39990234375
1093.56543698712	2985.60009765625
1094.25010932475	2951
1094.93469474026	2949
1095.61919324137	2968.19995117188
1096.3036048358	2971.60009765625
1096.98792953129	2960
1097.67216733555	2993
1098.35631825632	2996.39990234375
1099.04038230132	2993.60009765625
1099.72435947828	2996
1100.40824979492	2958.80004882813
1101.09205325895	2942
1101.77576987812	2883.60009765625
1102.45939966014	2895.39990234375
1103.14294261273	2880.60009765625
1103.82639874362	2871.39990234375
1104.50976806054	2875.39990234375
1105.19305057119	2907.80004882813
1105.87624628331	2943.60009765625
1106.55935520461	2995
1107.24237734283	3030.19995117188
1107.92531270566	3037.60009765625
1108.60816130085	3028.39990234375
1109.2909231361	3015
1109.97359821914	3070.60009765625
1110.65618655768	3084.60009765625
1111.33868815946	3121
1112.02110303217	3121.80004882813
1112.70343118355	3092.19995117188
1113.3856726213	3104.19995117188
1114.06782735316	3095.60009765625
1114.74989538683	3051
1115.43187673002	3009.19995117188
1116.11377139047	2997
1116.79557937588	3006.19995117188
1117.47730069397	3026.80004882813
1118.15893535245	3077
1118.84048335904	3086.80004882813
1119.52194472146	3074.19995117188
1120.20331944741	3076.80004882813
1120.88460754462	3088.60009765625
1121.56580902079	3060
1122.24692388364	3085.19995117188
1122.92795214088	3089.39990234375
1123.60889380022	3104.39990234375
1124.28974886938	3167.60009765625
1124.97051735606	3176.39990234375
1125.65119926799	3167.80004882813
1126.33179461286	3161.39990234375
1127.0123033984	3153.39990234375
1127.6927256323	3145.19995117188
1128.37306132229	3156.19995117188
1129.05331047606	3153
1129.73347310134	3129.60009765625
1130.41354920582	3128.39990234375
1131.09353879722	3103.19995117188
1131.77344188324	3074.39990234375
1132.45325847159	3075.19995117188
1133.13298856999	3077
1133.81263218612	3093.39990234375
1134.49218932772	3078.19995117188
1135.17166000247	3098.80004882813
1135.85104421809	3072.60009765625
1136.53034198227	3069.80004882813
1137.20955330274	3026.80004882813
1137.88867818718	3021.60009765625
1138.56771664331	2998.39990234375
1139.24666867883	3053
1139.92553430144	3054
1140.60431351885	3076.60009765625
1141.28300633876	3088
1141.96161276887	3125.19995117188
1142.64013281689	3092.39990234375
1143.31856649051	3112
1143.99691379744	3094.19995117188
1144.67517474538	3092.39990234375
1145.35334934203	3078.39990234375
1146.03143759509	3058.60009765625
1146.70943951226	3023.80004882813
1147.38735510125	3016.39990234375
1148.06518436974	3019
1148.74292732545	3010.39990234375
1149.42058397606	2998.60009765625
1150.09815432928	2986.60009765625
1150.7756383928	3018.60009765625
1151.45303617432	3025.80004882813
1152.13034768155	3046
1152.80757292217	3122
1153.48471190389	3148
1154.16176463439	3141.19995117188
1154.83873112138	3101.60009765625
1155.51561137255	3072
1156.1924053956	3096.39990234375
1156.86911319822	3116
1157.5457347881	3101.39990234375
1158.22227017294	3118.39990234375
1158.89871936044	3081.39990234375
1159.57508235828	3067.19995117188
1160.25135917416	3095.60009765625
1160.92754981578	3058.19995117188
1161.60365429081	3074.19995117188
1162.27967260697	3061.60009765625
1162.95560477193	3083.80004882813
1163.63145079339	3063.60009765625
1164.30721067904	3072
1164.98288443657	3070
1165.65847207367	3098.60009765625
1166.33397359803	3089
1167.00938901735	3086
1167.6847183393	3113.19995117188
1168.35996157157	3134.60009765625
1169.03511872187	3137.80004882813
1169.71018979787	3120.60009765625
1170.38517480726	3115.80004882813
1171.06007375773	3120.80004882813
1171.73488665696	3061.60009765625
1172.40961351265	3041.39990234375
1173.08425433247	3011.39990234375
1173.75880912412	3038.60009765625
1174.43327789528	3079
1175.10766065364	3123.80004882813
1175.78195740687	3127.39990234375
1176.45616816267	3136.60009765625
1177.13029292871	3137.39990234375
1177.80433171269	3127.39990234375
1178.47828452229	3115.60009765625
1179.15215136518	3130
1179.82593224905	3151.60009765625
1180.49962718159	3174
1181.17323617047	3194.39990234375
1181.84675922337	3191.80004882813
1182.52019634799	3230
1183.193547552	3223.39990234375
1183.86681284307	3218.60009765625
1184.53999222889	3190.19995117188
1185.21308571714	3195
1185.8860933155	3183.60009765625
1186.55901503165	3196.19995117188
1187.23185087326	3165.39990234375
1187.90460084802	3185.80004882813
1188.5772649636	3168.39990234375
1189.24984322768	3179.80004882813
1189.92233564794	3208.80004882813
1190.59474223206	3199.19995117188
1191.2670629877	3242.19995117188
1191.93929792255	3236.80004882813
1192.61144704428	3214.60009765625
1193.28351036058	3234
1193.9554878791	3195.39990234375
1194.62737960754	3181.80004882813
1195.29918555356	3165.80004882813
1195.97090572483	3168.39990234375
1196.64254012903	3214.19995117188
1197.31408877384	3208.60009765625
1197.98555166693	3205
1198.65692881596	3199
1199.32822022862	3198.60009765625
1199.99942591256	3171.19995117188
1200.67054587548	3139.39990234375
1201.34158012503	3129
1202.01252866889	3110.80004882813
1202.68339151473	3087.39990234375
1203.35416867021	3095.60009765625
1204.02486014301	3111.19995117188
1204.6954659408	3098.39990234375
1205.36598607124	3139
1206.03642054201	3172.39990234375
1206.70676936078	3164
1207.3770325352	3198.19995117188
1208.04721007295	3146.19995117188
1208.7173019817	3139.60009765625
1209.38730826911	3139.39990234375
1210.05722894285	3114.39990234375
1210.72706401059	3096
1211.39681347999	3122
1212.06647735872	3111.60009765625
1212.73605565444	3107
1213.40554837481	3129.80004882813
1214.07495552751	3099.39990234375
1214.74427712019	3114.80004882813
1215.41351316052	3129.80004882813
1216.08266365617	3136.60009765625
1216.75172861479	3122.60009765625
1217.42070804405	3098.60009765625
1218.0896019516	3105.19995117188
1218.75841034513	3107.80004882813
1219.42713323227	3148.60009765625
1220.0957706207	3182
1220.76432251808	3173.80004882813
1221.43278893207	3164.80004882813
1222.10116987032	3181.80004882813
1222.7694653405	3217.60009765625
1223.43767535026	3208.19995117188
1224.10579990727	3210.39990234375
1224.77383901918	3178
1225.44179269366	3162.80004882813
1226.10966093835	3151.60009765625
1226.77744376093	3157.39990234375
1227.44514116904	3154.80004882813
1228.11275317034	3164.39990234375
1228.78027977249	3168.60009765625
1229.44772098315	3141.60009765625
1230.11507680996	3143
1230.7823472606	3139.60009765625
1231.44953234271	3126
1232.11663206394	3093.39990234375
1232.78364643195	3106
1233.4505754544	3118
1234.11741913894	3075.39990234375
1234.78417749322	3114.80004882813
1235.45085052489	3124.60009765625
1236.11743824162	3086.80004882813
1236.78394065104	3087
1237.45035776082	3077.80004882813
1238.1166895786	3090.60009765625
1238.78293611204	3114.80004882813
1239.44909736878	3135.60009765625
1240.11517335648	3113.60009765625
1240.78116408279	3157.60009765625
1241.44706955535	3151.80004882813
1242.11288978182	3143.80004882813
1242.77862476985	3108.60009765625
1243.44427452708	3085.39990234375
1244.10983906116	3088.60009765625
1244.77531837974	3106
1245.44071249047	3100.39990234375
1246.106021401	3137.60009765625
1246.77124511898	3131.19995117188
1247.43638365204	3147.19995117188
1248.10143700783	3162.60009765625
1248.76640519401	3123
1249.43128821822	3126
1250.0960860881	3151
1250.76079881129	3168.19995117188
1251.42542639545	3161.60009765625
1252.08996884822	3109.80004882813
1252.75442617723	3090
1253.41879839014	3112.60009765625
1254.08308549458	3152.19995117188
1254.74728749821	3185
1255.41140440866	3180
1256.07543623357	3128.60009765625
1256.73938298059	3141.60009765625
1257.40324465735	3127.39990234375
1258.0670212715	3102.60009765625
1258.73071283068	3121.19995117188
1259.39431934253	3115.39990234375
1260.05784081468	3135.39990234375
1260.72127725479	3115.39990234375
1261.38462867049	3120
1262.0478950694	3123.19995117188
1262.71107645919	3111.39990234375
1263.37417284748	3101.80004882813
1264.03718424191	3146.39990234375
1264.70011065011	3111.60009765625
1265.36295207974	3155.80004882813
1266.02570853841	3151
1266.68838003378	3147.80004882813
1267.35096657346	3099.80004882813
1268.01346816511	3126
1268.67588481636	3104.39990234375
1269.33821653483	3091
1270.00046332817	3110
1270.66262520401	3165.19995117188
1271.32470216998	3147.60009765625
1271.98669423372	3114.39990234375
1272.64860140285	3083.19995117188
1273.31042368503	3068.19995117188
1273.97216108786	3071.19995117188
1274.633813619	3116.39990234375
1275.29538128606	3162.19995117188
1275.95686409669	3152
1276.6182620585	3126.39990234375
1277.27957517914	3142.19995117188
1277.94080346624	3118
1278.60194692741	3147
1279.2630055703	3155.19995117188
1279.92397940253	3210.19995117188
1280.58486843173	3174
1281.24567266552	3154
1281.90639211155	3123.19995117188
1282.56702677743	3117
1283.2275766708	3123
1283.88804179927	3113.19995117188
1284.54842217049	3069.19995117188
1285.20871779206	3075.39990234375
1285.86892867163	3102.80004882813
1286.52905481681	3142.60009765625
1287.18909623523	3182
1287.84905293452	3165
1288.5089249223	3198.19995117188
1289.16871220619	3194.39990234375
1289.82841479383	3207.39990234375
1290.48803269282	3231.60009765625
1291.1475659108	3178.80004882813
1291.80701445539	3127.19995117188
1292.46637833421	3073
1293.12565755489	3054
1293.78485212504	3052.39990234375
1294.44396205229	3056
1295.10298734425	3042
1295.76192800856	3080.39990234375
1296.42078405283	3031.39990234375
1297.07955548467	3045.19995117188
1297.73824231171	3076.80004882813
1298.39684454158	3085.19995117188
1299.05536218188	3128.80004882813
1299.71379524023	3139
1300.37214372427	3129.80004882813
1301.03040764159	3079.39990234375
1301.68858699983	3093.19995117188
1302.34668180659	3113.60009765625
1303.0046920695	3143.39990234375
1303.66261779617	3147.39990234375
1304.32045899422	3188.19995117188
1304.97821567126	3178.39990234375
1305.63588783492	3162.80004882813
1306.29347549279	3154.19995117188
1306.95097865251	3188
1307.60839732168	3184.19995117188
1308.26573150791	3194.19995117188
1308.92298121883	3229.80004882813
1309.58014646204	3207.80004882813
1310.23722724517	3198.39990234375
1310.89422357581	3194
1311.55113546158	3203
1312.2079629101	3197.39990234375
1312.86470592898	3236.19995117188
1313.52136452582	3261.39990234375
1314.17793870824	3267
1314.83442848386	3269.60009765625
1315.49083386027	3284.80004882813
1316.14715484509	3265.39990234375
1316.80339144594	3297.19995117188
1317.45954367041	3297
1318.11561152611	3276.19995117188
1318.77159502067	3276.39990234375
1319.42749416168	3268.19995117188
1320.08330895674	3246.80004882813
1320.73903941348	3240.39990234375
1321.3946855395	3207.39990234375
1322.0502473424	3209.80004882813
1322.70572482978	3194.39990234375
1323.36111800926	3185.60009765625
1324.01642688845	3199.19995117188
1324.67165147494	3220.60009765625
1325.32679177634	3250.19995117188
1325.98184780025	3248
1326.63681955429	3209.19995117188
1327.29170704605	3206.19995117188
1327.94651028314	3164
1328.60122927316	3166.80004882813
1329.25586402371	3148.80004882813
1329.9104145424	3156.60009765625
1330.56488083683	3130.19995117188
1331.2192629146	3121.39990234375
1331.87356078331	3152.39990234375
1332.52777445056	3193
1333.18190392395	3160.19995117188
1333.83594921109	3172.19995117188
1334.48991031958	3139.60009765625
1335.143787257	3154.39990234375
1335.79758003097	3123.19995117188
1336.45128864908	3137
1337.10491311893	3149
1337.75845344813	3171.80004882813
1338.41190964425	3162
1339.06528171491	3160.60009765625
1339.71856966771	3142.60009765625
1340.37177351023	3121.19995117188
1341.02489325007	3097.80004882813
1341.67792889484	3045.60009765625
1342.33088045212	3037
1342.98374792952	3012.60009765625
1343.63653133462	3036
1344.28923067503	3050
1344.94184595833	3066
1345.59437719212	3100.39990234375
1346.246824384	3145.60009765625
1346.89918754155	3136.19995117188
1347.55146667238	3174.60009765625
1348.20366178407	3173.39990234375
1348.85577288421	3180
1349.50779998041	3184.60009765625
1350.15974308024	3158.60009765625
1350.8116021913	3200.19995117188
1351.46337732119	3174.19995117188
1352.11506847748	3165.60009765625
1352.76667566778	3204.39990234375
1353.41819889967	3222.39990234375
1354.06963818074	3236.60009765625
1354.72099351858	3224.80004882813
1355.37226492079	3245.60009765625
1356.02345239494	3289.80004882813
1356.67455594862	3297.39990234375
1357.32557558943	3372.39990234375
1357.97651132496	3420.60009765625
1358.62736316277	3434.19995117188
1359.27813111048	3434.80004882813
1359.92881517565	3473.19995117188
1360.57941536589	3515.19995117188
1361.22993168876	3512.19995117188
1361.88036415186	3550.60009765625
1362.53071276278	3555.80004882813
1363.1809775291	3595.60009765625
1363.8311584584	3607.60009765625
1364.48125555826	3593.80004882813
1365.13126883627	3513
1365.78119830001	3433.39990234375
1366.43104395707	3426.39990234375
1367.08080581503	3378
1367.73048388147	3350.60009765625
1368.38007816397	3352.80004882813
1369.02958867011	3328.60009765625
1369.67901540748	3332.80004882813
1370.32835838365	3344.60009765625
1370.9776176062	3316.80004882813
1371.62679308273	3315.60009765625
1372.27588482079	3338.80004882813
1372.92489282798	3368.80004882813
1373.57381711188	3350.39990234375
1374.22265768006	3274.60009765625
1374.87141454009	3269.80004882813
1375.52008769957	3288.39990234375
1376.16867716606	3283.60009765625
1376.81718294715	3270.39990234375
1377.4656050504	3263.39990234375
1378.1139434834	3274.39990234375
1378.76219825373	3289.60009765625
1379.41036936895	3276.60009765625
1380.05845683664	3255.39990234375
1380.70646066439	3213.19995117188
1381.35438085976	3251.60009765625
1382.00221743032	3241.60009765625
1382.64997038366	3249.80004882813
1383.29763972735	3271.60009765625
1383.94522546895	3265.19995117188
1384.59272761605	3285.19995117188
1385.24014617621	3269.60009765625
1385.88748115701	3281.60009765625
1386.53473256602	3251.19995117188
1387.18190041081	3234.19995117188
1387.82898469895	3242.19995117188
1388.47598543802	3218.39990234375
1389.12290263558	3204.60009765625
1389.7697362992	3191
1390.41648643646	3169
1391.06315305492	3122.80004882813
1391.70973616215	3117
1392.35623576573	3095.19995117188
1393.00265187321	3109.60009765625
1393.64898449217	3119.19995117188
1394.29523363018	3142.80004882813
1394.94139929481	3125.80004882813
1395.58748149361	3105.60009765625
1396.23348023415	3070.39990234375
1396.87939552402	3058.80004882813
1397.52522737076	3033.60009765625
1398.17097578195	2976.60009765625
1398.81664076514	2954.60009765625
1399.46222232792	2950.60009765625
1400.10772047783	2924.39990234375
1400.75313522245	2972.60009765625
1401.39846656934	3021.60009765625
1402.04371452605	3037
1402.68887910016	3078
1403.33396029924	3026
1403.97895813083	3107.80004882813
1404.6238726025	3127.19995117188
1405.26870372182	3142
1405.91345149634	3128.39990234375
1406.55811593363	3109.39990234375
1407.20269704125	3097.60009765625
1407.84719482676	3076.39990234375
1408.49160929772	3084
1409.13594046168	3074.80004882813
1409.78018832622	3087.80004882813
1410.42435289887	3084.80004882813
1411.06843418722	3085.60009765625
1411.7124321988	3090
1412.3563469412	3116.19995117188
1413.00017842194	3139.39990234375
1413.64392664861	3184
1414.28759162875	3209.80004882813
1414.93117336992	3177.19995117188
1415.57467187967	3165.19995117188
1416.21808716557	3175.39990234375
1416.86141923516	3203
1417.50466809601	3199
1418.14783375567	3177.60009765625
1418.79091622169	3169.60009765625
1419.43391550162	3185.60009765625
1420.07683160303	3184.19995117188
1420.71966453346	3165.80004882813
1421.36241430046	3184.19995117188
1422.0050809116	3171.39990234375
1422.64766437442	3212.80004882813
1423.29016469647	3251.80004882813
1423.93258188531	3240
1424.57491594848	3231
1425.21716689354	3239.80004882813
1425.85933472805	3218
1426.50141945954	3176.39990234375
1427.14342109557	3187.39990234375
1427.78533964369	3174.80004882813
1428.42717511144	3174.19995117188
1429.06892750639	3160.80004882813
1429.71059683607	3142
1430.35218310803	3122.19995117188
1430.99368632983	3116
1431.635106509	3166
1432.2764436531	3196.80004882813
1432.91769776967	3196.60009765625
1433.55886886627	3188
1434.19995695043	3205.39990234375
1434.84096202969	3193.60009765625
1435.48188411162	3147.19995117188
1436.12272320375	3163.19995117188
1436.76347931363	3168.39990234375
1437.40415244879	3192.80004882813
1438.0447426168	3188.60009765625
1438.68524982518	3201.60009765625
1439.32567408148	3177.60009765625
1439.96601539325	3165.19995117188
1440.60627376803	3156.60009765625
1441.24644921336	3178.19995117188
1441.88654173678	3120.60009765625
1442.52655134583	3146.39990234375
1443.16647804806	3110.80004882813
1443.806321851	3134.39990234375
1444.4460827622	3165.39990234375
1445.0857607892	3160
1445.72535593953	3118
1446.36486822074	3133.60009765625
1447.00429764037	3123.39990234375
1447.64364420595	3143.80004882813
1448.28290792502	3122.60009765625
1448.92208880512	3147.19995117188
1449.56118685379	3174.19995117188
1450.20020207857	3142.19995117188
1450.83913448699	3161
1451.47798408659	3184.39990234375
1452.1167508849	3183.39990234375
1452.75543488947	3182.39990234375
1453.39403610782	3166.60009765625
1454.0325545475	3142.60009765625
1454.67099021603	3166.19995117188
1455.30934312097	3172.80004882813
1455.94761326982	3185.60009765625
1456.58580067014	3184.60009765625
1457.22390532945	3165
1457.86192725529	3147.60009765625
1458.49986645519	3148
1459.13772293668	3154.19995117188
1459.7754967073	3125.60009765625
1460.41318777457	3133
1461.05079614604	3118
1461.68832182922	3105.39990234375
1462.32576483166	3120.80004882813
1462.96312516087	3095.19995117188
1463.6004028244	3117.80004882813
1464.23759782977	3123.19995117188
1464.8747101845	3143.39990234375
1465.51173989614	3180.60009765625
1466.14868697221	3114.80004882813
1466.78555142024	3144.60009765625
1467.42233324774	3138.39990234375
1468.05903246227	3162.80004882813
1468.69564907133	3148.80004882813
1469.33218308246	3141.60009765625
1469.96863450317	3103.60009765625
1470.60500334102	3150.60009765625
1471.2412896035	3168.19995117188
1471.87749329816	3174.60009765625
1472.51361443251	3189.39990234375
1473.14965301409	3207.80004882813
1473.78560905041	3191
1474.421482549	3190.39990234375
1475.05727351739	3203
1475.69298196309	3212.80004882813
1476.32860789364	3195.39990234375
1476.96415131654	3167
1477.59961223934	3157.80004882813
1478.23499066954	3124.80004882813
1478.87028661467	3124.80004882813
1479.50550008226	3124
1480.14063107981	3113.39990234375
1480.77567961486	3120
1481.41064569492	3061.19995117188
1482.04552932752	3054.80004882813
1482.68033052017	3063.80004882813
1483.31504928039	3092.39990234375
1483.9496856157	3106.80004882813
1484.58423953363	3128.19995117188
1485.21871104168	3128.80004882813
1485.85310014738	3138.19995117188
1486.48740685824	3100
1487.12163118178	3081.19995117188
1487.75577312553	3081.80004882813
1488.38983269698	3105.19995117188
1489.02380990367	3102.80004882813
1489.65770475311	3099
1490.29151725281	3137.60009765625
1490.92524741029	3153.19995117188
1491.55889523306	3145.80004882813
1492.19246072863	3176
1492.82594390453	3189.19995117188
1493.45934476826	3248.80004882813
1494.09266332734	3232.19995117188
1494.72589958928	3207.80004882813
1495.3590535616	3243.39990234375
1495.99212525181	3228
1496.62511466741	3241.60009765625
1497.25802181592	3205.80004882813
1497.89084670485	3200.60009765625
1498.52358934172	3243.19995117188
1499.15624973403	3230.19995117188
1499.7888278893	3250.19995117188
1500.42132381503	3265.19995117188
1501.05373751873	3280.19995117188
1501.68606900792	3310.60009765625
1502.31831829009	3324.80004882813
1502.95048537277	3359.80004882813
1503.58257026346	3354.80004882813
1504.21457296966	3375.80004882813
1504.84649349889	3381.19995117188
1505.47833185864	3434.19995117188
1506.11008805644	3414.60009765625
1506.74176209978	3393.80004882813
1507.37335399617	3376.39990234375
1508.00486375312	3385.39990234375
1508.63629137813	3354
1509.2676368787	3359.60009765625
1509.89890026235	3369.39990234375
1510.53008153658	3382.60009765625
1511.16118070889	3405.80004882813
1511.79219778677	3428.39990234375
1512.42313277775	3421.60009765625
1513.05398568932	3433.19995117188
1513.68475652898	3434.80004882813
1514.31544530424	3403.19995117188
1514.9460520226	3368.60009765625
1515.57657669155	3311.19995117188
1516.20701931861	3276.80004882813
1516.83737991127	3262.19995117188
1517.46765847702	3254
1518.09785502339	3272
1518.72796955785	3304
1519.35800208792	3326.80004882813
1519.98795262109	3276
1520.61782116486	3291.19995117188
1521.24760772673	3271.60009765625
1521.87731231419	3260.39990234375
1522.50693493475	3259.39990234375
1523.1364755959	3224
1523.76593430514	3222.80004882813
1524.39531106997	3214.60009765625
1525.02460589788	3221.60009765625
1525.65381879637	3241
1526.28294977293	3212.39990234375
1526.91199883507	3156.60009765625
1527.54096599027	3133.60009765625
1528.16985124603	3106.80004882813
1528.79865460984	3105
1529.4273760892	3103.80004882813
1530.05601569161	3109.80004882813
1530.68457342455	3131.80004882813
1531.31304929552	3152.39990234375
1531.94144331201	3185.19995117188
1532.56975548151	3189
1533.19798581152	3179.60009765625
1533.82613430953	3212
1534.45420098302	3196.80004882813
1535.08218583949	3206
1535.71008888643	3170.19995117188
1536.33791013134	3151.39990234375
1536.96564958169	3165.19995117188
1537.59330724498	3167.39990234375
1538.22088312871	3170.80004882813
1538.84837724034	3119.39990234375
1539.47578958739	3111.39990234375
1540.10312017733	3086.19995117188
1540.73036901765	3085.19995117188
1541.35753611584	3087
1541.98462147939	3119
1542.61162511578	3113.39990234375
1543.2385470325	3142.60009765625
1543.86538723704	3134.39990234375
1544.49214573688	3152.80004882813
1545.11882253951	3141.60009765625
1545.74541765241	3178.39990234375
1546.37193108306	3171.19995117188
1546.99836283896	3161.80004882813
1547.62471292758	3169.60009765625
1548.25098135641	3157.60009765625
1548.87716813294	3165.80004882813
1549.50327326464	3158.19995117188
1550.12929675899	3150.60009765625
1550.75523862349	3139.39990234375
1551.38109886561	3159.39990234375
1552.00687749284	3132.80004882813
1552.63257451264	3147
1553.25818993252	3115.39990234375
1553.88372375994	3096.60009765625
1554.50917600239	3087
1555.13454666734	3050.19995117188
1555.75983576228	3075.60009765625
1556.38504329469	3085.60009765625
1557.01016927204	3093.39990234375
1557.63521370181	3074.19995117188
1558.26017659149	3084
1558.88505794854	3106.39990234375
1559.50985778045	3139
1560.13457609469	3166.19995117188
1560.75921289874	3155.39990234375
1561.38376820008	3140.39990234375
1562.00824200618	3122.19995117188
1562.63263432452	3120.19995117188
1563.25694516257	3140.39990234375
1563.88117452781	3127.19995117188
1564.50532242772	3123.60009765625
1565.12938886976	3105
1565.75337386141	3116
1566.37727741015	3143.39990234375
1567.00109952345	3172
1567.62484020878	3206.39990234375
1568.24849947361	3207.39990234375
1568.87207732542	3229.80004882813
1569.49557377168	3254.80004882813
1570.11898881986	3248.60009765625
1570.74232247743	3236.60009765625
1571.36557475186	3236.39990234375
1571.98874565062	3252.19995117188
1572.61183518119	3276.60009765625
1573.23484335103	3305.60009765625
1573.85777016761	3368
1574.4806156384	3355
1575.10337977088	3368.39990234375
1575.7260625725	3334
1576.34866405074	3335.19995117188
1576.97118421306	3276.39990234375
1577.59362306694	3296.39990234375
1578.21598061984	3289.80004882813
1578.83825687922	3286.60009765625
1579.46045185255	3279.39990234375
1580.08256554731	3268.60009765625
1580.70459797094	3225.19995117188
1581.32654913093	3200.39990234375
1581.94841903473	3194.80004882813
1582.57020768981	3177
1583.19191510364	3123.39990234375
1583.81354128367	3105.39990234375
1584.43508623737	3118.19995117188
1585.05654997221	3119.19995117188
1585.67793249564	3116.60009765625
1586.29923381514	3102.80004882813
1586.92045393815	3071.80004882813
1587.54159287216	3098.80004882813
1588.1626506246	3112.80004882813
1588.78362720296	3098.80004882813
1589.40452261468	3077.39990234375
1590.02533686724	3051.39990234375
1590.64606996808	3066.19995117188
1591.26672192467	3019
1591.88729274447	3022.39990234375
1592.50778243493	3016.39990234375
1593.12819100352	2985
1593.7485184577	2966.80004882813
1594.36876480492	2986
1594.98893005264	2991.60009765625
1595.60901420832	2964.19995117188
1596.22901727941	2973.60009765625
1596.84893927338	3013.39990234375
1597.46878019767	3040.19995117188
1598.08854005975	3018.80004882813
1598.70821886707	3048.80004882813
1599.32781662708	3076.80004882813
1599.94733334725	3077.39990234375
1600.56676903502	3035.80004882813
1601.18612369785	3055.19995117188
1601.8053973432	3020.19995117188
1602.42458997851	2962.80004882813
1603.04370161124	2953.19995117188
1603.66273224884	2953.60009765625
1604.28168189878	2938.39990234375
1604.90055056849	2926.80004882813
1605.51933826543	2941.60009765625
1606.13804499705	2917
1606.75667077081	2916.39990234375
1607.37521559415	2951.60009765625
1607.99367947452	2988
1608.61206241938	2972.60009765625
1609.23036443618	2959
1609.84858553236	2940.60009765625
1610.46672571537	2966
1611.08478499267	2988.39990234375
1611.7027633717	3003.60009765625
1612.3206608599	3012.19995117188
1612.93847746473	2994
1613.55621319364	2981.39990234375
1614.17386805407	2953.19995117188
1614.79144205347	2919
1615.40893519928	2897.80004882813
1616.02634749895	2872.60009765625
1616.64367895993	2851
1617.26092958966	2851.19995117188
1617.87809939559	2863.60009765625
1618.49518838516	2891.19995117188
1619.11219656582	2907
1619.729123945	2900.19995117188
1620.34597053016	2894.19995117188
1620.96273632874	2922
1621.57942134818	2892.80004882813
1622.19602559592	2904.60009765625
1622.8125490794	2915.39990234375
1623.42899180607	2925
1624.04535378337	2901.60009765625
1624.66163501874	2935.39990234375
1625.27783551963	2959.39990234375
1625.89395529346	2912.60009765625
1626.50999434768	2911.60009765625
1627.12595268974	2870.19995117188
1627.74183032707	2880.60009765625
1628.3576272671	2863.39990234375
1628.97334351729	2849.39990234375
1629.58897908506	2833.39990234375
1630.20453397786	2812
1630.82000820313	2829.80004882813
1631.43540176829	2840.60009765625
1632.05071468079	2854.80004882813
1632.66594694807	2814.39990234375
1633.28109857756	2848.39990234375
1633.8961695767	2828.60009765625
1634.51115995292	2819.39990234375
1635.12606971366	2791.60009765625
1635.74089886636	2806.80004882813
1636.35564741844	2832
1636.97031537734	2833.80004882813
1637.58490275051	2865.39990234375
1638.19940954536	2891.60009765625
1638.81383576934	2883.80004882813
1639.42818142987	2898.39990234375
1640.0424465344	2933.60009765625
1640.65663109034	2939
1641.27073510515	2962
1641.88475858623	2942
1642.49870154104	2919.60009765625
1643.11256397699	2949
1643.72634590152	2917.80004882813
1644.34004732206	2950.60009765625
1644.95366824604	2966.19995117188
1645.56720868089	2986.39990234375
1646.18066863404	2979
1646.79404811291	2990.60009765625
1647.40734712494	2986.60009765625
1648.02056567755	2987.60009765625
1648.63370377817	2998.19995117188
1649.24676143423	3008.80004882813
1649.85973865316	3000.19995117188
1650.47263544238	3000
1651.08545180932	3017.80004882813
1651.6981877614	3015.19995117188
1652.31084330606	2977.60009765625
1652.92341845071	2947.80004882813
1653.53591320278	2931.60009765625
1654.1483275697	2918.39990234375
1654.7606615589	2926
1655.37291517778	2891.80004882813
1655.98508843379	2886.60009765625
1656.59718133434	2882.60009765625
1657.20919388685	2892.19995117188
1657.82112609875	2904.80004882813
1658.43297797747	2914.80004882813
1659.04474953041	2903.80004882813
1659.65644076501	2886.80004882813
1660.26805168869	2868.39990234375
1660.87958230886	2835.39990234375
1661.49103263294	2821.19995117188
1662.10240266837	2838
1662.71369242255	2810.80004882813
1663.32490190291	2813.60009765625
1663.93603111687	2800.60009765625
1664.54708007184	2771
1665.15804877524	2766.39990234375
1665.7689372345	2771.80004882813
1666.37974545703	2799.39990234375
1666.99047345024	2784.80004882813
1667.60112122156	2786.80004882813
1668.2116887784	2739.60009765625
1668.82217612818	2708.80004882813
1669.43258327831	2668.39990234375
1670.04291023622	2662.19995117188
1670.65315700931	2629.39990234375
1671.263323605	2615.60009765625
1671.8734100307	2613.39990234375
1672.48341629384	2601.39990234375
1673.09334240182	2605.80004882813
1673.70318836206	2567.80004882813
1674.31295418197	2567.39990234375
1674.92263986896	2543.60009765625
1675.53224543046	2554.80004882813
1676.14177087386	2576.60009765625
1676.75121620658	2598.39990234375
1677.36058143604	2596.19995117188
1677.96986656964	2602.60009765625
1678.5790716148	2628.80004882813
1679.18819657892	2661
1679.79724146943	2650.60009765625
1680.40620629372	2671
1681.0150910592	2672.19995117188
1681.6238957733	2710.60009765625
1682.23262044341	2689.80004882813
1682.84126507694	2682.39990234375
1683.4498296813	2692.19995117188
1684.0583142639	2706.19995117188
1684.66671883216	2710.19995117188
1685.27504339346	2690.19995117188
1685.88328795523	2674.19995117188
1686.49145252487	2644
1687.09953710978	2583.60009765625
1687.70754171737	2623.60009765625
1688.31546635505	2630.60009765625
1688.92331103021	2638.60009765625
1689.53107575028	2658.19995117188
1690.13876052265	2651.19995117188
1690.74636535472	2654.39990234375
1691.3538902539	2642
1691.96133522759	2635.19995117188
1692.5687002832	2597.19995117188
1693.17598542812	2580.19995117188
1693.78319066977	2582
1694.39031601554	2549.19995117188
1694.99736147283	2598.60009765625
1695.60432704905	2627
1696.2112127516	2644.60009765625
1696.81801858788	2655.19995117188
1697.42474456528	2644
1698.03139069121	2628.19995117188
1698.63795697307	2624.60009765625
1699.24444341826	2632
1699.85085003417	2616.39990234375
1700.45717682821	2617.80004882813
1701.06342380778	2622.60009765625
1701.66959098026	2618.19995117188
1702.27567835307	2601.19995117188
1702.88168593359	2582.60009765625
1703.48761372922	2541.39990234375
1704.09346174737	2509.19995117188
1704.69922999542	2530.19995117188
1705.30491848077	2519
1705.91052721083	2528.60009765625
1706.51605619297	2544
1707.12150543461	2534
1707.72687494312	2526.80004882813
1708.33216472592	2504.80004882813
1708.93737479039	2500.80004882813
1709.54250514392	2467.80004882813
