634.977642221345	3181.80004882813
635.719821695905	3202.39990234375
636.461909203392	3242.19995117188
637.203904751776	3237.19995117188
637.945808349023	3270.80004882813
638.687620003102	3294.80004882813
639.42933972198	3344.39990234375
640.170967513616	3331.60009765625
640.912503385981	3315.60009765625
641.653947347041	3301.80004882813
642.395299404758	3280.80004882813
643.13655956709	3241.39990234375
643.877727842014	3172.39990234375
644.61880423748	3166.39990234375
645.359788761455	3173.80004882813
646.100681421905	3215.39990234375
646.841482226789	3242.39990234375
647.582191184074	3228.80004882813
648.322808301711	3235.39990234375
649.06333358767	3188.39990234375
649.803767049909	3225.39990234375
650.544108696385	3266.39990234375
651.28435853506	3286.39990234375
652.024516573894	3332
652.764582820849	3316.60009765625
653.504557283875	3342
654.244439970937	3330.39990234375
654.984230889991	3375.60009765625
655.723930048995	3379.60009765625
656.463537455909	3377.60009765625
657.203053118683	3409.60009765625
657.942477045275	3403.19995117188
658.681809243647	3388.80004882813
659.421049721747	3362
660.160198487535	3359.80004882813
660.899255548962	3394
661.638220913985	3411.80004882813
662.377094590559	3426.39990234375
663.115876586631	3449.80004882813
663.854566910165	3417.19995117188
664.593165569107	3455
665.331672571406	3433.60009765625
666.07008792502	3422
666.808411637902	3394.19995117188
667.546643717996	3391.39990234375
668.284784173258	3382.19995117188
669.022833011641	3382.39990234375
669.760790241089	3417.60009765625
670.498655869554	3398.19995117188
671.236429904987	3391.19995117188
671.97411235534	3382.60009765625
672.711703228551	3455.19995117188
673.449202532577	3464
674.186610275364	3515.60009765625
674.923926464857	3529
675.661151109008	3529.19995117188
676.398284215759	3540.39990234375
677.135325793058	3546
677.87227584885	3579.19995117188
678.609134391082	3601.39990234375
679.345901427696	3588
680.082576966644	3601.80004882813
680.819161015861	3599.80004882813
681.555653583298	3553.39990234375
682.292054676895	3531.80004882813
683.028364304594	3495.80004882813
683.764582474344	3506.80004882813
684.500709194083	3508.39990234375
685.236744471752	3458.19995117188
685.972688315294	3463
686.708540732652	3450.19995117188
687.444301731762	3472.19995117188
688.179971320572	3484.80004882813
688.915549507013	3448.39990234375
689.651036299034	3435.80004882813
690.386431704569	3364.80004882813
691.121735731559	3357.39990234375
691.85694838794	3348
692.592069681652	3336
693.327099620632	3330.80004882813
694.062038212821	3363
694.796885466149	3411
695.531641388561	3491
696.266305987987	3548.19995117188
697.000879272367	3557.39990234375
697.735361249632	3590.80004882813
698.469751927722	3600.39990234375
699.204051314568	3586.60009765625
699.938259418107	3543.80004882813
700.672376246272	3512.60009765625
701.406401806997	3520.39990234375
702.140336108212	3501.19995117188
702.874179157855	3498
703.607930963856	3538
704.341591534147	3487.80004882813
705.07516087666	3507
705.808638999324	3549.19995117188
706.542025910073	3508.39990234375
707.275321616841	3544
708.008526127549	3532
708.741639450132	3544.19995117188
709.474661592521	3522.80004882813
710.207592562641	3559.60009765625
710.940432368424	3559.19995117188
711.673181017796	3543.19995117188
712.405838518687	3557.80004882813
713.138404879025	3537.39990234375
713.870880106731	3552.19995117188
714.603264209738	3565.80004882813
715.335557195971	3573
716.067759073357	3566.19995117188
716.799869849816	3605.80004882813
717.531889533281	3637.39990234375
718.263818131673	3618.39990234375
718.995655652917	3657.39990234375
719.727402104934	3609.60009765625
720.45905749565	3579
721.19062183299	3558
721.922095124877	3533
722.653477379231	3535.19995117188
723.384768603973	3514.39990234375
724.11596880703	3516
724.847077996319	3550
725.578096179762	3565.80004882813
726.309023365281	3588.60009765625
727.039859560792	3601.80004882813
727.770604774222	3585
728.501259013484	3595.19995117188
729.231822286501	3627.19995117188
729.962294601191	3605.80004882813
730.692675965469	3546.60009765625
731.42296638726	3524
732.153165874472	3531
732.883274435032	3598.39990234375
733.613292076851	3604.60009765625
734.343218807843	3633.60009765625
735.07305463593	3636
735.802799569028	3609.19995117188
736.532453615048	3557.39990234375
737.262016781904	3548.19995117188
737.991489077517	3554.60009765625
738.720870509794	3537
739.450161086654	3587.19995117188
740.179360816009	3607.39990234375
740.908469705772	3608.39990234375
741.637487763854	3658
742.366414998168	3654
743.095251416623	3662.80004882813
743.823997027137	3650.39990234375
744.552651837618	3662.60009765625
745.281215855978	3624.19995117188
746.009689090124	3616.80004882813
746.738071547964	3592
747.466363237419	3547
748.194564166384	3556.39990234375
748.92267434278	3566.80004882813
749.650693774504	3577.39990234375
750.378622469476	3578.60009765625
751.106460435596	3600.60009765625
751.834207680771	3631.19995117188
752.561864212909	3643.60009765625
753.289430039919	3640
754.016905169707	3647.60009765625
754.744289610175	3636.60009765625
755.471583369231	3646.80004882813
756.198786454782	3651.19995117188
756.925898874728	3646.39990234375
757.652920636979	3679.19995117188
758.379851749433	3666.60009765625
759.106692219996	3691.60009765625
759.833442056572	3720.19995117188
760.560101267063	3744.19995117188
761.28666985937	3724.19995117188
762.0131478414	3735
762.739535221046	3745
763.465832006219	3728.39990234375
764.192038204812	3729.39990234375
764.918153824731	3729.19995117188
765.644178873872	3754.60009765625
766.370113360138	3815.19995117188
767.095957291425	3877.60009765625
767.821710675635	3934.60009765625
768.547373520665	3979.39990234375
769.272945834415	4020
769.998427624781	4055
770.723818899658	4107
771.449119666949	4092.60009765625
772.174329934546	4150
772.899449710347	4191.60009765625
773.624479002248	4225.2001953125
774.349417818145	4271.7998046875
775.074266165934	4260.2001953125
775.799024053505	4251.39990234375
776.523691488757	4242.2001953125
777.248268479582	4150.39990234375
777.972755033877	4050.19995117188
778.69715115953	3959
779.421456864441	3927.19995117188
780.145672156493	3854
780.869797043587	3860.39990234375
781.593831533611	3848.39990234375
782.317775634457	3845
783.041629354012	3827.80004882813
783.765392700174	3815.60009765625
784.489065680828	3721.39990234375
785.212648303866	3686
785.936140577177	3681
786.659542508652	3694.60009765625
787.382854106174	3685.19995117188
788.106075377639	3717.60009765625
788.829206330928	3735.60009765625
789.552246973933	3774.60009765625
790.275197314542	3811.60009765625
790.998057360638	3791.60009765625
791.720827120108	3771.80004882813
792.443506600841	3735.19995117188
793.166095810722	3685.80004882813
793.888594757635	3648.80004882813
794.611003449465	3678.80004882813
795.333321894098	3696.39990234375
796.055550099417	3771.80004882813
796.777688073308	3797.60009765625
797.499735823654	3847.19995117188
798.221693358334	3760.19995117188
798.943560685235	3782.60009765625
799.665337812239	3758.19995117188
800.387024747226	3788.80004882813
801.108621498075	3820.80004882813
801.830128072674	3807.80004882813
802.551544478902	3816.39990234375
803.272870724636	3817
803.994106817761	3823.60009765625
804.715252766148	3777
805.436308577687	3755.39990234375
806.157274260251	3719.80004882813
806.878149821721	3752
807.598935269973	3725.60009765625
808.319630612886	3705.19995117188
809.040235858336	3696
809.760751014202	3722.60009765625
810.481176088361	3745.19995117188
811.201511088685	3712.80004882813
811.921756023059	3717.19995117188
812.641910899347	3686.80004882813
813.361975725432	3659.60009765625
814.081950509188	3688.80004882813
814.801835258489	3688.60009765625
815.521629981206	3693.39990234375
816.241334685218	3702.39990234375
816.960949378392	3695.80004882813
817.680474068606	3708
818.399908763731	3712
819.11925347164	3687.39990234375
819.838508200202	3688
820.55767295729	3652.19995117188
821.276747750778	3678
821.995732588531	3642
822.714627478425	3629.80004882813
823.433432428327	3663
824.152147446105	3678.60009765625
824.870772539632	3706
825.589307716775	3732.60009765625
826.307752985404	3767.39990234375
827.026108353378	3777.19995117188
827.744373828579	3757.39990234375
828.462549418867	3750.80004882813
829.180635132107	3743.19995117188
829.898630976168	3783.60009765625
830.616536958915	3793.39990234375
831.334353088218	3807.80004882813
832.052079371938	3803.60009765625
832.769715817942	3787.60009765625
833.487262434092	3801
834.204719228255	3802.60009765625
834.922086208293	3752.19995117188
835.639363382073	3740.19995117188
836.356550757456	3754.60009765625
837.073648342304	3747.80004882813
837.790656144484	3740.80004882813
838.507574171847	3780.39990234375
839.22440243227	3746.19995117188
839.941140933601	3736.19995117188
840.657789683706	3711.19995117188
841.374348690448	3704.80004882813
842.090817961686	3710
842.807197505276	3725.19995117188
843.523487329083	3726
844.23968744096	3709.60009765625
844.955797848771	3678.80004882813
845.671818560374	3696.60009765625
846.387749583622	3709.39990234375
847.103590926378	3678.60009765625
847.819342596497	3662.39990234375
848.535004601833	3650.80004882813
849.25057695025	3664.19995117188
849.966059649598	3615
850.681452707735	3642.39990234375
851.396756132513	3681.80004882813
852.111969931789	3741.39990234375
852.827094113419	3752.60009765625
853.542128685257	3769.80004882813
854.257073655158	3792.80004882813
854.971929030969	3800
855.686694820551	3750.19995117188
856.40137103175	3756.60009765625
857.115957672423	3754.39990234375
857.830454750423	3750.19995117188
858.544862273597	3754.80004882813
859.259180249797	3752.60009765625
859.97340868688	3778.60009765625
860.687547592688	3805
861.401596975075	3805.19995117188
862.115556841891	3822.80004882813
862.829427200985	3842.19995117188
863.543208060205	3845.19995117188
864.256899427402	3780.39990234375
864.970501310423	3780.60009765625
865.684013717114	3763
866.397436655325	3776.19995117188
867.110770132901	3736.60009765625
867.824014157691	3715
868.537168737542	3759.19995117188
869.250233880299	3712.39990234375
869.963209593803	3675.80004882813
870.676095885902	3685.60009765625
871.388892764445	3713.39990234375
872.101600237276	3731.80004882813
872.814218312233	3728.39990234375
873.526746997165	3750.19995117188
874.239186299914	3761.19995117188
874.951536228323	3755.80004882813
875.663796790231	3771.80004882813
876.375967993487	3753.60009765625
877.088049845928	3784.19995117188
877.8000423554	3781.60009765625
878.511945529739	3747.80004882813
879.22375937679	3693.39990234375
879.935483904388	3658.60009765625
880.64711912038	3689
881.358665032604	3677.80004882813
882.070121648892	3638.19995117188
882.78148897709	3684.80004882813
883.492767025039	3714.60009765625
884.203955800571	3731.19995117188
884.915055311525	3760
885.626065565741	3739.80004882813
886.336986571053	3683.19995117188
887.047818335298	3703.60009765625
887.758560866315	3696
888.469214171937	3698.80004882813
889.179778260005	3680.80004882813
889.890253138347	3673
890.600638814803	3657
891.310935297204	3657.60009765625
892.021142593385	3654.60009765625
892.731260711183	3669.19995117188
893.441289658429	3702.60009765625
894.15122944295	3711.39990234375
894.861080072591	3724.39990234375
895.570841555173	3682.39990234375
896.280513898534	3702.39990234375
896.990097110503	3748.39990234375
897.699591198913	3765.60009765625
898.408996171595	3779.60009765625
899.118312036375	3770.39990234375
899.827538801089	3791.39990234375
900.536676473561	3788.60009765625
901.245725061628	3766.60009765625
901.954684573109	3784.19995117188
902.663555015838	3857.39990234375
903.372336397644	3838.19995117188
904.081028726351	3832.19995117188
904.789632009793	3854.39990234375
905.49814625579	3831.19995117188
906.20657147217	3872
906.914907666765	3833.80004882813
907.623154847391	3814.39990234375
908.331313021885	3825.19995117188
909.039382198064	3820.39990234375
909.747362383754	3814.39990234375
910.455253586782	3823.19995117188
911.163055814972	3829.39990234375
911.870769076143	3820
912.578393378126	3821.80004882813
913.285928728738	3802.39990234375
913.993375135802	3783.80004882813
914.700732607145	3795
915.408001150579	3810
916.115180773937	3865.39990234375
916.822271485037	3845.19995117188
917.529273291693	3813.80004882813
918.236186201733	3798.19995117188
918.943010222971	3797.39990234375
919.649745363234	3823.80004882813
920.356391630333	3805.60009765625
921.062949032096	3795.39990234375
921.769417576333	3794.39990234375
922.475797270864	3791
923.182088123512	3801
923.888290142089	3810.19995117188
924.594403334414	3840
925.300427708304	3865.60009765625
926.006363271572	3844.60009765625
926.712210032039	3904.39990234375
927.417967997522	3889
928.123637175827	3847.39990234375
928.829217574776	3845.19995117188
929.534709202184	3859.19995117188
930.240112065859	3870.19995117188
930.945426173621	3853.39990234375
931.650651533283	3818.39990234375
932.355788152653	3850.39990234375
933.060836039547	3847.19995117188
933.765795201776	3827.39990234375
934.470665647153	3796
935.175447383492	3814.80004882813
935.880140418599	3800.60009765625
936.584744760286	3793.39990234375
937.289260416366	3835
937.993687394647	3850
938.698025702939	3901.39990234375
939.402275349051	3947.39990234375
940.106436340793	3944.19995117188
940.810508685976	3965
941.5144923924	3929.39990234375
942.21838746788	3925.19995117188
942.922193920223	3854.19995117188
943.625911757231	3827
944.329540986716	3805.39990234375
945.033081616484	3788.39990234375
945.736533654334	3766.80004882813
946.439897108083	3770.19995117188
947.143171985529	3751.80004882813
947.846358294477	3769.60009765625
948.549456042732	3763.60009765625
949.2524652381	3774
949.955385888382	3832
950.658218001384	3821
951.360961584907	3833.60009765625
952.063616646755	3847.80004882813
952.766183194733	3828
953.468661236636	3842.39990234375
954.171050780271	3805.19995117188
954.873351833437	3770.39990234375
955.575564403935	3757
956.277688499565	3749
956.97972412813	3725.80004882813
957.681671297424	3702
958.383530015255	3744.39990234375
959.085300289414	3746.60009765625
959.786982127703	3753.19995117188
960.488575537918	3775.80004882813
961.190080527859	3745.39990234375
961.891497105327	3739.19995117188
962.592825278111	3757.19995117188
963.294065054012	3745.39990234375
963.995216440829	3767.39990234375
964.696279446353	3791.60009765625
965.397254078383	3771.80004882813
966.098140344714	3818
966.798938253139	3824
967.499647811456	3831.80004882813
968.200269027458	3784.19995117188
968.900801908937	3757.60009765625
969.601246463685	3784
970.3016026995	3761.39990234375
971.001870624169	3714.39990234375
971.702050245491	3682.19995117188
972.402141571249	3680.39990234375
973.102144609245	3673.80004882813
973.802059367267	3690.19995117188
974.501885853103	3728.19995117188
975.201624074541	3751.39990234375
975.901274039379	3781.19995117188
976.600835755399	3788.60009765625
977.3003092304	3769
977.999694472158	3790.80004882813
978.698991488473	3789.60009765625
979.39820028713	3774.80004882813
980.097320875915	3800.80004882813
980.796353262618	3774.60009765625
981.495297455024	3812.19995117188
982.194153460919	3817.80004882813
982.892921288093	3843.60009765625
983.591600944331	3848
984.290192437419	3829.39990234375
984.98869577514	3804
985.687110965282	3805.80004882813
986.385438015629	3778
987.083676933961	3765.80004882813
987.781827728069	3748.60009765625
988.479890405732	3706.19995117188
989.177864974732	3750.60009765625
989.875751442857	3747.39990234375
990.573549817888	3755.19995117188
991.271260107602	3790.80004882813
991.968882319786	3779.80004882813
992.666416462217	3753.80004882813
993.363862542681	3734.39990234375
994.061220568959	3717
994.758490548823	3654
995.455672490061	3709.60009765625
996.152766400451	3766
996.849772287773	3775.39990234375
997.5466901598	3799.39990234375
998.243520024317	3762.60009765625
998.940261889097	3738.80004882813
999.636915761923	3716.80004882813
1000.33348165057	3700
1001.02995956281	3691.80004882813
1001.72634950643	3679.60009765625
1002.42265148919	3710.19995117188
1003.11886551889	3727
1003.81499160328	3769.80004882813
1004.51102975015	3796.80004882813
1005.20697996727	3812.19995117188
1005.90284226242	3793.19995117188
1006.59861664337	3806.60009765625
1007.2943031179	3789
1007.98990169377	3841.60009765625
1008.68541237876	3866.60009765625
1009.38083518064	3903.39990234375
1010.07617010719	3918.19995117188
1010.77141716617	3914
1011.46657636536	3887.19995117188
1012.16164771253	3873.80004882813
1012.85663121546	3818.39990234375
1013.5515268819	3787
1014.24633471963	3787
1014.94105473642	3724.19995117188
1015.63568694004	3752.19995117188
1016.33023133826	3785.39990234375
1017.02468793885	3815.19995117188
1017.71905674957	3827.19995117188
1018.41333777819	3852.80004882813
1019.10753103249	3847.39990234375
1019.80163652022	3833.60009765625
1020.49565424916	3804.60009765625
1021.18958422707	3810.80004882813
1021.88342646171	3791.19995117188
1022.57718096085	3777.80004882813
1023.27084773227	3825.60009765625
1023.96442678371	3738.39990234375
1024.65791812296	3673.39990234375
1025.35132175776	3681.39990234375
1026.04463769589	3629
1026.73786594511	3631.19995117188
1027.43100651318	3642.60009765625
1028.12405940786	3671
1028.81702463692	3663.19995117188
1029.50990220812	3710.39990234375
1030.20269212921	3729.80004882813
1030.89539440798	3709.80004882813
1031.58800905216	3651.80004882813
1032.28053606952	3641.60009765625
1032.97297546784	3623.39990234375
1033.66532725485	3679.60009765625
1034.35759143832	3692.19995117188
1035.04976802602	3742.60009765625
1035.7418570257	3746.60009765625
1036.43385844511	3740
1037.12577229202	3761.19995117188
1037.81759857419	3768.60009765625
1038.50933729937	3778.60009765625
1039.20098847531	3771.80004882813
1039.89255210978	3786.19995117188
1040.58402821053	3775.19995117188
1041.27541678532	3745.39990234375
1041.96671784191	3742.80004882813
1042.65793138804	3708.60009765625
1043.34905743147	3736.39990234375
1044.04009597996	3750.60009765625
1044.73104704125	3796.19995117188
1045.42191062312	3801.60009765625
1046.1126867333	3792.80004882813
1046.80337537955	3812.80004882813
1047.49397656962	3804.60009765625
1048.18449031127	3780.19995117188
1048.87491661225	3756.80004882813
1049.5652554803	3739.39990234375
1050.25550692319	3700
1050.94567094865	3673.60009765625
1051.63574756444	3681
1052.32573677832	3730.19995117188
1053.01563859803	3742.19995117188
1053.70545303131	3780.19995117188
1054.39518008592	3748.39990234375
1055.08481976961	3754.80004882813
1055.77437209013	3731.39990234375
1056.46383705522	3732.60009765625
1057.15321467262	3744.80004882813
1057.8425049501	3728.39990234375
1058.53170789539	3709.60009765625
1059.22082351624	3701.80004882813
1059.9098518204	3659.19995117188
1060.59879281561	3664.39990234375
1061.28764650962	3682.80004882813
1061.97641291016	3696.39990234375
1062.665092025	3735.60009765625
1063.35368386187	3708.19995117188
1064.04218842851	3700.60009765625
1064.73060573268	3667.39990234375
1065.4189357821	3680.80004882813
1066.10717858452	3682.80004882813
1066.7953341477	3660.19995117188
1067.48340247936	3603.60009765625
1068.17138358725	3621
1068.85927747912	3692.80004882813
1069.5470841627	3701.80004882813
1070.23480364573	3721.60009765625
1070.92243593595	3743.19995117188
1071.60998104111	3773.39990234375
1072.29743896894	3759.19995117188
1072.98480972718	3735.60009765625
1073.67209332357	3723.60009765625
1074.35928976585	3752.60009765625
1075.04639906176	3780.60009765625
1075.73342121903	3836.19995117188
1076.42035624541	3791.19995117188
1077.10720414862	3803.19995117188
1077.79396493641	3806.19995117188
1078.48063861651	3788.39990234375
1079.16722519666	3775.39990234375
1079.85372468459	3761.39990234375
1080.54013708804	3747.39990234375
1081.22646241474	3746.60009765625
1081.91270067243	3748
1082.59885186884	3760.19995117188
1083.28491601171	3778.19995117188
1083.97089310877	3794.80004882813
1084.65678316774	3835
1085.34258619637	3835.19995117188
1086.02830220239	3804.60009765625
1086.71393119352	3814
1087.39947317751	3799.19995117188
1088.08492816207	3810.19995117188
1088.77029615495	3851.39990234375
1089.45557716387	3856.19995117188
1090.14077119656	3879.39990234375
1090.82587826075	3840.60009765625
1091.51089836417	3828.19995117188
1092.19583151456	3811.19995117188
1092.88067771963	3809.80004882813
1093.56543698712	3775
1094.25010932475	3739.60009765625
1094.93469474026	3695.39990234375
1095.61919324137	3729
1096.3036048358	3713.60009765625
1096.98792953129	3741
1097.67216733555	3770.19995117188
1098.35631825632	3780.60009765625
1099.04038230132	3781
1099.72435947828	3767.19995117188
1100.40824979492	3712.39990234375
1101.09205325895	3640.60009765625
1101.77576987812	3578.19995117188
1102.45939966014	3530.80004882813
1103.14294261273	3561.19995117188
1103.82639874362	3540.39990234375
1104.50976806054	3549.80004882813
1105.19305057119	3604.80004882813
1105.87624628331	3723
1106.55935520461	3795.19995117188
1107.24237734283	3841.19995117188
1107.92531270566	3832.80004882813
1108.60816130085	3807.60009765625
1109.2909231361	3805.39990234375
1109.97359821914	3847.80004882813
1110.65618655768	3863.60009765625
1111.33868815946	3881
1112.02110303217	3898.39990234375
1112.70343118355	3894.39990234375
1113.3856726213	3894.19995117188
1114.06782735316	3855.60009765625
1114.74989538683	3817
1115.43187673002	3813
1116.11377139047	3756.19995117188
1116.79557937588	3790
1117.47730069397	3831.39990234375
1118.15893535245	3842.39990234375
1118.84048335904	3874.39990234375
1119.52194472146	3878
1120.20331944741	3854.19995117188
1120.88460754462	3825.60009765625
1121.56580902079	3824.19995117188
1122.24692388364	3837.39990234375
1122.92795214088	3879
1123.60889380022	3916.19995117188
1124.28974886938	3961
1124.97051735606	3980.60009765625
1125.65119926799	3990.80004882813
1126.33179461286	3987
1127.0123033984	3993.80004882813
1127.6927256323	3973.39990234375
1128.37306132229	3950.60009765625
1129.05331047606	3950
1129.73347310134	3935.19995117188
1130.41354920582	3914.39990234375
1131.09353879722	3843.60009765625
1131.77344188324	3832.60009765625
1132.45325847159	3841.19995117188
1133.13298856999	3867.80004882813
1133.81263218612	3862.60009765625
1134.49218932772	3854.80004882813
1135.17166000247	3853.39990234375
1135.85104421809	3840.39990234375
1136.53034198227	3803.19995117188
1137.20955330274	3786.39990234375
1137.88867818718	3770
1138.56771664331	3777.19995117188
1139.24666867883	3798.39990234375
1139.92553430144	3798.19995117188
1140.60431351885	3820.60009765625
1141.28300633876	3830.19995117188
1141.96161276887	3862.80004882813
1142.64013281689	3875
1143.31856649051	3892.39990234375
1143.99691379744	3851.39990234375
1144.67517474538	3821.80004882813
1145.35334934203	3827
1146.03143759509	3812.39990234375
1146.70943951226	3764.80004882813
1147.38735510125	3727.19995117188
1148.06518436974	3724.19995117188
1148.74292732545	3711.39990234375
1149.42058397606	3704.80004882813
1150.09815432928	3751
1150.7756383928	3734
1151.45303617432	3745.19995117188
1152.13034768155	3806
1152.80757292217	3896.39990234375
1153.48471190389	3931.60009765625
1154.16176463439	3920.60009765625
1154.83873112138	3892
1155.51561137255	3863.80004882813
1156.1924053956	3845.80004882813
1156.86911319822	3839
1157.5457347881	3835.39990234375
1158.22227017294	3853.60009765625
1158.89871936044	3815.60009765625
1159.57508235828	3799
1160.25135917416	3832
1160.92754981578	3782.19995117188
1161.60365429081	3808
1162.27967260697	3825.19995117188
1162.95560477193	3798.80004882813
1163.63145079339	3804.80004882813
1164.30721067904	3793.60009765625
1164.98288443657	3779.60009765625
1165.65847207367	3792.19995117188
1166.33397359803	3801.80004882813
1167.00938901735	3832.80004882813
1167.6847183393	3816
1168.35996157157	3851.60009765625
1169.03511872187	3873.19995117188
1169.71018979787	3876.80004882813
1170.38517480726	3850.19995117188
1171.06007375773	3870.19995117188
1171.73488665696	3807
1172.40961351265	3776.19995117188
1173.08425433247	3770
1173.75880912412	3756.60009765625
1174.43327789528	3798
1175.10766065364	3857.60009765625
1175.78195740687	3921.80004882813
1176.45616816267	3908.39990234375
1177.13029292871	3894.60009765625
1177.80433171269	3910.19995117188
1178.47828452229	3865
1179.15215136518	3893.80004882813
1179.82593224905	3894.80004882813
1180.49962718159	3951
1181.17323617047	3945.60009765625
1181.84675922337	3978.19995117188
1182.52019634799	3996.80004882813
1183.193547552	3996.80004882813
1183.86681284307	3992.39990234375
1184.53999222889	4014.60009765625
1185.21308571714	3982.19995117188
1185.8860933155	3956.80004882813
1186.55901503165	3937.39990234375
1187.23185087326	3937.80004882813
1187.90460084802	3952.80004882813
1188.5772649636	3934
1189.24984322768	3951.60009765625
1189.92233564794	3968
1190.59474223206	3964.80004882813
1191.2670629877	3993.80004882813
1191.93929792255	4007.19995117188
1192.61144704428	4017.80004882813
1193.28351036058	4008.60009765625
1193.9554878791	3997.19995117188
1194.62737960754	3970.60009765625
1195.29918555356	3936.60009765625
1195.97090572483	3958.60009765625
1196.64254012903	3987
1197.31408877384	3987.39990234375
1197.98555166693	3998
1198.65692881596	3993.39990234375
1199.32822022862	3945.39990234375
1199.99942591256	3915
1200.67054587548	3895.19995117188
1201.34158012503	3881.39990234375
1202.01252866889	3851.39990234375
1202.68339151473	3827
1203.35416867021	3848
1204.02486014301	3806.80004882813
1204.6954659408	3849.19995117188
1205.36598607124	3881.80004882813
1206.03642054201	3906
1206.70676936078	3927.19995117188
1207.3770325352	3891
1208.04721007295	3875
1208.7173019817	3851
1209.38730826911	3850.60009765625
1210.05722894285	3822.19995117188
1210.72706401059	3794.39990234375
1211.39681347999	3799.60009765625
1212.06647735872	3782.19995117188
1212.73605565444	3804.80004882813
1213.40554837481	3772.39990234375
1214.07495552751	3783.19995117188
1214.74427712019	3837
1215.41351316052	3821.60009765625
1216.08266365617	3832
1216.75172861479	3777.80004882813
1217.42070804405	3773.60009765625
1218.0896019516	3772.39990234375
1218.75841034513	3776
1219.42713323227	3832.80004882813
1220.0957706207	3876.80004882813
1220.76432251808	3863.80004882813
1221.43278893207	3850.80004882813
1222.10116987032	3877.19995117188
1222.7694653405	3889.39990234375
1223.43767535026	3915.39990234375
1224.10579990727	3882.60009765625
1224.77383901918	3835
1225.44179269366	3819.39990234375
1226.10966093835	3838.19995117188
1226.77744376093	3836
1227.44514116904	3821.60009765625
1228.11275317034	3817.39990234375
1228.78027977249	3819.80004882813
1229.44772098315	3835.80004882813
1230.11507680996	3799.60009765625
1230.7823472606	3808.80004882813
1231.44953234271	3815
1232.11663206394	3827.80004882813
1232.78364643195	3760.60009765625
1233.4505754544	3745.80004882813
1234.11741913894	3738
1234.78417749322	3733.19995117188
1235.45085052489	3761.80004882813
1236.11743824162	3746.39990234375
1236.78394065104	3744
1237.45035776082	3721.39990234375
1238.1166895786	3773
1238.78293611204	3797
1239.44909736878	3772.19995117188
1240.11517335648	3767.80004882813
1240.78116408279	3795.39990234375
1241.44706955535	3780.39990234375
1242.11288978182	3764.80004882813
1242.77862476985	3776.19995117188
1243.44427452708	3707.80004882813
1244.10983906116	3719
1244.77531837974	3759.80004882813
1245.44071249047	3696.80004882813
1246.106021401	3748.80004882813
1246.77124511898	3732.19995117188
1247.43638365204	3788.19995117188
1248.10143700783	3810.39990234375
1248.76640519401	3769
1249.43128821822	3783.80004882813
1250.0960860881	3774.60009765625
1250.76079881129	3787.80004882813
1251.42542639545	3783.80004882813
1252.08996884822	3737
1252.75442617723	3729.39990234375
1253.41879839014	3728
1254.08308549458	3800.80004882813
1254.74728749821	3812.19995117188
1255.41140440866	3831
1256.07543623357	3763
1256.73938298059	3757
1257.40324465735	3738.39990234375
1258.0670212715	3730.39990234375
1258.73071283068	3707.60009765625
1259.39431934253	3722.39990234375
1260.05784081468	3760.80004882813
1260.72127725479	3753.80004882813
1261.38462867049	3725.19995117188
1262.0478950694	3738.60009765625
1262.71107645919	3710.80004882813
1263.37417284748	3721.19995117188
1264.03718424191	3794.80004882813
1264.70011065011	3778.39990234375
1265.36295207974	3771.60009765625
1266.02570853841	3782.19995117188
1266.68838003378	3772.19995117188
1267.35096657346	3759.39990234375
1268.01346816511	3722.39990234375
1268.67588481636	3687.39990234375
1269.33821653483	3656.80004882813
1270.00046332817	3678.60009765625
1270.66262520401	3758
1271.32470216998	3756.80004882813
1271.98669423372	3710.80004882813
1272.64860140285	3663.60009765625
1273.31042368503	3674.19995117188
1273.97216108786	3691.19995117188
1274.633813619	3713.19995117188
1275.29538128606	3736
1275.95686409669	3742.60009765625
1276.6182620585	3761.39990234375
1277.27957517914	3766.80004882813
1277.94080346624	3745.60009765625
1278.60194692741	3752.60009765625
1279.2630055703	3798.80004882813
1279.92397940253	3808.19995117188
1280.58486843173	3789.19995117188
1281.24567266552	3761.60009765625
1281.90639211155	3727.60009765625
1282.56702677743	3727.19995117188
1283.2275766708	3718.60009765625
1283.88804179927	3724
1284.54842217049	3697
1285.20871779206	3665.39990234375
1285.86892867163	3669.60009765625
1286.52905481681	3690.80004882813
1287.18909623523	3704.60009765625
1287.84905293452	3706.80004882813
1288.5089249223	3765.39990234375
1289.16871220619	3781.19995117188
1289.82841479383	3778.19995117188
1290.48803269282	3813
1291.1475659108	3811
1291.80701445539	3746.19995117188
1292.46637833421	3659.19995117188
1293.12565755489	3646.80004882813
1293.78485212504	3664.19995117188
1294.44396205229	3634.80004882813
1295.10298734425	3651.60009765625
1295.76192800856	3638.39990234375
1296.42078405283	3638.80004882813
1297.07955548467	3657.80004882813
1297.73824231171	3684.39990234375
1298.39684454158	3698.60009765625
1299.05536218188	3728.60009765625
1299.71379524023	3759.80004882813
1300.37214372427	3715
1301.03040764159	3686.80004882813
1301.68858699983	3692.60009765625
1302.34668180659	3712
1303.0046920695	3732
1303.66261779617	3770.80004882813
1304.32045899422	3784.39990234375
1304.97821567126	3785.19995117188
1305.63588783492	3772.39990234375
1306.29347549279	3793.60009765625
1306.95097865251	3776.19995117188
1307.60839732168	3849.80004882813
1308.26573150791	3845.60009765625
1308.92298121883	3861.39990234375
1309.58014646204	3853
1310.23722724517	3857.80004882813
1310.89422357581	3857.60009765625
1311.55113546158	3872.39990234375
1312.2079629101	3877.80004882813
1312.86470592898	3920.19995117188
1313.52136452582	3915.19995117188
1314.17793870824	3905.80004882813
1314.83442848386	3931.80004882813
1315.49083386027	3918.19995117188
1316.14715484509	3928.60009765625
1316.80339144594	3925.60009765625
1317.45954367041	3910.60009765625
1318.11561152611	3926.60009765625
1318.77159502067	3921.80004882813
1319.42749416168	3912.39990234375
1320.08330895674	3903.60009765625
1320.73903941348	3882.19995117188
1321.3946855395	3824.80004882813
1322.0502473424	3836
1322.70572482978	3813.39990234375
1323.36111800926	3801.39990234375
1324.01642688845	3809
1324.67165147494	3812
1325.32679177634	3832.39990234375
1325.98184780025	3841.80004882813
1326.63681955429	3805.80004882813
1327.29170704605	3784
1327.94651028314	3739.60009765625
1328.60122927316	3730.80004882813
1329.25586402371	3699
1329.9104145424	3718.19995117188
1330.56488083683	3678.80004882813
1331.2192629146	3656
1331.87356078331	3683.80004882813
1332.52777445056	3723.19995117188
1333.18190392395	3729.80004882813
1333.83594921109	3704.39990234375
1334.48991031958	3688.80004882813
1335.143787257	3666.60009765625
1335.79758003097	3664.19995117188
1336.45128864908	3660.60009765625
1337.10491311893	3667.39990234375
1337.75845344813	3655.60009765625
1338.41190964425	3636.19995117188
1339.06528171491	3657.19995117188
1339.71856966771	3640.39990234375
1340.37177351023	3612.19995117188
1341.02489325007	3579.80004882813
1341.67792889484	3548.60009765625
1342.33088045212	3522.80004882813
1342.98374792952	3520.19995117188
1343.63653133462	3534.80004882813
1344.28923067503	3562.60009765625
1344.94184595833	3600.80004882813
1345.59437719212	3644
1346.246824384	3698.39990234375
1346.89918754155	3718.19995117188
1347.55146667238	3745.19995117188
1348.20366178407	3751.80004882813
1348.85577288421	3737.80004882813
1349.50779998041	3731.80004882813
1350.15974308024	3712.60009765625
1350.8116021913	3712.39990234375
1351.46337732119	3743.19995117188
1352.11506847748	3724.39990234375
1352.76667566778	3784
1353.41819889967	3780.60009765625
1354.06963818074	3813
1354.72099351858	3810.80004882813
1355.37226492079	3835
1356.02345239494	3855.19995117188
1356.67455594862	3931.80004882813
1357.32557558943	3983.39990234375
1357.97651132496	4035.19995117188
1358.62736316277	4061.80004882813
1359.27813111048	4099.2001953125
1359.92881517565	4125.7998046875
1360.57941536589	4129
1361.22993168876	4171.39990234375
1361.88036415186	4211.39990234375
1362.53071276278	4251.39990234375
1363.1809775291	4296.2001953125
1363.8311584584	4302
1364.48125555826	4265.7998046875
1365.13126883627	4150
1365.78119830001	4065.60009765625
1366.43104395707	4021.80004882813
1367.08080581503	3993.19995117188
1367.73048388147	3945.39990234375
1368.38007816397	3925.39990234375
1369.02958867011	3919
1369.67901540748	3890.60009765625
1370.32835838365	3868.39990234375
1370.9776176062	3867.60009765625
1371.62679308273	3855.80004882813
1372.27588482079	3880.19995117188
1372.92489282798	3882.19995117188
1373.57381711188	3889
1374.22265768006	3802.39990234375
1374.87141454009	3785.80004882813
1375.52008769957	3798.80004882813
1376.16867716606	3788.39990234375
1376.81718294715	3765.60009765625
1377.4656050504	3759.39990234375
1378.1139434834	3787.39990234375
1378.76219825373	3780
1379.41036936895	3813
1380.05845683664	3750
1380.70646066439	3768.80004882813
1381.35438085976	3744
1382.00221743032	3761.80004882813
1382.64997038366	3766.80004882813
1383.29763972735	3802
1383.94522546895	3759.80004882813
1384.59272761605	3798.19995117188
1385.24014617621	3753.80004882813
1385.88748115701	3757.39990234375
1386.53473256602	3731.39990234375
1387.18190041081	3711
1387.82898469895	3708.19995117188
1388.47598543802	3698.39990234375
1389.12290263558	3662.19995117188
1389.7697362992	3627.19995117188
1390.41648643646	3588
1391.06315305492	3606.60009765625
1391.70973616215	3523
1392.35623576573	3524.19995117188
1393.00265187321	3507.39990234375
1393.64898449217	3557.39990234375
1394.29523363018	3579.19995117188
1394.94139929481	3563.39990234375
1395.58748149361	3541
1396.23348023415	3532.39990234375
1396.87939552402	3500.39990234375
1397.52522737076	3477.19995117188
1398.17097578195	3397.39990234375
1398.81664076514	3370.60009765625
1399.46222232792	3350.39990234375
1400.10772047783	3379.80004882813
1400.75313522245	3379.39990234375
1401.39846656934	3435.60009765625
1402.04371452605	3465.60009765625
1402.68887910016	3473.39990234375
1403.33396029924	3470.39990234375
1403.97895813083	3505
1404.6238726025	3544
1405.26870372182	3541.39990234375
1405.91345149634	3532.39990234375
1406.55811593363	3507.39990234375
1407.20269704125	3496.80004882813
1407.84719482676	3468.39990234375
1408.49160929772	3484.19995117188
1409.13594046168	3480.60009765625
1409.78018832622	3483.39990234375
1410.42435289887	3466.19995117188
1411.06843418722	3458.80004882813
1411.7124321988	3479.39990234375
1412.3563469412	3513.60009765625
1413.00017842194	3542.80004882813
1413.64392664861	3582.80004882813
1414.28759162875	3627
1414.93117336992	3583.19995117188
1415.57467187967	3554.80004882813
1416.21808716557	3558.80004882813
1416.86141923516	3606.80004882813
1417.50466809601	3575.19995117188
1418.14783375567	3599.80004882813
1418.79091622169	3601.19995117188
1419.43391550162	3567.60009765625
1420.07683160303	3577.39990234375
1420.71966453346	3597.60009765625
1421.36241430046	3605.80004882813
1422.0050809116	3601.80004882813
1422.64766437442	3633.80004882813
1423.29016469647	3653.80004882813
1423.93258188531	3665.39990234375
1424.57491594848	3665.39990234375
1425.21716689354	3637.19995117188
1425.85933472805	3657.19995117188
1426.50141945954	3633.60009765625
1427.14342109557	3602.39990234375
1427.78533964369	3606
1428.42717511144	3574.80004882813
1429.06892750639	3549.80004882813
1429.71059683607	3544
1430.35218310803	3538.60009765625
1430.99368632983	3568
1431.635106509	3596.60009765625
1432.2764436531	3612.60009765625
1432.91769776967	3606.60009765625
1433.55886886627	3606.19995117188
1434.19995695043	3590.39990234375
1434.84096202969	3596.39990234375
1435.48188411162	3574.19995117188
1436.12272320375	3546
1436.76347931363	3546.80004882813
1437.40415244879	3553.60009765625
1438.0447426168	3589.80004882813
1438.68524982518	3589
1439.32567408148	3570.39990234375
1439.96601539325	3564.80004882813
1440.60627376803	3562.60009765625
1441.24644921336	3552.39990234375
1441.88654173678	3525
1442.52655134583	3518.19995117188
1443.16647804806	3498.39990234375
1443.806321851	3484.80004882813
1444.4460827622	3534.39990234375
1445.0857607892	3532.60009765625
1445.72535593953	3520.60009765625
1446.36486822074	3470.39990234375
1447.00429764037	3475.80004882813
1447.64364420595	3466.19995117188
1448.28290792502	3473.19995117188
1448.92208880512	3487.19995117188
1449.56118685379	3504.60009765625
1450.20020207857	3508.80004882813
1450.83913448699	3522.19995117188
1451.47798408659	3546.60009765625
1452.1167508849	3554.80004882813
1452.75543488947	3537.80004882813
1453.39403610782	3517.60009765625
1454.0325545475	3522.60009765625
1454.67099021603	3502
1455.30934312097	3530.80004882813
1455.94761326982	3567
1456.58580067014	3540.39990234375
1457.22390532945	3510
1457.86192725529	3500
1458.49986645519	3523.80004882813
1459.13772293668	3492.60009765625
1459.7754967073	3469.39990234375
1460.41318777457	3471.39990234375
1461.05079614604	3437.19995117188
1461.68832182922	3462.39990234375
1462.32576483166	3436.80004882813
1462.96312516087	3421.60009765625
1463.6004028244	3427
1464.23759782977	3479.60009765625
1464.8747101845	3490.80004882813
1465.51173989614	3518.80004882813
1466.14868697221	3515.39990234375
1466.78555142024	3474.19995117188
1467.42233324774	3477.39990234375
1468.05903246227	3477
1468.69564907133	3472.19995117188
1469.33218308246	3452.80004882813
1469.96863450317	3450.19995117188
1470.60500334102	3475.60009765625
1471.2412896035	3511.80004882813
1471.87749329816	3530.60009765625
1472.51361443251	3504.80004882813
1473.14965301409	3527
1473.78560905041	3505.39990234375
1474.421482549	3501.60009765625
1475.05727351739	3528.80004882813
1475.69298196309	3527
1476.32860789364	3551
1476.96415131654	3540
1477.59961223934	3500.39990234375
1478.23499066954	3466.60009765625
1478.87028661467	3459.60009765625
1479.50550008226	3485.19995117188
1480.14063107981	3469.80004882813
1480.77567961486	3434.19995117188
1481.41064569492	3410
1482.04552932752	3376.80004882813
1482.68033052017	3376.60009765625
1483.31504928039	3384.60009765625
1483.9496856157	3433.60009765625
1484.58423953363	3458.19995117188
1485.21871104168	3458.80004882813
1485.85310014738	3436
1486.48740685824	3436.19995117188
1487.12163118178	3413.39990234375
1487.75577312553	3429.60009765625
1488.38983269698	3400.60009765625
1489.02380990367	3397
1489.65770475311	3453.39990234375
1490.29151725281	3472.60009765625
1490.92524741029	3502.80004882813
1491.55889523306	3490
1492.19246072863	3551.39990234375
1492.82594390453	3564.39990234375
1493.45934476826	3573.80004882813
1494.09266332734	3546.60009765625
1494.72589958928	3535.60009765625
1495.3590535616	3561.39990234375
1495.99212525181	3539.19995117188
1496.62511466741	3565.19995117188
1497.25802181592	3513.19995117188
1497.89084670485	3531.39990234375
1498.52358934172	3562.19995117188
1499.15624973403	3587
1499.7888278893	3572
1500.42132381503	3600.60009765625
1501.05373751873	3668.80004882813
1501.68606900792	3702.80004882813
1502.31831829009	3750.80004882813
1502.95048537277	3727
1503.58257026346	3789.19995117188
1504.21457296966	3798.19995117188
1504.84649349889	3829.60009765625
1505.47833185864	3848.60009765625
1506.11008805644	3860.39990234375
1506.74176209978	3800.80004882813
1507.37335399617	3804
1508.00486375312	3804.39990234375
1508.63629137813	3791
1509.2676368787	3772.60009765625
1509.89890026235	3765.80004882813
1510.53008153658	3828.39990234375
1511.16118070889	3848.60009765625
1511.79219778677	3830
1512.42313277775	3813.39990234375
1513.05398568932	3820.39990234375
1513.68475652898	3833
1514.31544530424	3867.19995117188
1514.9460520226	3781.80004882813
1515.57657669155	3732.19995117188
1516.20701931861	3696.39990234375
1516.83737991127	3644.19995117188
1517.46765847702	3593.39990234375
1518.09785502339	3612.19995117188
1518.72796955785	3651.80004882813
1519.35800208792	3635
1519.98795262109	3611.39990234375
1520.61782116486	3592.60009765625
1521.24760772673	3595.39990234375
1521.87731231419	3582
1522.50693493475	3581.19995117188
1523.1364755959	3568
1523.76593430514	3555.80004882813
1524.39531106997	3505
1525.02460589788	3551.80004882813
1525.65381879637	3532.80004882813
1526.28294977293	3509.60009765625
1526.91199883507	3477.80004882813
1527.54096599027	3439
1528.16985124603	3425.39990234375
1528.79865460984	3415
1529.4273760892	3414.60009765625
1530.05601569161	3423.80004882813
1530.68457342455	3459.60009765625
1531.31304929552	3467.80004882813
1531.94144331201	3463
1532.56975548151	3506
1533.19798581152	3502.60009765625
1533.82613430953	3518
1534.45420098302	3481.19995117188
1535.08218583949	3499.80004882813
1535.71008888643	3463.60009765625
1536.33791013134	3456.60009765625
1536.96564958169	3466.39990234375
1537.59330724498	3480.60009765625
1538.22088312871	3486
1538.84837724034	3430.39990234375
1539.47578958739	3418.60009765625
1540.10312017733	3411.19995117188
1540.73036901765	3364.60009765625
1541.35753611584	3400.19995117188
1541.98462147939	3353
1542.61162511578	3378
1543.2385470325	3412.60009765625
1543.86538723704	3414
1544.49214573688	3444.60009765625
1545.11882253951	3432.80004882813
1545.74541765241	3478
1546.37193108306	3482.80004882813
1546.99836283896	3469
1547.62471292758	3476.39990234375
1548.25098135641	3441.19995117188
1548.87716813294	3453.19995117188
1549.50327326464	3435.19995117188
1550.12929675899	3427.39990234375
1550.75523862349	3426.19995117188
1551.38109886561	3425.19995117188
1552.00687749284	3403.19995117188
1552.63257451264	3376
1553.25818993252	3382.60009765625
1553.88372375994	3402
1554.50917600239	3356.39990234375
1555.13454666734	3319.19995117188
1555.75983576228	3324.80004882813
1556.38504329469	3314.60009765625
1557.01016927204	3320.80004882813
1557.63521370181	3294.39990234375
1558.26017659149	3292
1558.88505794854	3342.80004882813
1559.50985778045	3364
1560.13457609469	3376.39990234375
1560.75921289874	3384.39990234375
1561.38376820008	3377.19995117188
1562.00824200618	3387.80004882813
1562.63263432452	3342.19995117188
1563.25694516257	3323.60009765625
1563.88117452781	3340.60009765625
1564.50532242772	3348.80004882813
1565.12938886976	3331.80004882813
1565.75337386141	3345.80004882813
1566.37727741015	3381.80004882813
1567.00109952345	3431.19995117188
1567.62484020878	3446
1568.24849947361	3447
1568.87207732542	3468
1569.49557377168	3473
1570.11898881986	3502
1570.74232247743	3466.80004882813
1571.36557475186	3487.19995117188
1571.98874565062	3502.60009765625
1572.61183518119	3516
1573.23484335103	3578.19995117188
1573.85777016761	3607.60009765625
1574.4806156384	3629
1575.10337977088	3619.39990234375
1575.7260625725	3577.60009765625
1576.34866405074	3562.19995117188
1576.97118421306	3550.39990234375
1577.59362306694	3535.19995117188
1578.21598061984	3549
1578.83825687922	3528.19995117188
1579.46045185255	3530.80004882813
1580.08256554731	3508.60009765625
1580.70459797094	3495.39990234375
1581.32654913093	3469.60009765625
1581.94841903473	3427.19995117188
1582.57020768981	3411.19995117188
1583.19191510364	3365.60009765625
1583.81354128367	3376.19995117188
1584.43508623737	3336
1585.05654997221	3338.80004882813
1585.67793249564	3330.80004882813
1586.29923381514	3315.19995117188
1586.92045393815	3315
1587.54159287216	3311.60009765625
1588.1626506246	3324.19995117188
1588.78362720296	3283.60009765625
1589.40452261468	3264.60009765625
1590.02533686724	3277.80004882813
1590.64606996808	3234.39990234375
1591.26672192467	3241.39990234375
1591.88729274447	3215.19995117188
1592.50778243493	3190
1593.12819100352	3193.80004882813
1593.7485184577	3173.39990234375
1594.36876480492	3193.19995117188
1594.98893005264	3211.19995117188
1595.60901420832	3190
1596.22901727941	3198
1596.84893927338	3218.60009765625
1597.46878019767	3280.80004882813
1598.08854005975	3269.80004882813
1598.70821886707	3303
1599.32781662708	3294
1599.94733334725	3270
1600.56676903502	3260.60009765625
1601.18612369785	3232.60009765625
1601.8053973432	3209.19995117188
1602.42458997851	3180.60009765625
1603.04370161124	3159
1603.66273224884	3139.39990234375
1604.28168189878	3120.80004882813
1604.90055056849	3101.39990234375
1605.51933826543	3059
1606.13804499705	3111.60009765625
1606.75667077081	3111.60009765625
1607.37521559415	3132.80004882813
1607.99367947452	3158.39990234375
1608.61206241938	3157.39990234375
1609.23036443618	3163.80004882813
1609.84858553236	3135
1610.46672571537	3140.60009765625
1611.08478499267	3141
1611.7027633717	3174.19995117188
1612.3206608599	3182.60009765625
1612.93847746473	3152.19995117188
1613.55621319364	3125.80004882813
1614.17386805407	3115.39990234375
1614.79144205347	3075
1615.40893519928	3073.60009765625
1616.02634749895	3034.60009765625
1616.64367895993	2998.60009765625
1617.26092958966	3010.19995117188
1617.87809939559	3019
1618.49518838516	3038
1619.11219656582	3038
1619.729123945	3014
1620.34597053016	3047.60009765625
1620.96273632874	3027.19995117188
1621.57942134818	3056.39990234375
1622.19602559592	3041.39990234375
1622.8125490794	3054.80004882813
1623.42899180607	3069.19995117188
1624.04535378337	3048
1624.66163501874	3098.19995117188
1625.27783551963	3060.80004882813
1625.89395529346	3066.80004882813
1626.50999434768	3038.80004882813
1627.12595268974	3024.80004882813
1627.74183032707	3009.80004882813
1628.3576272671	2990.19995117188
1628.97334351729	2961.19995117188
1629.58897908506	2969.39990234375
1630.20453397786	2983.19995117188
1630.82000820313	2971.80004882813
1631.43540176829	2962.80004882813
1632.05071468079	2966
1632.66594694807	2981.39990234375
1633.28109857756	2978.80004882813
1633.8961695767	2962.60009765625
1634.51115995292	2948.19995117188
1635.12606971366	2914.19995117188
1635.74089886636	2939.60009765625
1636.35564741844	2970.60009765625
1636.97031537734	2993.60009765625
1637.58490275051	3020
1638.19940954536	3018.60009765625
1638.81383576934	3027.80004882813
1639.42818142987	3048
1640.0424465344	3061
1640.65663109034	3105.80004882813
1641.27073510515	3098.19995117188
1641.88475858623	3078.80004882813
1642.49870154104	3088.60009765625
1643.11256397699	3078.39990234375
1643.72634590152	3090
1644.34004732206	3111
1644.95366824604	3115.39990234375
1645.56720868089	3153.60009765625
1646.18066863404	3150
1646.79404811291	3190
1647.40734712494	3186
1648.02056567755	3219.39990234375
1648.63370377817	3217.80004882813
1649.24676143423	3237.39990234375
1649.85973865316	3220.19995117188
1650.47263544238	3256.19995117188
1651.08545180932	3283.80004882813
1651.6981877614	3264.80004882813
1652.31084330606	3215.19995117188
1652.92341845071	3195.80004882813
1653.53591320278	3168.80004882813
1654.1483275697	3110.60009765625
1654.7606615589	3129.39990234375
1655.37291517778	3105.19995117188
1655.98508843379	3058.19995117188
1656.59718133434	3051
1657.20919388685	3083.19995117188
1657.82112609875	3050.80004882813
1658.43297797747	3025.80004882813
1659.04474953041	2996
1659.65644076501	2997.60009765625
1660.26805168869	2979.60009765625
1660.87958230886	2963.39990234375
1661.49103263294	2940.60009765625
1662.10240266837	2929.39990234375
1662.71369242255	2930.60009765625
1663.32490190291	2930.39990234375
1663.93603111687	2912.39990234375
1664.54708007184	2886.19995117188
1665.15804877524	2862.39990234375
1665.7689372345	2873
1666.37974545703	2884.19995117188
1666.99047345024	2880.60009765625
1667.60112122156	2867.39990234375
1668.2116887784	2842.19995117188
1668.82217612818	2801.19995117188
1669.43258327831	2763.80004882813
1670.04291023622	2758.80004882813
1670.65315700931	2740.80004882813
1671.263323605	2708
1671.8734100307	2716.80004882813
1672.48341629384	2674.60009765625
1673.09334240182	2681.39990234375
1673.70318836206	2671.80004882813
1674.31295418197	2642.39990234375
1674.92263986896	2633.80004882813
1675.53224543046	2636.39990234375
1676.14177087386	2642.80004882813
1676.75121620658	2656.60009765625
1677.36058143604	2647.19995117188
1677.96986656964	2679
1678.5790716148	2696.80004882813
1679.18819657892	2728.80004882813
1679.79724146943	2749
1680.40620629372	2751.39990234375
1681.0150910592	2755.60009765625
1681.6238957733	2766.39990234375
1682.23262044341	2777.39990234375
1682.84126507694	2773.19995117188
1683.4498296813	2777
1684.0583142639	2786.19995117188
1684.66671883216	2799.39990234375
1685.27504339346	2777.19995117188
1685.88328795523	2731.80004882813
1686.49145252487	2706.39990234375
1687.09953710978	2685.80004882813
1687.70754171737	2696.60009765625
1688.31546635505	2699.39990234375
1688.92331103021	2739.60009765625
1689.53107575028	2757.60009765625
1690.13876052265	2766
1690.74636535472	2755.80004882813
1691.3538902539	2728.39990234375
1691.96133522759	2697
1692.5687002832	2680.39990234375
1693.17598542812	2660.39990234375
1693.78319066977	2639.80004882813
1694.39031601554	2628.80004882813
1694.99736147283	2625.80004882813
1695.60432704905	2677.80004882813
1696.2112127516	2689.39990234375
1696.81801858788	2723.60009765625
1697.42474456528	2728.80004882813
1698.03139069121	2694.60009765625
1698.63795697307	2704.60009765625
1699.24444341826	2685
1699.85085003417	2688
1700.45717682821	2682
1701.06342380778	2664.39990234375
1701.66959098026	2645.39990234375
1702.27567835307	2650.60009765625
1702.88168593359	2625.39990234375
1703.48761372922	2617.19995117188
1704.09346174737	2573
1704.69922999542	2570.80004882813
1705.30491848077	2561.19995117188
1705.91052721083	2580.39990234375
1706.51605619297	2594.80004882813
1707.12150543461	2601.80004882813
1707.72687494312	2595.60009765625
1708.33216472592	2581.39990234375
1708.93737479039	2551.80004882813
1709.54250514392	2560.39990234375
