634.977642221345	2516
635.719821695905	2510
636.461909203392	2527.80004882813
637.203904751776	2532.19995117188
637.945808349023	2554
638.687620003102	2559.19995117188
639.42933972198	2592.60009765625
640.170967513616	2578.80004882813
640.912503385981	2568.19995117188
641.653947347041	2557.80004882813
642.395299404758	2505.39990234375
643.13655956709	2492.60009765625
643.877727842014	2481.80004882813
644.61880423748	2439.60009765625
645.359788761455	2448.19995117188
646.100681421905	2493
646.841482226789	2516.60009765625
647.582191184074	2540.80004882813
648.322808301711	2513.60009765625
649.06333358767	2524.19995117188
649.803767049909	2532
650.544108696385	2539.80004882813
651.28435853506	2552.60009765625
652.024516573894	2578
652.764582820849	2579.19995117188
653.504557283875	2602.80004882813
654.244439970937	2618.39990234375
654.984230889991	2608.39990234375
655.723930048995	2632.19995117188
656.463537455909	2637
657.203053118683	2653
657.942477045275	2621.19995117188
658.681809243647	2622.80004882813
659.421049721747	2610.60009765625
660.160198487535	2574.60009765625
660.899255548962	2621
661.638220913985	2632.39990234375
662.377094590559	2644.39990234375
663.115876586631	2631
663.854566910165	2640.80004882813
664.593165569107	2631.60009765625
665.331672571406	2638.60009765625
666.07008792502	2617.80004882813
666.808411637902	2582
667.546643717996	2562.19995117188
668.284784173258	2550.60009765625
669.022833011641	2570.19995117188
669.760790241089	2573.60009765625
670.498655869554	2571.19995117188
671.236429904987	2554.39990234375
671.97411235534	2570.19995117188
672.711703228551	2640.39990234375
673.449202532577	2652.19995117188
674.186610275364	2654.60009765625
674.923926464857	2681.39990234375
675.661151109008	2700.19995117188
676.398284215759	2693.80004882813
677.135325793058	2692.39990234375
677.87227584885	2723.60009765625
678.609134391082	2758.80004882813
679.345901427696	2749.60009765625
680.082576966644	2726.19995117188
680.819161015861	2708.60009765625
681.555653583298	2691.80004882813
682.292054676895	2677.19995117188
683.028364304594	2667.19995117188
683.764582474344	2640.19995117188
684.500709194083	2639.60009765625
685.236744471752	2625.80004882813
685.972688315294	2642.39990234375
686.708540732652	2613
687.444301731762	2630.19995117188
688.179971320572	2632.19995117188
688.915549507013	2634
689.651036299034	2599.39990234375
690.386431704569	2588.39990234375
691.121735731559	2573.80004882813
691.85694838794	2584
692.592069681652	2564.60009765625
693.327099620632	2580.19995117188
694.062038212821	2582.39990234375
694.796885466149	2602.39990234375
695.531641388561	2660
696.266305987987	2675.60009765625
697.000879272367	2683
697.735361249632	2702.19995117188
698.469751927722	2687.19995117188
699.204051314568	2708.39990234375
699.938259418107	2685.80004882813
700.672376246272	2681
701.406401806997	2680
702.140336108212	2692.80004882813
702.874179157855	2684
703.607930963856	2686
704.341591534147	2685.19995117188
705.07516087666	2661.60009765625
705.808638999324	2668.39990234375
706.542025910073	2673.60009765625
707.275321616841	2686.39990234375
708.008526127549	2673.60009765625
708.741639450132	2672.80004882813
709.474661592521	2675.60009765625
710.207592562641	2682.60009765625
710.940432368424	2686.39990234375
711.673181017796	2697.39990234375
712.405838518687	2677.60009765625
713.138404879025	2641.19995117188
713.870880106731	2678.19995117188
714.603264209738	2654.80004882813
715.335557195971	2680.39990234375
716.067759073357	2697
716.799869849816	2693.39990234375
717.531889533281	2713
718.263818131673	2708
718.995655652917	2702
719.727402104934	2671.60009765625
720.45905749565	2651.80004882813
721.19062183299	2666.80004882813
721.922095124877	2652.19995117188
722.653477379231	2670
723.384768603973	2661.39990234375
724.11596880703	2697
724.847077996319	2720.80004882813
725.578096179762	2723.80004882813
726.309023365281	2730.80004882813
727.039859560792	2747.60009765625
727.770604774222	2730
728.501259013484	2718.39990234375
729.231822286501	2725.19995117188
729.962294601191	2733
730.692675965469	2700.60009765625
731.42296638726	2669.39990234375
732.153165874472	2664.80004882813
732.883274435032	2689
733.613292076851	2722
734.343218807843	2717.60009765625
735.07305463593	2728.80004882813
735.802799569028	2716.80004882813
736.532453615048	2697.39990234375
737.262016781904	2690.19995117188
737.991489077517	2685
738.720870509794	2688.39990234375
739.450161086654	2697.19995117188
740.179360816009	2697.60009765625
740.908469705772	2699.39990234375
741.637487763854	2725.19995117188
742.366414998168	2722.60009765625
743.095251416623	2763.80004882813
743.823997027137	2736.39990234375
744.552651837618	2724.19995117188
745.281215855978	2736
746.009689090124	2733.19995117188
746.738071547964	2698.39990234375
747.466363237419	2666.39990234375
748.194564166384	2679.60009765625
748.92267434278	2657.60009765625
749.650693774504	2684
750.378622469476	2662.60009765625
751.106460435596	2688.60009765625
751.834207680771	2696.60009765625
752.561864212909	2728.60009765625
753.289430039919	2705.19995117188
754.016905169707	2703.80004882813
754.744289610175	2699.19995117188
755.471583369231	2701
756.198786454782	2692.60009765625
756.925898874728	2667
757.652920636979	2676
758.379851749433	2657.39990234375
759.106692219996	2693.19995117188
759.833442056572	2725.60009765625
760.560101267063	2730.80004882813
761.28666985937	2760
762.0131478414	2759.60009765625
762.739535221046	2778.19995117188
763.465832006219	2753.80004882813
764.192038204812	2782.39990234375
764.918153824731	2782.39990234375
765.644178873872	2780
766.370113360138	2809.19995117188
767.095957291425	2855.19995117188
767.821710675635	2897.19995117188
768.547373520665	2919.39990234375
769.272945834415	2927
769.998427624781	2952.80004882813
770.723818899658	2945.19995117188
771.449119666949	2968.60009765625
772.174329934546	2963.80004882813
772.899449710347	2992.19995117188
773.624479002248	3018.39990234375
774.349417818145	3046.60009765625
775.074266165934	3037.80004882813
775.799024053505	3041.39990234375
776.523691488757	3023.19995117188
777.248268479582	2976
777.972755033877	2937.60009765625
778.69715115953	2868
779.421456864441	2842.80004882813
780.145672156493	2800.80004882813
780.869797043587	2814
781.593831533611	2816.60009765625
782.317775634457	2806.39990234375
783.041629354012	2789
783.765392700174	2781.60009765625
784.489065680828	2744.80004882813
785.212648303866	2719.39990234375
785.936140577177	2726.19995117188
786.659542508652	2741
787.382854106174	2726
788.106075377639	2750.39990234375
788.829206330928	2738.60009765625
789.552246973933	2779.80004882813
790.275197314542	2781.39990234375
790.998057360638	2767.39990234375
791.720827120108	2775
792.443506600841	2756.19995117188
793.166095810722	2735.60009765625
793.888594757635	2715.60009765625
794.611003449465	2705
795.333321894098	2727.80004882813
796.055550099417	2747.80004882813
796.777688073308	2758.19995117188
797.499735823654	2746.80004882813
798.221693358334	2701
798.943560685235	2727.60009765625
799.665337812239	2735.19995117188
800.387024747226	2729.19995117188
801.108621498075	2737.60009765625
801.830128072674	2744.60009765625
802.551544478902	2749.19995117188
803.272870724636	2750
803.994106817761	2739.39990234375
804.715252766148	2740
805.436308577687	2736.60009765625
806.157274260251	2694.39990234375
806.878149821721	2719.60009765625
807.598935269973	2706.60009765625
808.319630612886	2694.19995117188
809.040235858336	2686
809.760751014202	2711.80004882813
810.481176088361	2707.19995117188
811.201511088685	2717.39990234375
811.921756023059	2702.19995117188
812.641910899347	2687.60009765625
813.361975725432	2693.60009765625
814.081950509188	2698.80004882813
814.801835258489	2705.19995117188
815.521629981206	2684.39990234375
816.241334685218	2677.60009765625
816.960949378392	2670.39990234375
817.680474068606	2693.39990234375
818.399908763731	2691.19995117188
819.11925347164	2684
819.838508200202	2663.19995117188
820.55767295729	2664.39990234375
821.276747750778	2696.19995117188
821.995732588531	2668.19995117188
822.714627478425	2691.80004882813
823.433432428327	2712.39990234375
824.152147446105	2715
824.870772539632	2716
825.589307716775	2720
826.307752985404	2748
827.026108353378	2741.19995117188
827.744373828579	2726.19995117188
828.462549418867	2717.39990234375
829.180635132107	2712.19995117188
829.898630976168	2723.39990234375
830.616536958915	2751.39990234375
831.334353088218	2745.60009765625
832.052079371938	2757.60009765625
832.769715817942	2721.39990234375
833.487262434092	2741.80004882813
834.204719228255	2735.80004882813
834.922086208293	2718.60009765625
835.639363382073	2725
836.356550757456	2742.60009765625
837.073648342304	2723.80004882813
837.790656144484	2733
838.507574171847	2728.80004882813
839.22440243227	2690.80004882813
839.941140933601	2711.19995117188
840.657789683706	2689.19995117188
841.374348690448	2672.80004882813
842.090817961686	2702.80004882813
842.807197505276	2707
843.523487329083	2713.80004882813
844.23968744096	2704.80004882813
844.955797848771	2696.60009765625
845.671818560374	2706.39990234375
846.387749583622	2690.60009765625
847.103590926378	2679.39990234375
847.819342596497	2654.80004882813
848.535004601833	2651.39990234375
849.25057695025	2631.39990234375
849.966059649598	2633.19995117188
850.681452707735	2639
851.396756132513	2660.39990234375
852.111969931789	2674.80004882813
852.827094113419	2668.60009765625
853.542128685257	2697.60009765625
854.257073655158	2709.19995117188
854.971929030969	2722
855.686694820551	2739.80004882813
856.40137103175	2708.19995117188
857.115957672423	2674.39990234375
857.830454750423	2656.39990234375
858.544862273597	2640.60009765625
859.259180249797	2663.80004882813
859.97340868688	2691.19995117188
860.687547592688	2721.39990234375
861.401596975075	2712.19995117188
862.115556841891	2717.80004882813
862.829427200985	2710.80004882813
863.543208060205	2714.19995117188
864.256899427402	2739.39990234375
864.970501310423	2960.60009765625
865.684013717114	2713
866.397436655325	2669.80004882813
867.110770132901	2665.19995117188
867.824014157691	2649.39990234375
868.537168737542	2661
869.250233880299	2667.39990234375
869.963209593803	2651.80004882813
870.676095885902	2653.19995117188
871.388892764445	2649.39990234375
872.101600237276	2635
872.814218312233	2619
873.526746997165	2630.39990234375
874.239186299914	2636.19995117188
874.951536228323	2661.39990234375
875.663796790231	2641.60009765625
876.375967993487	2661.80004882813
877.088049845928	2642.39990234375
877.8000423554	2676
878.511945529739	2673
879.22375937679	2645.19995117188
879.935483904388	2646.39990234375
880.64711912038	2646.60009765625
881.358665032604	2635.39990234375
882.070121648892	2615.80004882813
882.78148897709	2599.19995117188
883.492767025039	2622
884.203955800571	2618.39990234375
884.915055311525	2648.80004882813
885.626065565741	2631.39990234375
886.336986571053	2618.60009765625
887.047818335298	2616.80004882813
887.758560866315	2610.80004882813
888.469214171937	2629.80004882813
889.179778260005	2624.19995117188
889.890253138347	2602.80004882813
890.600638814803	2582.60009765625
891.310935297204	2559
892.021142593385	2591.60009765625
892.731260711183	2595.19995117188
893.441289658429	2617.60009765625
894.15122944295	2611.19995117188
894.861080072591	2636.39990234375
895.570841555173	2617.39990234375
896.280513898534	2613.80004882813
896.990097110503	2630.80004882813
897.699591198913	2628.39990234375
898.408996171595	2629.19995117188
899.118312036375	2656.19995117188
899.827538801089	2648.19995117188
900.536676473561	2653
901.245725061628	2648.19995117188
901.954684573109	2652.39990234375
902.663555015838	2714.80004882813
903.372336397644	2687.80004882813
904.081028726351	2698.80004882813
904.789632009793	2713.80004882813
905.49814625579	2702.19995117188
906.20657147217	2679
906.914907666765	2673.19995117188
907.623154847391	2664.60009765625
908.331313021885	2680.19995117188
909.039382198064	2651.60009765625
909.747362383754	2670.39990234375
910.455253586782	2677
911.163055814972	2677.80004882813
911.870769076143	2656.19995117188
912.578393378126	2650.60009765625
913.285928728738	2652.19995117188
913.993375135802	2648
914.700732607145	2640.19995117188
915.408001150579	2654.60009765625
916.115180773937	2679.60009765625
916.822271485037	2696.39990234375
917.529273291693	2698.80004882813
918.236186201733	2713.80004882813
918.943010222971	2690.19995117188
919.649745363234	2699.60009765625
920.356391630333	2668
921.062949032096	2681.19995117188
921.769417576333	2648.19995117188
922.475797270864	2652.39990234375
923.182088123512	2663.60009765625
923.888290142089	2663.80004882813
924.594403334414	2679.60009765625
925.300427708304	2701.39990234375
926.006363271572	2707.60009765625
926.712210032039	2706
927.417967997522	2692.19995117188
928.123637175827	2699
928.829217574776	2687.19995117188
929.534709202184	2685.19995117188
930.240112065859	2694
930.945426173621	2682.60009765625
931.650651533283	2680
932.355788152653	2663
933.060836039547	2657.19995117188
933.765795201776	2635.80004882813
934.470665647153	2629.80004882813
935.175447383492	2603.60009765625
935.880140418599	2612.19995117188
936.584744760286	2626.19995117188
937.289260416366	2642.80004882813
937.993687394647	2646.80004882813
938.698025702939	2678.39990234375
939.402275349051	2690.39990234375
940.106436340793	2698.80004882813
940.810508685976	2716.60009765625
941.5144923924	2714.80004882813
942.21838746788	2694.39990234375
942.922193920223	2668
943.625911757231	2637.80004882813
944.329540986716	2622.19995117188
945.033081616484	2595
945.736533654334	2594
946.439897108083	2573.60009765625
947.143171985529	2567.80004882813
947.846358294477	2596.80004882813
948.549456042732	2586.19995117188
949.2524652381	2592.60009765625
949.955385888382	2618.60009765625
950.658218001384	2633.60009765625
951.360961584907	2639
952.063616646755	2641.39990234375
952.766183194733	2651.60009765625
953.468661236636	2636.39990234375
954.171050780271	2631.19995117188
954.873351833437	2646
955.575564403935	2619.80004882813
956.277688499565	2615.80004882813
956.97972412813	2605
957.681671297424	2605.19995117188
958.383530015255	2605.19995117188
959.085300289414	2593.39990234375
959.786982127703	2610.19995117188
960.488575537918	2584.19995117188
961.190080527859	2602
961.891497105327	2573.60009765625
962.592825278111	2553.80004882813
963.294065054012	2576
963.995216440829	2575.19995117188
964.696279446353	2588
965.397254078383	2583
966.098140344714	2599.80004882813
966.798938253139	2585.60009765625
967.499647811456	2585.19995117188
968.200269027458	2576.39990234375
968.900801908937	2588.39990234375
969.601246463685	2563.80004882813
970.3016026995	2548.60009765625
971.001870624169	2555.60009765625
971.702050245491	2567.80004882813
972.402141571249	2561.80004882813
973.102144609245	2542.39990234375
973.802059367267	2556.39990234375
974.501885853103	2580.19995117188
975.201624074541	2580.60009765625
975.901274039379	2591.19995117188
976.600835755399	2607.60009765625
977.3003092304	2600.19995117188
977.999694472158	2602.80004882813
978.698991488473	2587
979.39820028713	2578.80004882813
980.097320875915	2569.19995117188
980.796353262618	2583.39990234375
981.495297455024	2589.60009765625
982.194153460919	2626.39990234375
982.892921288093	2614.60009765625
983.591600944331	2612
984.290192437419	2615.80004882813
984.98869577514	2616.39990234375
985.687110965282	2586.60009765625
986.385438015629	2565.60009765625
987.083676933961	2570.80004882813
987.781827728069	2557.60009765625
988.479890405732	2575.80004882813
989.177864974732	2539.80004882813
989.875751442857	2563.39990234375
990.573549817888	2575
991.271260107602	2601.19995117188
991.968882319786	2605.19995117188
992.666416462217	2597.19995117188
993.363862542681	2583.80004882813
994.061220568959	2557.39990234375
994.758490548823	2548.39990234375
995.455672490061	2553.80004882813
996.152766400451	2554.19995117188
996.849772287773	2567.60009765625
997.5466901598	2576.19995117188
998.243520024317	2568.19995117188
998.940261889097	2562.39990234375
999.636915761923	2541
1000.33348165057	2543.19995117188
1001.02995956281	2525.80004882813
1001.72634950643	2527.60009765625
1002.42265148919	2536.60009765625
1003.11886551889	2544.80004882813
1003.81499160328	2569.39990234375
1004.51102975015	2590.39990234375
1005.20697996727	2604.19995117188
1005.90284226242	2597.39990234375
1006.59861664337	2607
1007.2943031179	2600.39990234375
1007.98990169377	2612
1008.68541237876	2609
1009.38083518064	2617.60009765625
1010.07617010719	2622
1010.77141716617	2631.39990234375
1011.46657636536	2612.39990234375
1012.16164771253	2600.60009765625
1012.85663121546	2594.60009765625
1013.5515268819	2556.60009765625
1014.24633471963	2542.80004882813
1014.94105473642	2565.19995117188
1015.63568694004	2558
1016.33023133826	2570.60009765625
1017.02468793885	2587.60009765625
1017.71905674957	2589.80004882813
1018.41333777819	2581.19995117188
1019.10753103249	2571
1019.80163652022	2577.80004882813
1020.49565424916	2574.60009765625
1021.18958422707	2575.80004882813
1021.88342646171	2575.80004882813
1022.57718096085	2559.80004882813
1023.27084773227	2571.39990234375
1023.96442678371	2570.39990234375
1024.65791812296	2558.39990234375
1025.35132175776	2529
1026.04463769589	2501
1026.73786594511	2483.60009765625
1027.43100651318	2472
1028.12405940786	2468.60009765625
1028.81702463692	2460.60009765625
1029.50990220812	2490
1030.20269212921	2501
1030.89539440798	2514.39990234375
1031.58800905216	2516.80004882813
1032.28053606952	2489.80004882813
1032.97297546784	2463.19995117188
1033.66532725485	2486.80004882813
1034.35759143832	2498
1035.04976802602	2496.19995117188
1035.7418570257	2495.60009765625
1036.43385844511	2484.60009765625
1037.12577229202	2474.60009765625
1037.81759857419	2465
1038.50933729937	2473
1039.20098847531	2515
1039.89255210978	2519.60009765625
1040.58402821053	2536.80004882813
1041.27541678532	2522.80004882813
1041.96671784191	2498.19995117188
1042.65793138804	2500.19995117188
1043.34905743147	2504.19995117188
1044.04009597996	2508.19995117188
1044.73104704125	2530.80004882813
1045.42191062312	2525
1046.1126867333	2524.39990234375
1046.80337537955	2531
1047.49397656962	2544.19995117188
1048.18449031127	2550.80004882813
1048.87491661225	2531.19995117188
1049.5652554803	2514.60009765625
1050.25550692319	2464.39990234375
1050.94567094865	2456.80004882813
1051.63574756444	2440.80004882813
1052.32573677832	2452.80004882813
1053.01563859803	2480.19995117188
1053.70545303131	2478.19995117188
1054.39518008592	2474.39990234375
1055.08481976961	2467.39990234375
1055.77437209013	2489.60009765625
1056.46383705522	2503.60009765625
1057.15321467262	2487.60009765625
1057.8425049501	2476.80004882813
1058.53170789539	2464
1059.22082351624	2463.60009765625
1059.9098518204	2421.39990234375
1060.59879281561	2439.19995117188
1061.28764650962	2430.60009765625
1061.97641291016	2424.19995117188
1062.665092025	2443
1063.35368386187	2453.60009765625
1064.04218842851	2446.60009765625
1064.73060573268	2429.19995117188
1065.4189357821	2412.80004882813
1066.10717858452	2408.19995117188
1066.7953341477	2399.80004882813
1067.48340247936	2383.80004882813
1068.17138358725	2379.39990234375
1068.85927747912	2421
1069.5470841627	2430.19995117188
1070.23480364573	2434.80004882813
1070.92243593595	2447.39990234375
1071.60998104111	2469.60009765625
1072.29743896894	2454.39990234375
1072.98480972718	2462.80004882813
1073.67209332357	2486.60009765625
1074.35928976585	2475.60009765625
1075.04639906176	2487.60009765625
1075.73342121903	2485.39990234375
1076.42035624541	2470.39990234375
1077.10720414862	2478
1077.79396493641	2501.19995117188
1078.48063861651	2518
1079.16722519666	2469.80004882813
1079.85372468459	2462
1080.54013708804	2465.60009765625
1081.22646241474	2421.39990234375
1081.91270067243	2435
1082.59885186884	2440.60009765625
1083.28491601171	2464.19995117188
1083.97089310877	2496
1084.65678316774	2500.80004882813
1085.34258619637	2510.60009765625
1086.02830220239	2516.19995117188
1086.71393119352	2494
1087.39947317751	2477
1088.08492816207	2468.60009765625
1088.77029615495	2501.39990234375
1089.45557716387	2505
1090.14077119656	2516
1090.82587826075	2505.39990234375
1091.51089836417	2502.80004882813
1092.19583151456	2484.80004882813
1092.88067771963	2485.80004882813
1093.56543698712	2494.60009765625
1094.25010932475	2478.80004882813
1094.93469474026	2488.39990234375
1095.61919324137	2462.39990234375
1096.3036048358	2467.60009765625
1096.98792953129	2475
1097.67216733555	2457.60009765625
1098.35631825632	2453.19995117188
1099.04038230132	2475
1099.72435947828	2473
1100.40824979492	2448.19995117188
1101.09205325895	2430.19995117188
1101.77576987812	2440
1102.45939966014	2374.80004882813
1103.14294261273	2369
1103.82639874362	2376.80004882813
1104.50976806054	2391
1105.19305057119	2372
1105.87624628331	2407.39990234375
1106.55935520461	2446
1107.24237734283	2454.39990234375
1107.92531270566	2469.60009765625
1108.60816130085	2454.19995117188
1109.2909231361	2467
1109.97359821914	2467
1110.65618655768	2477
1111.33868815946	2495.19995117188
1112.02110303217	2520
1112.70343118355	2495.39990234375
1113.3856726213	2496.80004882813
1114.06782735316	2485.80004882813
1114.74989538683	2463.39990234375
1115.43187673002	2430.39990234375
1116.11377139047	2426
1116.79557937588	2419.60009765625
1117.47730069397	2424.39990234375
1118.15893535245	2447.60009765625
1118.84048335904	2486
1119.52194472146	2486.80004882813
1120.20331944741	2483.80004882813
1120.88460754462	2484
1121.56580902079	2463.80004882813
1122.24692388364	2450.80004882813
1122.92795214088	2465.80004882813
1123.60889380022	2469
1124.28974886938	2487.39990234375
1124.97051735606	2494.60009765625
1125.65119926799	2533.80004882813
1126.33179461286	2533.80004882813
1127.0123033984	2522.19995117188
1127.6927256323	2555.80004882813
1128.37306132229	2537.60009765625
1129.05331047606	2523.39990234375
1129.73347310134	2513.19995117188
1130.41354920582	2528.19995117188
1131.09353879722	2501.80004882813
1131.77344188324	2493.80004882813
1132.45325847159	2502.60009765625
1133.13298856999	2492.39990234375
1133.81263218612	2511.80004882813
1134.49218932772	2492.19995117188
1135.17166000247	2462.60009765625
1135.85104421809	2471.19995117188
1136.53034198227	2455.39990234375
1137.20955330274	2424.60009765625
1137.88867818718	2393
1138.56771664331	2433.60009765625
1139.24666867883	2415.60009765625
1139.92553430144	2438.19995117188
1140.60431351885	2458.39990234375
1141.28300633876	2442.39990234375
1141.96161276887	2469.60009765625
1142.64013281689	2477.80004882813
1143.31856649051	2462.80004882813
1143.99691379744	2451.80004882813
1144.67517474538	2459
1145.35334934203	2437.19995117188
1146.03143759509	2432.60009765625
1146.70943951226	2405.80004882813
1147.38735510125	2370.19995117188
1148.06518436974	2375.80004882813
1148.74292732545	2372.39990234375
1149.42058397606	2361.19995117188
1150.09815432928	2400.19995117188
1150.7756383928	2382.60009765625
1151.45303617432	2411.60009765625
1152.13034768155	2426.19995117188
1152.80757292217	2441
1153.48471190389	2463.39990234375
1154.16176463439	2457.19995117188
1154.83873112138	2439.19995117188
1155.51561137255	2433.19995117188
1156.1924053956	2425.19995117188
1156.86911319822	2420
1157.5457347881	2442.19995117188
1158.22227017294	2432.60009765625
1158.89871936044	2404.60009765625
1159.57508235828	2387.80004882813
1160.25135917416	2403.19995117188
1160.92754981578	2416.80004882813
1161.60365429081	2387.39990234375
1162.27967260697	2419.39990234375
1162.95560477193	2404.60009765625
1163.63145079339	2408.80004882813
1164.30721067904	2419.39990234375
1164.98288443657	2392.19995117188
1165.65847207367	2395.80004882813
1166.33397359803	2406.19995117188
1167.00938901735	2398
1167.6847183393	2402.80004882813
1168.35996157157	2424.60009765625
1169.03511872187	2427.19995117188
1169.71018979787	2443.19995117188
1170.38517480726	2418.60009765625
1171.06007375773	2429.19995117188
1171.73488665696	2407.60009765625
1172.40961351265	2398.19995117188
1173.08425433247	2415.19995117188
1173.75880912412	2417.60009765625
1174.43327789528	2419.19995117188
1175.10766065364	2430.39990234375
1175.78195740687	2429
1176.45616816267	2460.39990234375
1177.13029292871	2447.60009765625
1177.80433171269	2434.80004882813
1178.47828452229	2424.39990234375
1179.15215136518	2455.19995117188
1179.82593224905	2448
1180.49962718159	2459.80004882813
1181.17323617047	2466.39990234375
1181.84675922337	2459
1182.52019634799	2468.60009765625
1183.193547552	2481.19995117188
1183.86681284307	2500.39990234375
1184.53999222889	2496.19995117188
1185.21308571714	2502.19995117188
1185.8860933155	2483.60009765625
1186.55901503165	2455.60009765625
1187.23185087326	2486.60009765625
1187.90460084802	2473.19995117188
1188.5772649636	2476
1189.24984322768	2477.80004882813
1189.92233564794	2481
1190.59474223206	2492.39990234375
1191.2670629877	2486
1191.93929792255	2488
1192.61144704428	2495.60009765625
1193.28351036058	2495
1193.9554878791	2461.60009765625
1194.62737960754	2442
1195.29918555356	2449.19995117188
1195.97090572483	2461.80004882813
1196.64254012903	2463.39990234375
1197.31408877384	2454.39990234375
1197.98555166693	2469.19995117188
1198.65692881596	2465.39990234375
1199.32822022862	2456.60009765625
1199.99942591256	2442.60009765625
1200.67054587548	2437.60009765625
1201.34158012503	2429.39990234375
1202.01252866889	2424.60009765625
1202.68339151473	2401.39990234375
1203.35416867021	2379.80004882813
1204.02486014301	2395
1204.6954659408	2398.39990234375
1205.36598607124	2401.39990234375
1206.03642054201	2417.80004882813
1206.70676936078	2422.19995117188
1207.3770325352	2418.39990234375
1208.04721007295	2431.19995117188
1208.7173019817	2403.80004882813
1209.38730826911	2403.80004882813
1210.05722894285	2403.39990234375
1210.72706401059	2370.19995117188
1211.39681347999	2364.60009765625
1212.06647735872	2365.19995117188
1212.73605565444	2361.80004882813
1213.40554837481	2355.60009765625
1214.07495552751	2389.19995117188
1214.74427712019	2375
1215.41351316052	2375.80004882813
1216.08266365617	2394.60009765625
1216.75172861479	2394.80004882813
1217.42070804405	2381.39990234375
1218.0896019516	2356.60009765625
1218.75841034513	2379.39990234375
1219.42713323227	2393.60009765625
1220.0957706207	2410.80004882813
1220.76432251808	2410
1221.43278893207	2426.80004882813
1222.10116987032	2426.19995117188
1222.7694653405	2424
1223.43767535026	2434.60009765625
1224.10579990727	2404.19995117188
1224.77383901918	2392.60009765625
1225.44179269366	2383.80004882813
1226.10966093835	2372.80004882813
1226.77744376093	2388.19995117188
1227.44514116904	2374.19995117188
1228.11275317034	2395.39990234375
1228.78027977249	2389.60009765625
1229.44772098315	2375.39990234375
1230.11507680996	2368
1230.7823472606	2354.80004882813
1231.44953234271	2351.39990234375
1232.11663206394	2330.60009765625
1232.78364643195	2346.60009765625
1233.4505754544	2349.60009765625
1234.11741913894	2336.19995117188
1234.78417749322	2343.60009765625
1235.45085052489	2330.19995117188
1236.11743824162	2340
1236.78394065104	2339.80004882813
1237.45035776082	2343.19995117188
1238.1166895786	2335.19995117188
1238.78293611204	2373.39990234375
1239.44909736878	2376
1240.11517335648	2349
1240.78116408279	2371.19995117188
1241.44706955535	2377.39990234375
1242.11288978182	2340.19995117188
1242.77862476985	2336
1243.44427452708	2310.39990234375
1244.10983906116	2303.60009765625
1244.77531837974	2299.60009765625
1245.44071249047	2320.80004882813
1246.106021401	2325.80004882813
1246.77124511898	2321.19995117188
1247.43638365204	2337.80004882813
1248.10143700783	2343
1248.76640519401	2343.80004882813
1249.43128821822	2334.39990234375
1250.0960860881	2351.39990234375
1250.76079881129	2337.19995117188
1251.42542639545	2327.19995117188
1252.08996884822	2297.19995117188
1252.75442617723	2296.19995117188
1253.41879839014	2304.60009765625
1254.08308549458	2303.80004882813
1254.74728749821	2321.80004882813
1255.41140440866	2339
1256.07543623357	2321.19995117188
1256.73938298059	2307
1257.40324465735	2290.19995117188
1258.0670212715	2293.80004882813
1258.73071283068	2299
1259.39431934253	2299.60009765625
1260.05784081468	2295.60009765625
1260.72127725479	2306.60009765625
1261.38462867049	2300
1262.0478950694	2305
1262.71107645919	2285.19995117188
1263.37417284748	2292
1264.03718424191	2309.39990234375
1264.70011065011	2300.39990234375
1265.36295207974	2300.19995117188
1266.02570853841	2323.19995117188
1266.68838003378	2300.80004882813
1267.35096657346	2309
1268.01346816511	2298.60009765625
1268.67588481636	2289.19995117188
1269.33821653483	2270.39990234375
1270.00046332817	2283
1270.66262520401	2290.19995117188
1271.32470216998	2319.80004882813
1271.98669423372	2313
1272.64860140285	2300.19995117188
1273.31042368503	2291.39990234375
1273.97216108786	2286.19995117188
1274.633813619	2298.19995117188
1275.29538128606	2310.80004882813
1275.95686409669	2306
1276.6182620585	2298.80004882813
1277.27957517914	2294.60009765625
1277.94080346624	2292.60009765625
1278.60194692741	2275.39990234375
1279.2630055703	2300.80004882813
1279.92397940253	2312
1280.58486843173	2295.19995117188
1281.24567266552	2290.19995117188
1281.90639211155	2267.19995117188
1282.56702677743	2268
1283.2275766708	2278.19995117188
1283.88804179927	2296.19995117188
1284.54842217049	2277.80004882813
1285.20871779206	2257.80004882813
1285.86892867163	2266.80004882813
1286.52905481681	2276.80004882813
1287.18909623523	2280.19995117188
1287.84905293452	2295.60009765625
1288.5089249223	2299.39990234375
1289.16871220619	2306
1289.82841479383	2320.19995117188
1290.48803269282	2314
1291.1475659108	2297.60009765625
1291.80701445539	2282.39990234375
1292.46637833421	2265.60009765625
1293.12565755489	2263.80004882813
1293.78485212504	2267.80004882813
1294.44396205229	2265
1295.10298734425	2256
1295.76192800856	2262.80004882813
1296.42078405283	2259.60009765625
1297.07955548467	2270.39990234375
1297.73824231171	2281.60009765625
1298.39684454158	2279.60009765625
1299.05536218188	2273.80004882813
1299.71379524023	2315.60009765625
1300.37214372427	2308.60009765625
1301.03040764159	2303.19995117188
1301.68858699983	2301.39990234375
1302.34668180659	2289
1303.0046920695	2272
1303.66261779617	2288.19995117188
1304.32045899422	2310.80004882813
1304.97821567126	2298.60009765625
1305.63588783492	2329
1306.29347549279	2316.39990234375
1306.95097865251	2317.19995117188
1307.60839732168	2301
1308.26573150791	2331.39990234375
1308.92298121883	2329
1309.58014646204	2324
1310.23722724517	2316.19995117188
1310.89422357581	2321.39990234375
1311.55113546158	2321.60009765625
1312.2079629101	2323.19995117188
1312.86470592898	2363.39990234375
1313.52136452582	2363
1314.17793870824	2335.19995117188
1314.83442848386	2345.60009765625
1315.49083386027	2356.19995117188
1316.14715484509	2356.80004882813
1316.80339144594	2357.19995117188
1317.45954367041	2343
1318.11561152611	2343.60009765625
1318.77159502067	2354
1319.42749416168	2339.60009765625
1320.08330895674	2348
1320.73903941348	2339.60009765625
1321.3946855395	2317.80004882813
1322.0502473424	2301.60009765625
1322.70572482978	2290.39990234375
1323.36111800926	2291.80004882813
1324.01642688845	2321.39990234375
1324.67165147494	2300
1325.32679177634	2317.19995117188
1325.98184780025	2314.80004882813
1326.63681955429	2305.19995117188
1327.29170704605	2294.19995117188
1327.94651028314	2277.60009765625
1328.60122927316	2276.39990234375
1329.25586402371	2267.19995117188
1329.9104145424	2265
1330.56488083683	2248
1331.2192629146	2270
1331.87356078331	2251.60009765625
1332.52777445056	2254.80004882813
1333.18190392395	2284.80004882813
1333.83594921109	2251.60009765625
1334.48991031958	2254.39990234375
1335.143787257	2265.19995117188
1335.79758003097	2252
1336.45128864908	2246.39990234375
1337.10491311893	2263.19995117188
1337.75845344813	2236.80004882813
1338.41190964425	2238
1339.06528171491	2244.19995117188
1339.71856966771	2233.80004882813
1340.37177351023	2220.39990234375
1341.02489325007	2229
1341.67792889484	2183.19995117188
1342.33088045212	2190.19995117188
1342.98374792952	2170.39990234375
1343.63653133462	2172.60009765625
1344.28923067503	2195.60009765625
1344.94184595833	2195.60009765625
1345.59437719212	2226
1346.246824384	2235.80004882813
1346.89918754155	2267.19995117188
1347.55146667238	2257.80004882813
1348.20366178407	2256.80004882813
1348.85577288421	2260.60009765625
1349.50779998041	2249.60009765625
1350.15974308024	2236.80004882813
1350.8116021913	2257.19995117188
1351.46337732119	2256.60009765625
1352.11506847748	2254.19995117188
1352.76667566778	2266.60009765625
1353.41819889967	2267.39990234375
1354.06963818074	2286.80004882813
1354.72099351858	2290.19995117188
1355.37226492079	2298
1356.02345239494	2315.80004882813
1356.67455594862	2331.80004882813
1357.32557558943	2378.19995117188
1357.97651132496	2414.19995117188
1358.62736316277	2431.19995117188
1359.27813111048	2421.39990234375
1359.92881517565	2443
1360.57941536589	2474
1361.22993168876	2459.19995117188
1361.88036415186	2467
1362.53071276278	2491.80004882813
1363.1809775291	2500
1363.8311584584	2501.39990234375
1364.48125555826	2499.60009765625
1365.13126883627	2455.19995117188
1365.78119830001	2403.60009765625
1366.43104395707	2384.19995117188
1367.08080581503	2367.39990234375
1367.73048388147	2330
1368.38007816397	2321
1369.02958867011	2300.39990234375
1369.67901540748	2297.39990234375
1370.32835838365	2315.80004882813
1370.9776176062	2296
1371.62679308273	2293.60009765625
1372.27588482079	2288.60009765625
1372.92489282798	2286.39990234375
1373.57381711188	2289.60009765625
1374.22265768006	2298.60009765625
1374.87141454009	2281.39990234375
1375.52008769957	2243.39990234375
1376.16867716606	2239.80004882813
1376.81718294715	2242.60009765625
1377.4656050504	2225
1378.1139434834	2223.60009765625
1378.76219825373	2221.80004882813
1379.41036936895	2225.39990234375
1380.05845683664	2223.60009765625
1380.70646066439	2219.60009765625
1381.35438085976	2235.39990234375
1382.00221743032	2213.80004882813
1382.64997038366	2228
1383.29763972735	2229
1383.94522546895	2231.80004882813
1384.59272761605	2229.80004882813
1385.24014617621	2236
1385.88748115701	2219.60009765625
1386.53473256602	2222
1387.18190041081	2208.80004882813
1387.82898469895	2212.39990234375
1388.47598543802	2200.19995117188
1389.12290263558	2202.60009765625
1389.7697362992	2172.60009765625
1390.41648643646	2175.39990234375
1391.06315305492	2157.39990234375
1391.70973616215	2158.80004882813
1392.35623576573	2154.39990234375
1393.00265187321	2146.19995117188
1393.64898449217	2161.39990234375
1394.29523363018	2172.80004882813
1394.94139929481	2170
1395.58748149361	2142.19995117188
1396.23348023415	2162.19995117188
1396.87939552402	2130.19995117188
1397.52522737076	2108.19995117188
1398.17097578195	2088.80004882813
1398.81664076514	2078.19995117188
1399.46222232792	2080
1400.10772047783	2080.60009765625
1400.75313522245	2060
1401.39846656934	2083.60009765625
1402.04371452605	2110
1402.68887910016	2106.39990234375
1403.33396029924	2103.60009765625
1403.97895813083	2112.19995117188
1404.6238726025	2123.39990234375
1405.26870372182	2134.19995117188
1405.91345149634	2120.60009765625
1406.55811593363	2109.60009765625
1407.20269704125	2087.60009765625
1407.84719482676	2107.80004882813
1408.49160929772	2116.39990234375
1409.13594046168	2118.19995117188
1409.78018832622	2093
1410.42435289887	2100.39990234375
1411.06843418722	2101.19995117188
1411.7124321988	2106.39990234375
1412.3563469412	2117.60009765625
1413.00017842194	2117.80004882813
1413.64392664861	2161.60009765625
1414.28759162875	2166
1414.93117336992	2157
1415.57467187967	2154.80004882813
1416.21808716557	2135.60009765625
1416.86141923516	2155.39990234375
1417.50466809601	2146.80004882813
1418.14783375567	2151.80004882813
1418.79091622169	2145.39990234375
1419.43391550162	2156.39990234375
1420.07683160303	2157.60009765625
1420.71966453346	2135.19995117188
1421.36241430046	2142
1422.0050809116	2142.19995117188
1422.64766437442	2159
1423.29016469647	2183.80004882813
1423.93258188531	2191
1424.57491594848	2173.39990234375
1425.21716689354	2160.39990234375
1425.85933472805	2170.80004882813
1426.50141945954	2157.39990234375
1427.14342109557	2138.39990234375
1427.78533964369	2157.80004882813
1428.42717511144	2150.80004882813
1429.06892750639	2139.19995117188
1429.71059683607	2120
1430.35218310803	2113.80004882813
1430.99368632983	2146.39990234375
1431.635106509	2159.39990234375
1432.2764436531	2155.39990234375
1432.91769776967	2149.19995117188
1433.55886886627	2139.80004882813
1434.19995695043	2144.39990234375
1434.84096202969	2153.19995117188
1435.48188411162	2133.80004882813
1436.12272320375	2146.80004882813
1436.76347931363	2134
1437.40415244879	2131
1438.0447426168	2125.39990234375
1438.68524982518	2125
1439.32567408148	2126
1439.96601539325	2089.60009765625
1440.60627376803	2111.60009765625
1441.24644921336	2066.80004882813
1441.88654173678	2070.60009765625
1442.52655134583	2073
1443.16647804806	2077.80004882813
1443.806321851	2096.39990234375
1444.4460827622	2090
1445.0857607892	2089.39990234375
1445.72535593953	2079
1446.36486822074	2078.80004882813
1447.00429764037	2064.19995117188
1447.64364420595	2078
1448.28290792502	2079
1448.92208880512	2083.80004882813
1449.56118685379	2082.19995117188
1450.20020207857	2084.19995117188
1450.83913448699	2080
1451.47798408659	2109
1452.1167508849	2101.80004882813
1452.75543488947	2112.19995117188
1453.39403610782	2099.80004882813
1454.0325545475	2075.80004882813
1454.67099021603	2073.19995117188
1455.30934312097	2107.80004882813
1455.94761326982	2097.80004882813
1456.58580067014	2093.39990234375
1457.22390532945	2097.19995117188
1457.86192725529	2097.19995117188
1458.49986645519	2090.80004882813
1459.13772293668	2092.39990234375
1459.7754967073	2070.39990234375
1460.41318777457	2072.39990234375
1461.05079614604	2071.60009765625
1461.68832182922	2052.60009765625
1462.32576483166	2054.60009765625
1462.96312516087	2038.19995117188
1463.6004028244	2036.59997558594
1464.23759782977	2064.19995117188
1464.8747101845	2094.80004882813
1465.51173989614	2107.19995117188
1466.14868697221	2103
1466.78555142024	2079.80004882813
1467.42233324774	2087.60009765625
1468.05903246227	2067
1468.69564907133	2074.39990234375
1469.33218308246	2067.19995117188
1469.96863450317	2073.19995117188
1470.60500334102	2084.19995117188
1471.2412896035	2102
1471.87749329816	2105.80004882813
1472.51361443251	2108.39990234375
1473.14965301409	2100.19995117188
1473.78560905041	2100.80004882813
1474.421482549	2112.60009765625
1475.05727351739	2109.60009765625
1475.69298196309	2088.19995117188
1476.32860789364	2100.39990234375
1476.96415131654	2090.39990234375
1477.59961223934	2088.60009765625
1478.23499066954	2062
1478.87028661467	2064
1479.50550008226	2059.60009765625
1480.14063107981	2062.39990234375
1480.77567961486	2058.80004882813
1481.41064569492	2042.40002441406
1482.04552932752	2031
1482.68033052017	2036.40002441406
1483.31504928039	2060.80004882813
1483.9496856157	2053.19995117188
1484.58423953363	2059.39990234375
1485.21871104168	2088
1485.85310014738	2063.80004882813
1486.48740685824	2054.39990234375
1487.12163118178	2058.19995117188
1487.75577312553	2055
1488.38983269698	2051.80004882813
1489.02380990367	2060.19995117188
1489.65770475311	2070.80004882813
1490.29151725281	2084
1490.92524741029	2100.39990234375
1491.55889523306	2080.80004882813
1492.19246072863	2072.60009765625
1492.82594390453	2083.60009765625
1493.45934476826	2094.80004882813
1494.09266332734	2086.80004882813
1494.72589958928	2097.60009765625
1495.3590535616	2105.19995117188
1495.99212525181	2121.19995117188
1496.62511466741	2128.60009765625
1497.25802181592	2108.80004882813
1497.89084670485	2111.80004882813
1498.52358934172	2112.60009765625
1499.15624973403	2134.19995117188
1499.7888278893	2121.60009765625
1500.42132381503	2154
1501.05373751873	2147.60009765625
1501.68606900792	2177.19995117188
1502.31831829009	2203
1502.95048537277	2206.60009765625
1503.58257026346	2232.80004882813
1504.21457296966	2241
1504.84649349889	2264
1505.47833185864	2275.80004882813
1506.11008805644	2283
1506.74176209978	2265.39990234375
1507.37335399617	2269
1508.00486375312	2256.80004882813
1508.63629137813	2261
1509.2676368787	2251.19995117188
1509.89890026235	2256.19995117188
1510.53008153658	2269.39990234375
1511.16118070889	2278.80004882813
1511.79219778677	2281.19995117188
1512.42313277775	2248.80004882813
1513.05398568932	2242.19995117188
1513.68475652898	2224.19995117188
1514.31544530424	2256
1514.9460520226	2219.80004882813
1515.57657669155	2193
1516.20701931861	2165.19995117188
1516.83737991127	2146.80004882813
1517.46765847702	2118.60009765625
1518.09785502339	2122.39990234375
1518.72796955785	2146.39990234375
1519.35800208792	2126
1519.98795262109	2119.39990234375
1520.61782116486	2119.80004882813
1521.24760772673	2114.39990234375
1521.87731231419	2127.19995117188
1522.50693493475	2112
1523.1364755959	2098.60009765625
1523.76593430514	2109.60009765625
1524.39531106997	2094
1525.02460589788	2105.19995117188
1525.65381879637	2078.19995117188
1526.28294977293	2057.60009765625
1526.91199883507	2044.59997558594
1527.54096599027	2022
1528.16985124603	2006.59997558594
1528.79865460984	2016.19995117188
1529.4273760892	2034.80004882813
1530.05601569161	2030
1530.68457342455	2039.40002441406
1531.31304929552	2053.39990234375
1531.94144331201	2041.59997558594
1532.56975548151	2045.80004882813
1533.19798581152	2060.60009765625
1533.82613430953	2070.39990234375
1534.45420098302	2062
1535.08218583949	2068
1535.71008888643	2050.19995117188
1536.33791013134	2053
1536.96564958169	2037.19995117188
1537.59330724498	2050.39990234375
1538.22088312871	2041.59997558594
1538.84837724034	2023.40002441406
1539.47578958739	2025.40002441406
1540.10312017733	2026.59997558594
1540.73036901765	2000.80004882813
1541.35753611584	2024
1541.98462147939	1992.19995117188
1542.61162511578	1989.80004882813
1543.2385470325	1990.40002441406
1543.86538723704	2011
1544.49214573688	2014.59997558594
1545.11882253951	2012.40002441406
1545.74541765241	2032.80004882813
1546.37193108306	2055.60009765625
1546.99836283896	2032
1547.62471292758	2037.80004882813
1548.25098135641	2018.80004882813
1548.87716813294	2006.80004882813
1549.50327326464	2017.40002441406
1550.12929675899	2027
1550.75523862349	2010.40002441406
1551.38109886561	2012.80004882813
1552.00687749284	2014.59997558594
1552.63257451264	2024.40002441406
1553.25818993252	2020.59997558594
1553.88372375994	2006
1554.50917600239	1993.59997558594
1555.13454666734	1989.19995117188
1555.75983576228	1974.59997558594
1556.38504329469	1986.80004882813
1557.01016927204	1982.59997558594
1557.63521370181	1981
1558.26017659149	1970
1558.88505794854	1988.80004882813
1559.50985778045	1986.80004882813
1560.13457609469	2010.19995117188
1560.75921289874	2003.19995117188
1561.38376820008	2003.19995117188
1562.00824200618	1998.19995117188
1562.63263432452	1984.40002441406
1563.25694516257	1980.80004882813
1563.88117452781	1992.80004882813
1564.50532242772	1984.59997558594
1565.12938886976	1980.59997558594
1565.75337386141	1984.59997558594
1566.37727741015	1994
1567.00109952345	1997
1567.62484020878	2011.80004882813
1568.24849947361	2014.19995117188
1568.87207732542	2032.59997558594
1569.49557377168	2040.59997558594
1570.11898881986	2042.40002441406
1570.74232247743	2051.60009765625
1571.36557475186	2053.80004882813
1571.98874565062	2054
1572.61183518119	2068.60009765625
1573.23484335103	2074
1573.85777016761	2101.39990234375
1574.4806156384	2084
1575.10337977088	2104
1575.7260625725	2108.80004882813
1576.34866405074	2084.60009765625
1576.97118421306	2086.80004882813
1577.59362306694	2078.19995117188
1578.21598061984	2091.60009765625
1578.83825687922	2087.19995117188
1579.46045185255	2077.39990234375
1580.08256554731	2080.19995117188
1580.70459797094	2069.80004882813
1581.32654913093	2059
1581.94841903473	2026.59997558594
1582.57020768981	2019
1583.19191510364	2016
1583.81354128367	1991
1584.43508623737	1992.19995117188
1585.05654997221	1983.19995117188
1585.67793249564	1986.59997558594
1586.29923381514	1970
1586.92045393815	1969.80004882813
1587.54159287216	1960.80004882813
1588.1626506246	1966.80004882813
1588.78362720296	1961.80004882813
1589.40452261468	1964.59997558594
1590.02533686724	1947.80004882813
1590.64606996808	1936
1591.26672192467	1932.40002441406
1591.88729274447	1926.80004882813
1592.50778243493	1927.80004882813
1593.12819100352	1917.59997558594
1593.7485184577	1918.80004882813
1594.36876480492	1908.80004882813
1594.98893005264	1910
1595.60901420832	1900.19995117188
1596.22901727941	1916
1596.84893927338	1897.40002441406
1597.46878019767	1900.59997558594
1598.08854005975	1932.59997558594
1598.70821886707	1942.80004882813
1599.32781662708	1935.19995117188
1599.94733334725	1938
1600.56676903502	1920.19995117188
1601.18612369785	1934.59997558594
1601.8053973432	1919.40002441406
1602.42458997851	1906.59997558594
1603.04370161124	1904.59997558594
1603.66273224884	1896.59997558594
1604.28168189878	1881
1604.90055056849	1878.19995117188
1605.51933826543	1870.59997558594
1606.13804499705	1860.40002441406
1606.75667077081	1877.40002441406
1607.37521559415	1879.19995117188
1607.99367947452	1890.59997558594
1608.61206241938	1876.59997558594
1609.23036443618	1868.19995117188
1609.84858553236	1872.80004882813
1610.46672571537	1878.59997558594
1611.08478499267	1881.59997558594
1611.7027633717	1896.40002441406
1612.3206608599	1881.40002441406
1612.93847746473	1874
1613.55621319364	1867.19995117188
1614.17386805407	1865
1614.79144205347	1860
1615.40893519928	1847
1616.02634749895	1851.80004882813
1616.64367895993	1837.19995117188
1617.26092958966	1842.19995117188
1617.87809939559	1838.19995117188
1618.49518838516	1834.40002441406
1619.11219656582	1839
1619.729123945	1850.19995117188
1620.34597053016	1862.40002441406
1620.96273632874	1856.19995117188
1621.57942134818	1857.80004882813
1622.19602559592	1856.19995117188
1622.8125490794	1842.40002441406
1623.42899180607	1860
1624.04535378337	1857.59997558594
1624.66163501874	1855.59997558594
1625.27783551963	1847.80004882813
1625.89395529346	1826
1626.50999434768	1847.19995117188
1627.12595268974	1839.80004882813
1627.74183032707	1819.80004882813
1628.3576272671	1808
1628.97334351729	1813
1629.58897908506	1798
1630.20453397786	1812.59997558594
1630.82000820313	1806.59997558594
1631.43540176829	1788.59997558594
1632.05071468079	1796.19995117188
1632.66594694807	1815.40002441406
1633.28109857756	1822.59997558594
1633.8961695767	1818.59997558594
1634.51115995292	1829.80004882813
1635.12606971366	1823
1635.74089886636	1811.59997558594
1636.35564741844	1815.80004882813
1636.97031537734	1836.40002441406
1637.58490275051	1825.40002441406
1638.19940954536	1824.59997558594
1638.81383576934	1844.59997558594
1639.42818142987	1853.80004882813
1640.0424465344	1855.59997558594
1640.65663109034	1858.59997558594
1641.27073510515	1874.59997558594
1641.88475858623	1867.59997558594
1642.49870154104	1877
1643.11256397699	1859.40002441406
1643.72634590152	1860
1644.34004732206	1873.80004882813
1644.95366824604	1868.80004882813
1645.56720868089	1884.40002441406
1646.18066863404	1875.19995117188
1646.79404811291	1894.59997558594
1647.40734712494	1917.59997558594
1648.02056567755	1923.19995117188
1648.63370377817	1919.80004882813
1649.24676143423	1927.40002441406
1649.85973865316	1934.40002441406
1650.47263544238	1939.19995117188
1651.08545180932	1940.80004882813
1651.6981877614	1932
1652.31084330606	1929.59997558594
1652.92341845071	1911.80004882813
1653.53591320278	1890.59997558594
1654.1483275697	1888.40002441406
1654.7606615589	1901.59997558594
1655.37291517778	1863.59997558594
1655.98508843379	1864.59997558594
1656.59718133434	1857.40002441406
1657.20919388685	1839
1657.82112609875	1821.80004882813
1658.43297797747	1807
1659.04474953041	1824
1659.65644076501	1826.80004882813
1660.26805168869	1820
1660.87958230886	1794.40002441406
1661.49103263294	1811.59997558594
1662.10240266837	1791
1662.71369242255	1782
1663.32490190291	1772.80004882813
1663.93603111687	1771.19995117188
1664.54708007184	1766
1665.15804877524	1759.19995117188
1665.7689372345	1746.40002441406
1666.37974545703	1760.19995117188
1666.99047345024	1766.40002441406
1667.60112122156	1767.80004882813
1668.2116887784	1756.19995117188
1668.82217612818	1737.19995117188
1669.43258327831	1723.40002441406
1670.04291023622	1696
1670.65315700931	1696.19995117188
1671.263323605	1687.40002441406
1671.8734100307	1659.40002441406
1672.48341629384	1660.59997558594
1673.09334240182	1651
1673.70318836206	1662
1674.31295418197	1650.19995117188
1674.92263986896	1645.40002441406
1675.53224543046	1663
1676.14177087386	1663
1676.75121620658	1658.59997558594
1677.36058143604	1671.59997558594
1677.96986656964	1688.19995117188
1678.5790716148	1689.80004882813
1679.18819657892	1714
1679.79724146943	1704
1680.40620629372	1703.19995117188
1681.0150910592	1716.80004882813
1681.6238957733	1718.80004882813
1682.23262044341	1708.80004882813
1682.84126507694	1703.80004882813
1683.4498296813	1714.59997558594
1684.0583142639	1708
1684.66671883216	1712.80004882813
1685.27504339346	1702.80004882813
1685.88328795523	1689.59997558594
1686.49145252487	1674.40002441406
1687.09953710978	1684.80004882813
1687.70754171737	1706
1688.31546635505	1681.80004882813
1688.92331103021	1699.19995117188
1689.53107575028	1701.19995117188
1690.13876052265	1713.59997558594
1690.74636535472	1706
1691.3538902539	1697.59997558594
1691.96133522759	1685
1692.5687002832	1683.80004882813
1693.17598542812	1665.59997558594
1693.78319066977	1656.59997558594
1694.39031601554	1645
1694.99736147283	1656.40002441406
1695.60432704905	1661.80004882813
1696.2112127516	1667.40002441406
1696.81801858788	1687
1697.42474456528	1692.40002441406
1698.03139069121	1680
1698.63795697307	1679.80004882813
1699.24444341826	1686.40002441406
1699.85085003417	1651.80004882813
1700.45717682821	1675
1701.06342380778	1669.40002441406
1701.66959098026	1666.80004882813
1702.27567835307	1664.19995117188
1702.88168593359	1650.59997558594
1703.48761372922	1649.40002441406
1704.09346174737	1645
1704.69922999542	1639.40002441406
1705.30491848077	1635.80004882813
1705.91052721083	1630.80004882813
1706.51605619297	1648
1707.12150543461	1645.19995117188
1707.72687494312	1626.80004882813
1708.33216472592	1634.80004882813
1708.93737479039	1621.19995117188
1709.54250514392	1603
