634.977642221345	2083.19995117188
635.719821695905	2098
636.461909203392	2098
637.203904751776	2119.60009765625
637.945808349023	2100.39990234375
638.687620003102	2133.80004882813
639.42933972198	2175
640.170967513616	2177.39990234375
640.912503385981	2173.19995117188
641.653947347041	2161
642.395299404758	2108.60009765625
643.13655956709	2093
643.877727842014	2086.19995117188
644.61880423748	2061.19995117188
645.359788761455	2051.80004882813
646.100681421905	2066.60009765625
646.841482226789	2090.80004882813
647.582191184074	2076.80004882813
648.322808301711	2090.19995117188
649.06333358767	2082.60009765625
649.803767049909	2077.60009765625
650.544108696385	2095.19995117188
651.28435853506	2116.39990234375
652.024516573894	2131.80004882813
652.764582820849	2145.39990234375
653.504557283875	2154.39990234375
654.244439970937	2161.80004882813
654.984230889991	2185.19995117188
655.723930048995	2196
656.463537455909	2203
657.203053118683	2209.19995117188
657.942477045275	2200
658.681809243647	2193.80004882813
659.421049721747	2164.60009765625
660.160198487535	2166.60009765625
660.899255548962	2192.80004882813
661.638220913985	2187.19995117188
662.377094590559	2207.39990234375
663.115876586631	2196
663.854566910165	2197.19995117188
664.593165569107	2188.80004882813
665.331672571406	2177.80004882813
666.07008792502	2161.19995117188
666.808411637902	2148.60009765625
667.546643717996	2152
668.284784173258	2134
669.022833011641	2133.60009765625
669.760790241089	2131.39990234375
670.498655869554	2129.19995117188
671.236429904987	2134.60009765625
671.97411235534	2134.39990234375
672.711703228551	2163
673.449202532577	2195
674.186610275364	2207.80004882813
674.923926464857	2220.19995117188
675.661151109008	2234.19995117188
676.398284215759	2216.19995117188
677.135325793058	2234.60009765625
677.87227584885	2253.19995117188
678.609134391082	2263.19995117188
679.345901427696	2280.39990234375
680.082576966644	2268.39990234375
680.819161015861	2250.19995117188
681.555653583298	2224.80004882813
682.292054676895	2222.39990234375
683.028364304594	2182.39990234375
683.764582474344	2203.19995117188
684.500709194083	2165.80004882813
685.236744471752	2193.39990234375
685.972688315294	2178.19995117188
686.708540732652	2196.80004882813
687.444301731762	2199.39990234375
688.179971320572	2187.19995117188
688.915549507013	2192.19995117188
689.651036299034	2149.80004882813
690.386431704569	2142.80004882813
691.121735731559	2128.60009765625
691.85694838794	2120.19995117188
692.592069681652	2132.80004882813
693.327099620632	2132.60009765625
694.062038212821	2145
694.796885466149	2167.80004882813
695.531641388561	2207.19995117188
696.266305987987	2217.19995117188
697.000879272367	2226.19995117188
697.735361249632	2231.19995117188
698.469751927722	2236
699.204051314568	2245.19995117188
699.938259418107	2236
700.672376246272	2209.60009765625
701.406401806997	2230.80004882813
702.140336108212	2217.60009765625
702.874179157855	2226
703.607930963856	2230.80004882813
704.341591534147	2223
705.07516087666	2220.80004882813
705.808638999324	2219.39990234375
706.542025910073	2242.19995117188
707.275321616841	2215.60009765625
708.008526127549	2193.60009765625
708.741639450132	2203
709.474661592521	2225.80004882813
710.207592562641	2218.80004882813
710.940432368424	2220.60009765625
711.673181017796	2224.60009765625
712.405838518687	2210.60009765625
713.138404879025	2212.39990234375
713.870880106731	2216
714.603264209738	2223.80004882813
715.335557195971	2229.60009765625
716.067759073357	2254.60009765625
716.799869849816	2251.80004882813
717.531889533281	2268.19995117188
718.263818131673	2272.19995117188
718.995655652917	2238.19995117188
719.727402104934	2264.60009765625
720.45905749565	2251.60009765625
721.19062183299	2234.19995117188
721.922095124877	2237.39990234375
722.653477379231	2215.19995117188
723.384768603973	2211.19995117188
724.11596880703	2240.19995117188
724.847077996319	2233.80004882813
725.578096179762	2251
726.309023365281	2250.39990234375
727.039859560792	2243.60009765625
727.770604774222	2253.39990234375
728.501259013484	2254.60009765625
729.231822286501	2260
729.962294601191	2276.80004882813
730.692675965469	2247.39990234375
731.42296638726	2226.60009765625
732.153165874472	2253
732.883274435032	2248.80004882813
733.613292076851	2278.19995117188
734.343218807843	2283.19995117188
735.07305463593	2293
735.802799569028	2269.39990234375
736.532453615048	2224.39990234375
737.262016781904	2249.39990234375
737.991489077517	2254
738.720870509794	2250
739.450161086654	2251.19995117188
740.179360816009	2242.39990234375
740.908469705772	2242.39990234375
741.637487763854	2265.80004882813
742.366414998168	2279.60009765625
743.095251416623	2268.60009765625
743.823997027137	2271.60009765625
744.552651837618	2284.60009765625
745.281215855978	2259.80004882813
746.009689090124	2271.80004882813
746.738071547964	2254.19995117188
747.466363237419	2237
748.194564166384	2249
748.92267434278	2237.39990234375
749.650693774504	2261.60009765625
750.378622469476	2250.60009765625
751.106460435596	2272
751.834207680771	2291
752.561864212909	2292
753.289430039919	2292.80004882813
754.016905169707	2275.80004882813
754.744289610175	2273
755.471583369231	2267
756.198786454782	2274.39990234375
756.925898874728	2262.39990234375
757.652920636979	2251
758.379851749433	2272
759.106692219996	2284.60009765625
759.833442056572	2290.80004882813
760.560101267063	2294.60009765625
761.28666985937	2330
762.0131478414	2332.60009765625
762.739535221046	2343.19995117188
763.465832006219	2342.60009765625
764.192038204812	2364.80004882813
764.918153824731	2357.39990234375
765.644178873872	2361
766.370113360138	2384.80004882813
767.095957291425	2413.80004882813
767.821710675635	2435.80004882813
768.547373520665	2449.39990234375
769.272945834415	2454
769.998427624781	2470
770.723818899658	2493.60009765625
771.449119666949	2516.80004882813
772.174329934546	2520
772.899449710347	2517.39990234375
773.624479002248	2521.80004882813
774.349417818145	2506.19995117188
775.074266165934	2511.60009765625
775.799024053505	2520.60009765625
776.523691488757	2517.60009765625
777.248268479582	2477.39990234375
777.972755033877	2449.19995117188
778.69715115953	2429.60009765625
779.421456864441	2400.60009765625
780.145672156493	2364.39990234375
780.869797043587	2352
781.593831533611	2358.19995117188
782.317775634457	2354.60009765625
783.041629354012	2320.60009765625
783.765392700174	2317.19995117188
784.489065680828	2292.80004882813
785.212648303866	2275.39990234375
785.936140577177	2294.19995117188
786.659542508652	2302
787.382854106174	2317.80004882813
788.106075377639	2305.60009765625
788.829206330928	2335.39990234375
789.552246973933	2330.19995117188
790.275197314542	2333
790.998057360638	2337
791.720827120108	2309
792.443506600841	2309.39990234375
793.166095810722	2298.39990234375
793.888594757635	2242.39990234375
794.611003449465	2270.39990234375
795.333321894098	2283.39990234375
796.055550099417	2295.39990234375
796.777688073308	2300.19995117188
797.499735823654	2302.80004882813
798.221693358334	2278.39990234375
798.943560685235	2272.19995117188
799.665337812239	2275.60009765625
800.387024747226	2294
801.108621498075	2308.60009765625
801.830128072674	2318.80004882813
802.551544478902	2343.39990234375
803.272870724636	2324.60009765625
803.994106817761	2316.60009765625
804.715252766148	2307.80004882813
805.436308577687	2308.39990234375
806.157274260251	2289.39990234375
806.878149821721	2282.80004882813
807.598935269973	2272.60009765625
808.319630612886	2280.80004882813
809.040235858336	2262.60009765625
809.760751014202	2307.60009765625
810.481176088361	2300.39990234375
811.201511088685	2316
811.921756023059	2293.39990234375
812.641910899347	2293.80004882813
813.361975725432	2276.19995117188
814.081950509188	2266.60009765625
814.801835258489	2274.60009765625
815.521629981206	2286.19995117188
816.241334685218	2263.80004882813
816.960949378392	2268.80004882813
817.680474068606	2287.39990234375
818.399908763731	2259
819.11925347164	2253.39990234375
819.838508200202	2261.80004882813
820.55767295729	2254.19995117188
821.276747750778	2251.39990234375
821.995732588531	2246
822.714627478425	2275.19995117188
823.433432428327	2266.80004882813
824.152147446105	2288.60009765625
824.870772539632	2297.80004882813
825.589307716775	2323.60009765625
826.307752985404	2338.60009765625
827.026108353378	2308.80004882813
827.744373828579	2316
828.462549418867	2300
829.180635132107	2305.60009765625
829.898630976168	2312
830.616536958915	2310.39990234375
831.334353088218	2309.80004882813
832.052079371938	2315.19995117188
832.769715817942	2289.19995117188
833.487262434092	2296.39990234375
834.204719228255	2315
834.922086208293	2289.80004882813
835.639363382073	2301.39990234375
836.356550757456	2296.39990234375
837.073648342304	2317.60009765625
837.790656144484	2315.60009765625
838.507574171847	2316.60009765625
839.22440243227	2315.60009765625
839.941140933601	2304.60009765625
840.657789683706	2284.19995117188
841.374348690448	2291.80004882813
842.090817961686	2279.80004882813
842.807197505276	2289.19995117188
843.523487329083	2325.80004882813
844.23968744096	2313.39990234375
844.955797848771	2298.80004882813
845.671818560374	2279
846.387749583622	2308
847.103590926378	2275.60009765625
847.819342596497	2297.19995117188
848.535004601833	2244.60009765625
849.25057695025	2218
849.966059649598	2216.19995117188
850.681452707735	2220.80004882813
851.396756132513	2246.60009765625
852.111969931789	2258.19995117188
852.827094113419	2254.39990234375
853.542128685257	2262
854.257073655158	2295.19995117188
854.971929030969	2286.80004882813
855.686694820551	2284.19995117188
856.40137103175	2263
857.115957672423	2276.19995117188
857.830454750423	2263.19995117188
858.544862273597	2281.39990234375
859.259180249797	2259.80004882813
859.97340868688	2282.39990234375
860.687547592688	2283
861.401596975075	2284.19995117188
862.115556841891	2283.60009765625
862.829427200985	2280.60009765625
863.543208060205	2290.39990234375
864.256899427402	2263
864.970501310423	2261.19995117188
865.684013717114	2268.19995117188
866.397436655325	2257.80004882813
867.110770132901	2264
867.824014157691	2268.39990234375
868.537168737542	2278.39990234375
869.250233880299	2272.80004882813
869.963209593803	2270.19995117188
870.676095885902	2260.39990234375
871.388892764445	2267.19995117188
872.101600237276	2253.60009765625
872.814218312233	2260.60009765625
873.526746997165	2273.39990234375
874.239186299914	2261
874.951536228323	2259.39990234375
875.663796790231	2261.80004882813
876.375967993487	2259.19995117188
877.088049845928	2237.60009765625
877.8000423554	2249.60009765625
878.511945529739	2253.60009765625
879.22375937679	2247
879.935483904388	2250
880.64711912038	2240
881.358665032604	2239.60009765625
882.070121648892	2243
882.78148897709	2226.80004882813
883.492767025039	2221.80004882813
884.203955800571	2254.19995117188
884.915055311525	2248.60009765625
885.626065565741	2242
886.336986571053	2242.60009765625
887.047818335298	2231.19995117188
887.758560866315	2220.60009765625
888.469214171937	2220
889.179778260005	2231.80004882813
889.890253138347	2219.19995117188
890.600638814803	2203.19995117188
891.310935297204	2216
892.021142593385	2227.19995117188
892.731260711183	2219.19995117188
893.441289658429	2217.39990234375
894.15122944295	2235.19995117188
894.861080072591	2268.60009765625
895.570841555173	2248.39990234375
896.280513898534	2272.39990234375
896.990097110503	2279
897.699591198913	2280.80004882813
898.408996171595	2292.19995117188
899.118312036375	2274.19995117188
899.827538801089	2266.19995117188
900.536676473561	2265.80004882813
901.245725061628	2281.19995117188
901.954684573109	2279.19995117188
902.663555015838	2295.60009765625
903.372336397644	2329.80004882813
904.081028726351	2308
904.789632009793	2331
905.49814625579	2327
906.20657147217	2316.60009765625
906.914907666765	2327
907.623154847391	2307
908.331313021885	2317.39990234375
909.039382198064	2320
909.747362383754	2300
910.455253586782	2299.39990234375
911.163055814972	2292.39990234375
911.870769076143	2282.39990234375
912.578393378126	2275
913.285928728738	2283.80004882813
913.993375135802	2301.19995117188
914.700732607145	2299
915.408001150579	2309.19995117188
916.115180773937	2306.80004882813
916.822271485037	2346.39990234375
917.529273291693	2316.80004882813
918.236186201733	2303.39990234375
918.943010222971	2274.19995117188
919.649745363234	2295.39990234375
920.356391630333	2294.39990234375
921.062949032096	2283.19995117188
921.769417576333	2260
922.475797270864	2286.60009765625
923.182088123512	2283.80004882813
923.888290142089	2306.80004882813
924.594403334414	2325
925.300427708304	2319.80004882813
926.006363271572	2326
926.712210032039	2324.39990234375
927.417967997522	2319
928.123637175827	2328.60009765625
928.829217574776	2291.80004882813
929.534709202184	2304.39990234375
930.240112065859	2314
930.945426173621	2312.39990234375
931.650651533283	2296.39990234375
932.355788152653	2298.80004882813
933.060836039547	2280.39990234375
933.765795201776	2252.60009765625
934.470665647153	2246.60009765625
935.175447383492	2246
935.880140418599	2264.60009765625
936.584744760286	2250
937.289260416366	2252.60009765625
937.993687394647	2276
938.698025702939	2300.19995117188
939.402275349051	2341.60009765625
940.106436340793	2311.60009765625
940.810508685976	2326.19995117188
941.5144923924	2332.39990234375
942.21838746788	2315.19995117188
942.922193920223	2314
943.625911757231	2283
944.329540986716	2272.60009765625
945.033081616484	2250.80004882813
945.736533654334	2234.80004882813
946.439897108083	2255.19995117188
947.143171985529	2243.60009765625
947.846358294477	2235.80004882813
948.549456042732	2222.60009765625
949.2524652381	2215.19995117188
949.955385888382	2238.39990234375
950.658218001384	2281.80004882813
951.360961584907	2270.19995117188
952.063616646755	2289.19995117188
952.766183194733	2296.80004882813
953.468661236636	2295.19995117188
954.171050780271	2280.60009765625
954.873351833437	2244
955.575564403935	2263.60009765625
956.277688499565	2254.19995117188
956.97972412813	2243.19995117188
957.681671297424	2231.19995117188
958.383530015255	2248
959.085300289414	2248.60009765625
959.786982127703	2246.39990234375
960.488575537918	2241.19995117188
961.190080527859	2262.39990234375
961.891497105327	2256.39990234375
962.592825278111	2254.19995117188
963.294065054012	2257.39990234375
963.995216440829	2264.60009765625
964.696279446353	2258.80004882813
965.397254078383	2261.80004882813
966.098140344714	2272.39990234375
966.798938253139	2246.19995117188
967.499647811456	2246.60009765625
968.200269027458	2252.39990234375
968.900801908937	2236.60009765625
969.601246463685	2232.19995117188
970.3016026995	2221.60009765625
971.001870624169	2225.39990234375
971.702050245491	2218
972.402141571249	2204
973.102144609245	2202.80004882813
973.802059367267	2216
974.501885853103	2205.19995117188
975.201624074541	2207.19995117188
975.901274039379	2245
976.600835755399	2233.39990234375
977.3003092304	2228.19995117188
977.999694472158	2226.80004882813
978.698991488473	2223.60009765625
979.39820028713	2235
980.097320875915	2208.19995117188
980.796353262618	2247.80004882813
981.495297455024	2259
982.194153460919	2257
982.892921288093	2272
983.591600944331	2286.60009765625
984.290192437419	2305.39990234375
984.98869577514	2281.60009765625
985.687110965282	2262
986.385438015629	2266.19995117188
987.083676933961	2261.19995117188
987.781827728069	2257
988.479890405732	2250
989.177864974732	2250.39990234375
989.875751442857	2224.80004882813
990.573549817888	2229.80004882813
991.271260107602	2249
991.968882319786	2266
992.666416462217	2258
993.363862542681	2259.39990234375
994.061220568959	2236.60009765625
994.758490548823	2194.80004882813
995.455672490061	2209.80004882813
996.152766400451	2232.19995117188
996.849772287773	2237.19995117188
997.5466901598	2236
998.243520024317	2229.19995117188
998.940261889097	2232.60009765625
999.636915761923	2202.19995117188
1000.33348165057	2189.39990234375
1001.02995956281	2204.60009765625
1001.72634950643	2195.39990234375
1002.42265148919	2175.60009765625
1003.11886551889	2183.60009765625
1003.81499160328	2220.19995117188
1004.51102975015	2226.60009765625
1005.20697996727	2239.60009765625
1005.90284226242	2240.80004882813
1006.59861664337	2244
1007.2943031179	2241.80004882813
1007.98990169377	2253
1008.68541237876	2264.60009765625
1009.38083518064	2252
1010.07617010719	2294.19995117188
1010.77141716617	2302.80004882813
1011.46657636536	2296
1012.16164771253	2309.39990234375
1012.85663121546	2291
1013.5515268819	2268.80004882813
1014.24633471963	2256.60009765625
1014.94105473642	2247.19995117188
1015.63568694004	2246
1016.33023133826	2249
1017.02468793885	2245.80004882813
1017.71905674957	2263.80004882813
1018.41333777819	2252.39990234375
1019.10753103249	2240.19995117188
1019.80163652022	2250.80004882813
1020.49565424916	2233.19995117188
1021.18958422707	2255.80004882813
1021.88342646171	2245.80004882813
1022.57718096085	2262.60009765625
1023.27084773227	2274
1023.96442678371	2266
1024.65791812296	2266.39990234375
1025.35132175776	2220.60009765625
1026.04463769589	2208.39990234375
1026.73786594511	2199
1027.43100651318	2192.19995117188
1028.12405940786	2204.60009765625
1028.81702463692	2220.39990234375
1029.50990220812	2232
1030.20269212921	2194.80004882813
1030.89539440798	2215.39990234375
1031.58800905216	2184.39990234375
1032.28053606952	2168.80004882813
1032.97297546784	2176.39990234375
1033.66532725485	2185.19995117188
1034.35759143832	2185.19995117188
1035.04976802602	2179.19995117188
1035.7418570257	2165.80004882813
1036.43385844511	2166.80004882813
1037.12577229202	2181.39990234375
1037.81759857419	2186.39990234375
1038.50933729937	2192.39990234375
1039.20098847531	2223.80004882813
1039.89255210978	2224.60009765625
1040.58402821053	2221.19995117188
1041.27541678532	2197.60009765625
1041.96671784191	2211
1042.65793138804	2190
1043.34905743147	2203.19995117188
1044.04009597996	2192.39990234375
1044.73104704125	2198.60009765625
1045.42191062312	2196.80004882813
1046.1126867333	2208.60009765625
1046.80337537955	2208.80004882813
1047.49397656962	2215.60009765625
1048.18449031127	2226.39990234375
1048.87491661225	2203.39990234375
1049.5652554803	2184.80004882813
1050.25550692319	2151
1050.94567094865	2157.19995117188
1051.63574756444	2155.19995117188
1052.32573677832	2181.39990234375
1053.01563859803	2191.60009765625
1053.70545303131	2207
1054.39518008592	2168.39990234375
1055.08481976961	2144.80004882813
1055.77437209013	2142.39990234375
1056.46383705522	2167.39990234375
1057.15321467262	2157.39990234375
1057.8425049501	2163
1058.53170789539	2167.80004882813
1059.22082351624	2157.60009765625
1059.9098518204	2151.80004882813
1060.59879281561	2154.60009765625
1061.28764650962	2168.60009765625
1061.97641291016	2177.80004882813
1062.665092025	2165.60009765625
1063.35368386187	2167.19995117188
1064.04218842851	2177.19995117188
1064.73060573268	2171
1065.4189357821	2149.80004882813
1066.10717858452	2151.60009765625
1066.7953341477	2130.39990234375
1067.48340247936	2113.60009765625
1068.17138358725	2125
1068.85927747912	2135
1069.5470841627	2152.80004882813
1070.23480364573	2165.80004882813
1070.92243593595	2177.80004882813
1071.60998104111	2177.60009765625
1072.29743896894	2178
1072.98480972718	2172.60009765625
1073.67209332357	2166.60009765625
1074.35928976585	2177.19995117188
1075.04639906176	2188.80004882813
1075.73342121903	2182.19995117188
1076.42035624541	2198
1077.10720414862	2205.39990234375
1077.79396493641	2212.19995117188
1078.48063861651	2215
1079.16722519666	2198.19995117188
1079.85372468459	2174.39990234375
1080.54013708804	2151
1081.22646241474	2153.60009765625
1081.91270067243	2136
1082.59885186884	2155.19995117188
1083.28491601171	2174
1083.97089310877	2186.39990234375
1084.65678316774	2183.19995117188
1085.34258619637	2208.80004882813
1086.02830220239	2214.60009765625
1086.71393119352	2209.19995117188
1087.39947317751	2206.60009765625
1088.08492816207	2218.80004882813
1088.77029615495	2207
1089.45557716387	2215.39990234375
1090.14077119656	2240
1090.82587826075	2208.19995117188
1091.51089836417	2223.39990234375
1092.19583151456	2223.80004882813
1092.88067771963	2200.19995117188
1093.56543698712	2189.39990234375
1094.25010932475	2191.39990234375
1094.93469474026	2179.39990234375
1095.61919324137	2186
1096.3036048358	2177.60009765625
1096.98792953129	2177
1097.67216733555	2181
1098.35631825632	2190.80004882813
1099.04038230132	2199.80004882813
1099.72435947828	2195.60009765625
1100.40824979492	2173.39990234375
1101.09205325895	2160.80004882813
1101.77576987812	2148.80004882813
1102.45939966014	2138.80004882813
1103.14294261273	2131
1103.82639874362	2105.39990234375
1104.50976806054	2130.39990234375
1105.19305057119	2141
1105.87624628331	2148
1106.55935520461	2188.39990234375
1107.24237734283	2185.39990234375
1107.92531270566	2187.19995117188
1108.60816130085	2190.19995117188
1109.2909231361	2203.19995117188
1109.97359821914	2212.80004882813
1110.65618655768	2216
1111.33868815946	2219.39990234375
1112.02110303217	2240.19995117188
1112.70343118355	2246
1113.3856726213	2238.39990234375
1114.06782735316	2232.80004882813
1114.74989538683	2204.80004882813
1115.43187673002	2187
1116.11377139047	2188.60009765625
1116.79557937588	2189.39990234375
1117.47730069397	2202.19995117188
1118.15893535245	2206.39990234375
1118.84048335904	2231.19995117188
1119.52194472146	2232.39990234375
1120.20331944741	2241.60009765625
1120.88460754462	2219.19995117188
1121.56580902079	2204.60009765625
1122.24692388364	2199.60009765625
1122.92795214088	2217.19995117188
1123.60889380022	2214.19995117188
1124.28974886938	2224.19995117188
1124.97051735606	2241
1125.65119926799	2260.39990234375
1126.33179461286	2275.60009765625
1127.0123033984	2286
1127.6927256323	2274.60009765625
1128.37306132229	2294.60009765625
1129.05331047606	2261.80004882813
1129.73347310134	2269
1130.41354920582	2246.19995117188
1131.09353879722	2252.60009765625
1131.77344188324	2230.39990234375
1132.45325847159	2230.60009765625
1133.13298856999	2233
1133.81263218612	2226.60009765625
1134.49218932772	2221.19995117188
1135.17166000247	2209.80004882813
1135.85104421809	2201
1136.53034198227	2191.19995117188
1137.20955330274	2167
1137.88867818718	2169
1138.56771664331	2152.19995117188
1139.24666867883	2183.19995117188
1139.92553430144	2195.60009765625
1140.60431351885	2210.19995117188
1141.28300633876	2216.60009765625
1141.96161276887	2210.19995117188
1142.64013281689	2218.60009765625
1143.31856649051	2216.60009765625
1143.99691379744	2210
1144.67517474538	2183.60009765625
1145.35334934203	2202.80004882813
1146.03143759509	2185.80004882813
1146.70943951226	2173.80004882813
1147.38735510125	2150.80004882813
1148.06518436974	2136.19995117188
1148.74292732545	2150.19995117188
1149.42058397606	2140.39990234375
1150.09815432928	2157.60009765625
1150.7756383928	2163
1151.45303617432	2165.80004882813
1152.13034768155	2191
1152.80757292217	2199.60009765625
1153.48471190389	2209.60009765625
1154.16176463439	2208
1154.83873112138	2223.39990234375
1155.51561137255	2184.19995117188
1156.1924053956	2188
1156.86911319822	2191.60009765625
1157.5457347881	2192
1158.22227017294	2198
1158.89871936044	2182.60009765625
1159.57508235828	2166
1160.25135917416	2161.39990234375
1160.92754981578	2158.80004882813
1161.60365429081	2160.39990234375
1162.27967260697	2165.19995117188
1162.95560477193	2171
1163.63145079339	2188.80004882813
1164.30721067904	2194.80004882813
1164.98288443657	2182
1165.65847207367	2190
1166.33397359803	2216.80004882813
1167.00938901735	2204
1167.6847183393	2222.19995117188
1168.35996157157	2213.80004882813
1169.03511872187	2226.80004882813
1169.71018979787	2242.39990234375
1170.38517480726	2232.19995117188
1171.06007375773	2228
1171.73488665696	2205.60009765625
1172.40961351265	2199.80004882813
1173.08425433247	2191.39990234375
1173.75880912412	2186
1174.43327789528	2211.60009765625
1175.10766065364	2225.19995117188
1175.78195740687	2221
1176.45616816267	2218
1177.13029292871	2223.60009765625
1177.80433171269	2243.80004882813
1178.47828452229	2223.39990234375
1179.15215136518	2211.80004882813
1179.82593224905	2238.39990234375
1180.49962718159	2258.80004882813
1181.17323617047	2256.80004882813
1181.84675922337	2244.39990234375
1182.52019634799	2281
1183.193547552	2277
1183.86681284307	2293.60009765625
1184.53999222889	2297.80004882813
1185.21308571714	2304.39990234375
1185.8860933155	2283
1186.55901503165	2288.80004882813
1187.23185087326	2280.39990234375
1187.90460084802	2266
1188.5772649636	2259.60009765625
1189.24984322768	2271.39990234375
1189.92233564794	2277.80004882813
1190.59474223206	2272.19995117188
1191.2670629877	2316.39990234375
1191.93929792255	2324.19995117188
1192.61144704428	2313.19995117188
1193.28351036058	2307.19995117188
1193.9554878791	2296.19995117188
1194.62737960754	2261.80004882813
1195.29918555356	2258
1195.97090572483	2260.80004882813
1196.64254012903	2275.80004882813
1197.31408877384	2259.39990234375
1197.98555166693	2275.39990234375
1198.65692881596	2272.39990234375
1199.32822022862	2248.19995117188
1199.99942591256	2244.60009765625
1200.67054587548	2243.60009765625
1201.34158012503	2225.19995117188
1202.01252866889	2236
1202.68339151473	2223.80004882813
1203.35416867021	2208.19995117188
1204.02486014301	2191.19995117188
1204.6954659408	2187.39990234375
1205.36598607124	2223.39990234375
1206.03642054201	2207.80004882813
1206.70676936078	2199.39990234375
1207.3770325352	2203.60009765625
1208.04721007295	2216.39990234375
1208.7173019817	2215.39990234375
1209.38730826911	2203.19995117188
1210.05722894285	2204.39990234375
1210.72706401059	2190
1211.39681347999	2171.60009765625
1212.06647735872	2173.19995117188
1212.73605565444	2160.39990234375
1213.40554837481	2193.60009765625
1214.07495552751	2202
1214.74427712019	2197.19995117188
1215.41351316052	2192.19995117188
1216.08266365617	2189
1216.75172861479	2177.19995117188
1217.42070804405	2182
1218.0896019516	2188
1218.75841034513	2177.80004882813
1219.42713323227	2206.60009765625
1220.0957706207	2214.19995117188
1220.76432251808	2201.60009765625
1221.43278893207	2207
1222.10116987032	2206.19995117188
1222.7694653405	2229.19995117188
1223.43767535026	2218.39990234375
1224.10579990727	2227.80004882813
1224.77383901918	2203.80004882813
1225.44179269366	2196.60009765625
1226.10966093835	2193.80004882813
1226.77744376093	2169.60009765625
1227.44514116904	2179.60009765625
1228.11275317034	2179.39990234375
1228.78027977249	2193.39990234375
1229.44772098315	2199.39990234375
1230.11507680996	2182
1230.7823472606	2181.19995117188
1231.44953234271	2181.80004882813
1232.11663206394	2171.19995117188
1232.78364643195	2166
1233.4505754544	2150.39990234375
1234.11741913894	2141.19995117188
1234.78417749322	2148
1235.45085052489	2157
1236.11743824162	2150.60009765625
1236.78394065104	2138.19995117188
1237.45035776082	2141.80004882813
1238.1166895786	2138.19995117188
1238.78293611204	2137
1239.44909736878	2141.19995117188
1240.11517335648	2136.19995117188
1240.78116408279	2150.80004882813
1241.44706955535	2168.60009765625
1242.11288978182	2136
1242.77862476985	2148.19995117188
1243.44427452708	2101.60009765625
1244.10983906116	2093
1244.77531837974	2092
1245.44071249047	2104.60009765625
1246.106021401	2108.19995117188
1246.77124511898	2099.19995117188
1247.43638365204	2135.80004882813
1248.10143700783	2147.80004882813
1248.76640519401	2155.60009765625
1249.43128821822	2148
1250.0960860881	2152.60009765625
1250.76079881129	2143.60009765625
1251.42542639545	2138
1252.08996884822	2129.19995117188
1252.75442617723	2122
1253.41879839014	2105.60009765625
1254.08308549458	2122.60009765625
1254.74728749821	2130.80004882813
1255.41140440866	2135.80004882813
1256.07543623357	2131.60009765625
1256.73938298059	2108
1257.40324465735	2108.60009765625
1258.0670212715	2114
1258.73071283068	2109.60009765625
1259.39431934253	2134.60009765625
1260.05784081468	2124
1260.72127725479	2120.39990234375
1261.38462867049	2115.60009765625
1262.0478950694	2122.39990234375
1262.71107645919	2134.19995117188
1263.37417284748	2135.60009765625
1264.03718424191	2165.80004882813
1264.70011065011	2145.39990234375
1265.36295207974	2166.39990234375
1266.02570853841	2163.19995117188
1266.68838003378	2152.39990234375
1267.35096657346	2148.19995117188
1268.01346816511	2129.60009765625
1268.67588481636	2100.80004882813
1269.33821653483	2113.60009765625
1270.00046332817	2132.60009765625
1270.66262520401	2143.39990234375
1271.32470216998	2146.60009765625
1271.98669423372	2155.80004882813
1272.64860140285	2139.19995117188
1273.31042368503	2138.39990234375
1273.97216108786	2127.80004882813
1274.633813619	2132.60009765625
1275.29538128606	2138
1275.95686409669	2141
1276.6182620585	2146.80004882813
1277.27957517914	2141
1277.94080346624	2134.60009765625
1278.60194692741	2134.80004882813
1279.2630055703	2158.19995117188
1279.92397940253	2150.19995117188
1280.58486843173	2161
1281.24567266552	2170.60009765625
1281.90639211155	2146
1282.56702677743	2149.60009765625
1283.2275766708	2144.19995117188
1283.88804179927	2119.39990234375
1284.54842217049	2124.60009765625
1285.20871779206	2129.80004882813
1285.86892867163	2117.80004882813
1286.52905481681	2135.39990234375
1287.18909623523	2173
1287.84905293452	2179.19995117188
1288.5089249223	2190.19995117188
1289.16871220619	2172
1289.82841479383	2173.80004882813
1290.48803269282	2184.60009765625
1291.1475659108	2165.19995117188
1291.80701445539	2127.80004882813
1292.46637833421	2117.39990234375
1293.12565755489	2116
1293.78485212504	2088.80004882813
1294.44396205229	2110.80004882813
1295.10298734425	2113.19995117188
1295.76192800856	2117.80004882813
1296.42078405283	2114.60009765625
1297.07955548467	2117.80004882813
1297.73824231171	2156.39990234375
1298.39684454158	2142.19995117188
1299.05536218188	2153.80004882813
1299.71379524023	2124
1300.37214372427	2143.39990234375
1301.03040764159	2109.60009765625
1301.68858699983	2133.19995117188
1302.34668180659	2144.39990234375
1303.0046920695	2139.19995117188
1303.66261779617	2172.80004882813
1304.32045899422	2180.60009765625
1304.97821567126	2182.19995117188
1305.63588783492	2205
1306.29347549279	2161.39990234375
1306.95097865251	2177.19995117188
1307.60839732168	2179.19995117188
1308.26573150791	2176
1308.92298121883	2181.39990234375
1309.58014646204	2171
1310.23722724517	2162.19995117188
1310.89422357581	2171
1311.55113546158	2171.39990234375
1312.2079629101	2166.39990234375
1312.86470592898	2189.19995117188
1313.52136452582	2188.60009765625
1314.17793870824	2171.39990234375
1314.83442848386	2201.39990234375
1315.49083386027	2203.60009765625
1316.14715484509	2200
1316.80339144594	2200.19995117188
1317.45954367041	2215.60009765625
1318.11561152611	2218
1318.77159502067	2183.19995117188
1319.42749416168	2179.60009765625
1320.08330895674	2188.19995117188
1320.73903941348	2186.19995117188
1321.3946855395	2160.80004882813
1322.0502473424	2173.19995117188
1322.70572482978	2185.39990234375
1323.36111800926	2167.60009765625
1324.01642688845	2163.19995117188
1324.67165147494	2155
1325.32679177634	2155
1325.98184780025	2165.39990234375
1326.63681955429	2159.60009765625
1327.29170704605	2153.80004882813
1327.94651028314	2140.60009765625
1328.60122927316	2141.80004882813
1329.25586402371	2146.19995117188
1329.9104145424	2146
1330.56488083683	2149.80004882813
1331.2192629146	2120.60009765625
1331.87356078331	2140.80004882813
1332.52777445056	2143
1333.18190392395	2141
1333.83594921109	2147.39990234375
1334.48991031958	2134.39990234375
1335.143787257	2119.39990234375
1335.79758003097	2114.80004882813
1336.45128864908	2124.19995117188
1337.10491311893	2156
1337.75845344813	2160.80004882813
1338.41190964425	2133.19995117188
1339.06528171491	2146.80004882813
1339.71856966771	2135.80004882813
1340.37177351023	2135
1341.02489325007	2113.39990234375
1341.67792889484	2108.39990234375
1342.33088045212	2117.39990234375
1342.98374792952	2101.60009765625
1343.63653133462	2089
1344.28923067503	2114
1344.94184595833	2113.80004882813
1345.59437719212	2138.19995117188
1346.246824384	2160.60009765625
1346.89918754155	2176.80004882813
1347.55146667238	2173.80004882813
1348.20366178407	2174.60009765625
1348.85577288421	2178
1349.50779998041	2183
1350.15974308024	2180.80004882813
1350.8116021913	2175
1351.46337732119	2159.39990234375
1352.11506847748	2161.19995117188
1352.76667566778	2175.80004882813
1353.41819889967	2179.80004882813
1354.06963818074	2199.80004882813
1354.72099351858	2205.39990234375
1355.37226492079	2197.60009765625
1356.02345239494	2236.60009765625
1356.67455594862	2254.80004882813
1357.32557558943	2302.39990234375
1357.97651132496	2299.80004882813
1358.62736316277	2321.60009765625
1359.27813111048	2336.80004882813
1359.92881517565	2334.19995117188
1360.57941536589	2338.80004882813
1361.22993168876	2351.19995117188
1361.88036415186	2345.39990234375
1362.53071276278	2332.39990234375
1363.1809775291	2321.80004882813
1363.8311584584	2342.19995117188
1364.48125555826	2315
1365.13126883627	2279.80004882813
1365.78119830001	2232
1366.43104395707	2236
1367.08080581503	2215
1367.73048388147	2197
1368.38007816397	2184.19995117188
1369.02958867011	2182.80004882813
1369.67901540748	2173.80004882813
1370.32835838365	2178.80004882813
1370.9776176062	2177.80004882813
1371.62679308273	2177.60009765625
1372.27588482079	2171.80004882813
1372.92489282798	2168.80004882813
1373.57381711188	2176.19995117188
1374.22265768006	2169.80004882813
1374.87141454009	2144.80004882813
1375.52008769957	2140.60009765625
1376.16867716606	2118.80004882813
1376.81718294715	2106.19995117188
1377.4656050504	2109.80004882813
1378.1139434834	2109.80004882813
1378.76219825373	2130
1379.41036936895	2114.19995117188
1380.05845683664	2134.39990234375
1380.70646066439	2133
1381.35438085976	2113.60009765625
1382.00221743032	2094.39990234375
1382.64997038366	2099.80004882813
1383.29763972735	2096
1383.94522546895	2090.19995117188
1384.59272761605	2088.19995117188
1385.24014617621	2083.39990234375
1385.88748115701	2067.80004882813
1386.53473256602	2070
1387.18190041081	2063.80004882813
1387.82898469895	2071
1388.47598543802	2065
1389.12290263558	2057.19995117188
1389.7697362992	2047.80004882813
1390.41648643646	2040.19995117188
1391.06315305492	2031.80004882813
1391.70973616215	2029.80004882813
1392.35623576573	2029.19995117188
1393.00265187321	2026.40002441406
1393.64898449217	2058.60009765625
1394.29523363018	2055.19995117188
1394.94139929481	2058.39990234375
1395.58748149361	2027
1396.23348023415	2024.80004882813
1396.87939552402	1991.59997558594
1397.52522737076	1992.40002441406
1398.17097578195	1964
1398.81664076514	1976
1399.46222232792	1968
1400.10772047783	1960.59997558594
1400.75313522245	1975
1401.39846656934	1989.80004882813
1402.04371452605	2021.59997558594
1402.68887910016	2033.19995117188
1403.33396029924	2021.80004882813
1403.97895813083	1999.40002441406
1404.6238726025	2009.19995117188
1405.26870372182	2020.59997558594
1405.91345149634	2004.80004882813
1406.55811593363	1995.80004882813
1407.20269704125	2008.40002441406
1407.84719482676	1992.40002441406
1408.49160929772	1979.80004882813
1409.13594046168	1988.59997558594
1409.78018832622	2021
1410.42435289887	2016.19995117188
1411.06843418722	2024.80004882813
1411.7124321988	2018
1412.3563469412	2034.40002441406
1413.00017842194	2029.80004882813
1413.64392664861	2029
1414.28759162875	2053.80004882813
1414.93117336992	2053.80004882813
1415.57467187967	2046.19995117188
1416.21808716557	2064.39990234375
1416.86141923516	2069.39990234375
1417.50466809601	2063
1418.14783375567	2077.80004882813
1418.79091622169	2072.19995117188
1419.43391550162	2057.39990234375
1420.07683160303	2067.60009765625
1420.71966453346	2071.60009765625
1421.36241430046	2054
1422.0050809116	2070.80004882813
1422.64766437442	2060.39990234375
1423.29016469647	2070
1423.93258188531	2083.60009765625
1424.57491594848	2079.19995117188
1425.21716689354	2069.19995117188
1425.85933472805	2058.19995117188
1426.50141945954	2038
1427.14342109557	2046.19995117188
1427.78533964369	2064.19995117188
1428.42717511144	2035.40002441406
1429.06892750639	2022.80004882813
1429.71059683607	2013
1430.35218310803	2031.19995117188
1430.99368632983	2023
1431.635106509	2032.19995117188
1432.2764436531	2011
1432.91769776967	2039.19995117188
1433.55886886627	2034.40002441406
1434.19995695043	2028
1434.84096202969	2048.80004882813
1435.48188411162	2026.59997558594
1436.12272320375	2012.40002441406
1436.76347931363	2018.19995117188
1437.40415244879	2018.80004882813
1438.0447426168	2003
1438.68524982518	1995.19995117188
1439.32567408148	1995.80004882813
1439.96601539325	1989.40002441406
1440.60627376803	1980.19995117188
1441.24644921336	2015.19995117188
1441.88654173678	1989
1442.52655134583	1994.19995117188
1443.16647804806	1987.19995117188
1443.806321851	1993.40002441406
1444.4460827622	2019.19995117188
1445.0857607892	2016.19995117188
1445.72535593953	1989.40002441406
1446.36486822074	1982
1447.00429764037	1983.59997558594
1447.64364420595	1970.59997558594
1448.28290792502	1984.59997558594
1448.92208880512	1981.40002441406
1449.56118685379	1977.40002441406
1450.20020207857	1998.80004882813
1450.83913448699	1982.80004882813
1451.47798408659	1991.80004882813
1452.1167508849	1995.40002441406
1452.75543488947	2007.80004882813
1453.39403610782	2004.59997558594
1454.0325545475	1988.19995117188
1454.67099021603	1995.59997558594
1455.30934312097	2002.80004882813
1455.94761326982	2008.19995117188
1456.58580067014	2000.40002441406
1457.22390532945	1990.80004882813
1457.86192725529	1995.80004882813
1458.49986645519	1995.80004882813
1459.13772293668	2012.59997558594
1459.7754967073	1990.19995117188
1460.41318777457	1990.19995117188
1461.05079614604	1998.59997558594
1461.68832182922	1991.80004882813
1462.32576483166	1999.59997558594
1462.96312516087	2011.19995117188
1463.6004028244	2001.80004882813
1464.23759782977	2021.59997558594
1464.8747101845	2019.59997558594
1465.51173989614	2036.40002441406
1466.14868697221	2038.19995117188
1466.78555142024	2019.40002441406
1467.42233324774	2007
1468.05903246227	2011.19995117188
1468.69564907133	2008
1469.33218308246	1998.59997558594
1469.96863450317	1999.19995117188
1470.60500334102	2003.19995117188
1471.2412896035	2021.80004882813
1471.87749329816	2018.40002441406
1472.51361443251	2014.40002441406
1473.14965301409	2022.59997558594
1473.78560905041	2014.59997558594
1474.421482549	2002.19995117188
1475.05727351739	2004
1475.69298196309	1990.19995117188
1476.32860789364	2000.19995117188
1476.96415131654	1999.80004882813
1477.59961223934	1987.19995117188
1478.23499066954	1992.40002441406
1478.87028661467	1986.40002441406
1479.50550008226	1980.59997558594
1480.14063107981	1963.19995117188
1480.77567961486	1967.59997558594
1481.41064569492	1952.80004882813
1482.04552932752	1947.19995117188
1482.68033052017	1940
1483.31504928039	1965.40002441406
1483.9496856157	1968.19995117188
1484.58423953363	1964.40002441406
1485.21871104168	1986.59997558594
1485.85310014738	1986.40002441406
1486.48740685824	1959.80004882813
1487.12163118178	1974.59997558594
1487.75577312553	1971.40002441406
1488.38983269698	1969.80004882813
1489.02380990367	1969.19995117188
1489.65770475311	1973.40002441406
1490.29151725281	1999.19995117188
1490.92524741029	2002.59997558594
1491.55889523306	2001.19995117188
1492.19246072863	2004.80004882813
1492.82594390453	2012.80004882813
1493.45934476826	2026.59997558594
1494.09266332734	2031.40002441406
1494.72589958928	2039.40002441406
1495.3590535616	2042
1495.99212525181	2050.80004882813
1496.62511466741	2044
1497.25802181592	2040
1497.89084670485	2053
1498.52358934172	2080.19995117188
1499.15624973403	2082.19995117188
1499.7888278893	2093.19995117188
1500.42132381503	2106.19995117188
1501.05373751873	2127.80004882813
1501.68606900792	2156
1502.31831829009	2156.80004882813
1502.95048537277	2147.39990234375
1503.58257026346	2174.19995117188
1504.21457296966	2176.60009765625
1504.84649349889	2164.80004882813
1505.47833185864	2183.39990234375
1506.11008805644	2177.39990234375
1506.74176209978	2165.19995117188
1507.37335399617	2158.60009765625
1508.00486375312	2151.39990234375
1508.63629137813	2137.19995117188
1509.2676368787	2141
1509.89890026235	2154
1510.53008153658	2175
1511.16118070889	2179.39990234375
1511.79219778677	2168.80004882813
1512.42313277775	2179.39990234375
1513.05398568932	2159
1513.68475652898	2147.19995117188
1514.31544530424	2135.19995117188
1514.9460520226	2110
1515.57657669155	2071.80004882813
1516.20701931861	2059.39990234375
1516.83737991127	2027.19995117188
1517.46765847702	2034
1518.09785502339	2048.19995117188
1518.72796955785	2072.60009765625
1519.35800208792	2085.80004882813
1519.98795262109	2053.60009765625
1520.61782116486	2060.19995117188
1521.24760772673	2032.59997558594
1521.87731231419	2037.40002441406
1522.50693493475	2048.80004882813
1523.1364755959	2051
1523.76593430514	2040.80004882813
1524.39531106997	2026
1525.02460589788	2024.40002441406
1525.65381879637	2022.80004882813
1526.28294977293	2010
1526.91199883507	2019
1527.54096599027	2000.40002441406
1528.16985124603	1999.40002441406
1528.79865460984	1983.80004882813
1529.4273760892	1970.59997558594
1530.05601569161	1971
1530.68457342455	1999.19995117188
1531.31304929552	2010
1531.94144331201	1993.40002441406
1532.56975548151	2010
1533.19798581152	2017.80004882813
1533.82613430953	2025.59997558594
1534.45420098302	2030.19995117188
1535.08218583949	2023.59997558594
1535.71008888643	2014.80004882813
1536.33791013134	1997.19995117188
1536.96564958169	2013.80004882813
1537.59330724498	1992.19995117188
1538.22088312871	2014.19995117188
1538.84837724034	1999.59997558594
1539.47578958739	1990
1540.10312017733	2001.19995117188
1540.73036901765	1976
1541.35753611584	1983.80004882813
1541.98462147939	1988
1542.61162511578	1966.80004882813
1543.2385470325	1976.59997558594
1543.86538723704	1994.80004882813
1544.49214573688	2000.59997558594
1545.11882253951	2021.59997558594
1545.74541765241	2002
1546.37193108306	2005.80004882813
1546.99836283896	1995.40002441406
1547.62471292758	1986
1548.25098135641	2004.59997558594
1548.87716813294	1991.80004882813
1549.50327326464	1982.19995117188
1550.12929675899	1992.59997558594
1550.75523862349	1985
1551.38109886561	2000
1552.00687749284	2002
1552.63257451264	1974
1553.25818993252	1966.19995117188
1553.88372375994	1977.40002441406
1554.50917600239	1949.40002441406
1555.13454666734	1937.59997558594
1555.75983576228	1943.40002441406
1556.38504329469	1939.80004882813
1557.01016927204	1940
1557.63521370181	1948.59997558594
1558.26017659149	1957.59997558594
1558.88505794854	1946.80004882813
1559.50985778045	1986
1560.13457609469	1969.19995117188
1560.75921289874	1966.19995117188
1561.38376820008	1958.80004882813
1562.00824200618	1945
1562.63263432452	1947.80004882813
1563.25694516257	1943.19995117188
1563.88117452781	1928.40002441406
1564.50532242772	1929.40002441406
1565.12938886976	1927.19995117188
1565.75337386141	1918
1566.37727741015	1933
1567.00109952345	1977.80004882813
1567.62484020878	1972.80004882813
1568.24849947361	1979
1568.87207732542	1995.19995117188
1569.49557377168	2012.80004882813
1570.11898881986	2020
1570.74232247743	2008.40002441406
1571.36557475186	1997.80004882813
1571.98874565062	1981
1572.61183518119	2013.19995117188
1573.23484335103	2046.59997558594
1573.85777016761	2045
1574.4806156384	2052.80004882813
1575.10337977088	2066.80004882813
1575.7260625725	2043.19995117188
1576.34866405074	2040.19995117188
1576.97118421306	2039.80004882813
1577.59362306694	2064.39990234375
1578.21598061984	2070.60009765625
1578.83825687922	2067.60009765625
1579.46045185255	2050.60009765625
1580.08256554731	2023.59997558594
1580.70459797094	2013.80004882813
1581.32654913093	2010.40002441406
1581.94841903473	1986
1582.57020768981	1973.40002441406
1583.19191510364	1965.80004882813
1583.81354128367	1953.19995117188
1584.43508623737	1948.59997558594
1585.05654997221	1953.19995117188
1585.67793249564	1952.19995117188
1586.29923381514	1946.40002441406
1586.92045393815	1925.80004882813
1587.54159287216	1936
1588.1626506246	1924.59997558594
1588.78362720296	1934.40002441406
1589.40452261468	1929.19995117188
1590.02533686724	1917
1590.64606996808	1915.59997558594
1591.26672192467	1911.40002441406
1591.88729274447	1898.80004882813
1592.50778243493	1906
1593.12819100352	1893.59997558594
1593.7485184577	1880
1594.36876480492	1876.80004882813
1594.98893005264	1894
1595.60901420832	1873.40002441406
1596.22901727941	1869.80004882813
1596.84893927338	1878.19995117188
1597.46878019767	1891.80004882813
1598.08854005975	1889.59997558594
1598.70821886707	1903.19995117188
1599.32781662708	1911.80004882813
1599.94733334725	1925.19995117188
1600.56676903502	1919.19995117188
1601.18612369785	1902.19995117188
1601.8053973432	1881.19995117188
1602.42458997851	1866.40002441406
1603.04370161124	1858
1603.66273224884	1849.80004882813
1604.28168189878	1846.80004882813
1604.90055056849	1838.59997558594
1605.51933826543	1837.59997558594
1606.13804499705	1854
1606.75667077081	1838.40002441406
1607.37521559415	1830.19995117188
1607.99367947452	1813.40002441406
1608.61206241938	1835.59997558594
1609.23036443618	1842
1609.84858553236	1834.59997558594
1610.46672571537	1834.40002441406
1611.08478499267	1843.59997558594
1611.7027633717	1844.19995117188
1612.3206608599	1841
1612.93847746473	1836.40002441406
1613.55621319364	1811.40002441406
1614.17386805407	1796.80004882813
1614.79144205347	1785.19995117188
1615.40893519928	1789.59997558594
1616.02634749895	1790
1616.64367895993	1795.80004882813
1617.26092958966	1794.59997558594
1617.87809939559	1776
1618.49518838516	1790.80004882813
1619.11219656582	1800.80004882813
1619.729123945	1788.59997558594
1620.34597053016	1795.80004882813
1620.96273632874	1790
1621.57942134818	1795.40002441406
1622.19602559592	1785.40002441406
1622.8125490794	1773.59997558594
1623.42899180607	1780.40002441406
1624.04535378337	1781.40002441406
1624.66163501874	1795.59997558594
1625.27783551963	1783.80004882813
1625.89395529346	1786.19995117188
1626.50999434768	1776.19995117188
1627.12595268974	1776.80004882813
1627.74183032707	1756.40002441406
1628.3576272671	1750.40002441406
1628.97334351729	1736
1629.58897908506	1742.80004882813
1630.20453397786	1742
1630.82000820313	1756
1631.43540176829	1770.80004882813
1632.05071468079	1758.40002441406
1632.66594694807	1757.59997558594
1633.28109857756	1761.80004882813
1633.8961695767	1754.80004882813
1634.51115995292	1751.40002441406
1635.12606971366	1746.59997558594
1635.74089886636	1733.59997558594
1636.35564741844	1758.40002441406
1636.97031537734	1775.59997558594
1637.58490275051	1762.40002441406
1638.19940954536	1778.59997558594
1638.81383576934	1789.19995117188
1639.42818142987	1791.40002441406
1640.0424465344	1797.19995117188
1640.65663109034	1796.40002441406
1641.27073510515	1812.59997558594
1641.88475858623	1807.40002441406
1642.49870154104	1804.19995117188
1643.11256397699	1814
1643.72634590152	1815.59997558594
1644.34004732206	1815
1644.95366824604	1822.19995117188
1645.56720868089	1830.59997558594
1646.18066863404	1833.80004882813
1646.79404811291	1844.40002441406
1647.40734712494	1844.40002441406
1648.02056567755	1839.59997558594
1648.63370377817	1864
1649.24676143423	1854.40002441406
1649.85973865316	1834
1650.47263544238	1838.80004882813
1651.08545180932	1852.19995117188
1651.6981877614	1844
1652.31084330606	1844.19995117188
1652.92341845071	1836
1653.53591320278	1807
1654.1483275697	1815.19995117188
1654.7606615589	1785.59997558594
1655.37291517778	1785.59997558594
1655.98508843379	1776
1656.59718133434	1757
1657.20919388685	1762.40002441406
1657.82112609875	1753.40002441406
1658.43297797747	1752.40002441406
1659.04474953041	1750.80004882813
1659.65644076501	1750.59997558594
1660.26805168869	1743.40002441406
1660.87958230886	1714
1661.49103263294	1713.59997558594
1662.10240266837	1714.80004882813
1662.71369242255	1713
1663.32490190291	1719.40002441406
1663.93603111687	1695
1664.54708007184	1703.80004882813
1665.15804877524	1689.59997558594
1665.7689372345	1694.19995117188
1666.37974545703	1690.80004882813
1666.99047345024	1690.40002441406
1667.60112122156	1692
1668.2116887784	1671
1668.82217612818	1662.40002441406
1669.43258327831	1646
1670.04291023622	1622
1670.65315700931	1624.59997558594
1671.263323605	1612.40002441406
1671.8734100307	1614.80004882813
1672.48341629384	1604.59997558594
1673.09334240182	1610.59997558594
1673.70318836206	1603.80004882813
1674.31295418197	1600.19995117188
1674.92263986896	1592.19995117188
1675.53224543046	1589.19995117188
1676.14177087386	1599.59997558594
1676.75121620658	1599.59997558594
1677.36058143604	1607.59997558594
1677.96986656964	1602.19995117188
1678.5790716148	1621.80004882813
1679.18819657892	1634
1679.79724146943	1627.40002441406
1680.40620629372	1637.19995117188
1681.0150910592	1636.19995117188
1681.6238957733	1631.59997558594
1682.23262044341	1635
1682.84126507694	1639.19995117188
1683.4498296813	1645.80004882813
1684.0583142639	1647.59997558594
1684.66671883216	1636
1685.27504339346	1633.40002441406
1685.88328795523	1626.19995117188
1686.49145252487	1617
1687.09953710978	1619.19995117188
1687.70754171737	1608.19995117188
1688.31546635505	1619.19995117188
1688.92331103021	1634.19995117188
1689.53107575028	1636.59997558594
1690.13876052265	1628.80004882813
1690.74636535472	1632.80004882813
1691.3538902539	1620.80004882813
1691.96133522759	1611
1692.5687002832	1594
1693.17598542812	1588.59997558594
1693.78319066977	1571.40002441406
1694.39031601554	1565
1694.99736147283	1574.80004882813
1695.60432704905	1585.40002441406
1696.2112127516	1596.40002441406
1696.81801858788	1591.40002441406
1697.42474456528	1608
1698.03139069121	1611
1698.63795697307	1605.19995117188
1699.24444341826	1599.80004882813
1699.85085003417	1621
1700.45717682821	1613.19995117188
1701.06342380778	1606.59997558594
1701.66959098026	1618.80004882813
1702.27567835307	1604.19995117188
1702.88168593359	1579.40002441406
1703.48761372922	1575.80004882813
1704.09346174737	1555
1704.69922999542	1565.40002441406
1705.30491848077	1556.40002441406
1705.91052721083	1574.40002441406
1706.51605619297	1580.40002441406
1707.12150543461	1569
1707.72687494312	1579.40002441406
1708.33216472592	1556.59997558594
1708.93737479039	1556.40002441406
1709.54250514392	1543.59997558594
