634.977642221345	5591.7998046875
635.719821695905	5620.60009765625
636.461909203392	5636.7998046875
637.203904751776	5653.7998046875
637.945808349023	5719.2001953125
638.687620003102	5841.60009765625
639.42933972198	5930.39990234375
640.170967513616	5877.39990234375
640.912503385981	5816.39990234375
641.653947347041	5740.7998046875
642.395299404758	5666.39990234375
643.13655956709	5588.7998046875
643.877727842014	5478
644.61880423748	5397
645.359788761455	5438.7998046875
646.100681421905	5502.2001953125
646.841482226789	5589.39990234375
647.582191184074	5595.39990234375
648.322808301711	5597.7998046875
649.06333358767	5539.7998046875
649.803767049909	5539.39990234375
650.544108696385	5563.7998046875
651.28435853506	5636.2001953125
652.024516573894	5740.7998046875
652.764582820849	5781.60009765625
653.504557283875	5832.7998046875
654.244439970937	5845.60009765625
654.984230889991	5908
655.723930048995	5967.7998046875
656.463537455909	6002.2001953125
657.203053118683	6051
657.942477045275	6029
658.681809243647	6000.39990234375
659.421049721747	5963.60009765625
660.160198487535	5933.2001953125
660.899255548962	5965.7998046875
661.638220913985	6013.2001953125
662.377094590559	6044
663.115876586631	6046.39990234375
663.854566910165	6047.60009765625
664.593165569107	5996.7998046875
665.331672571406	5932.60009765625
666.07008792502	5846.7998046875
666.808411637902	5786.60009765625
667.546643717996	5744
668.284784173258	5732.60009765625
669.022833011641	5750.2001953125
669.760790241089	5821
670.498655869554	5789.39990234375
671.236429904987	5795.7998046875
671.97411235534	5768
672.711703228551	5829.60009765625
673.449202532577	5909.39990234375
674.186610275364	5981.39990234375
674.923926464857	6000.2001953125
675.661151109008	6067.60009765625
676.398284215759	6068.2001953125
677.135325793058	6053
677.87227584885	6171.39990234375
678.609134391082	6246
679.345901427696	6242.60009765625
680.082576966644	6200.7998046875
680.819161015861	6163.7998046875
681.555653583298	6086.60009765625
682.292054676895	6030.39990234375
683.028364304594	6000.7998046875
683.764582474344	5963.2001953125
684.500709194083	5886.39990234375
685.236744471752	5905.60009765625
685.972688315294	5898.60009765625
686.708540732652	5896.60009765625
687.444301731762	5931
688.179971320572	5889
688.915549507013	5835
689.651036299034	5779.39990234375
690.386431704569	5767.7998046875
691.121735731559	5681.39990234375
691.85694838794	5675.60009765625
692.592069681652	5704.7998046875
693.327099620632	5719.2001953125
694.062038212821	5835.39990234375
694.796885466149	5939.39990234375
695.531641388561	6033
696.266305987987	6162.2001953125
697.000879272367	6152
697.735361249632	6188
698.469751927722	6229.60009765625
699.204051314568	6205
699.938259418107	6140.39990234375
700.672376246272	6069.7998046875
701.406401806997	6072.2001953125
702.140336108212	6019
702.874179157855	6013.39990234375
703.607930963856	6032
704.341591534147	5988
705.07516087666	5998.60009765625
705.808638999324	6023.60009765625
706.542025910073	6043
707.275321616841	6020.39990234375
708.008526127549	6019.2001953125
708.741639450132	6017.60009765625
709.474661592521	6033.2001953125
710.207592562641	6037
710.940432368424	5990.39990234375
711.673181017796	6018.39990234375
712.405838518687	6023.2001953125
713.138404879025	6002.60009765625
713.870880106731	6034.2001953125
714.603264209738	6092.39990234375
715.335557195971	6105.60009765625
716.067759073357	6127.39990234375
716.799869849816	6188
717.531889533281	6219.2001953125
718.263818131673	6178.60009765625
718.995655652917	6166.39990234375
719.727402104934	6114.7998046875
720.45905749565	6092.39990234375
721.19062183299	6072.2001953125
721.922095124877	6013.60009765625
722.653477379231	6051.39990234375
723.384768603973	6039.60009765625
724.11596880703	6050.7998046875
724.847077996319	6144.60009765625
725.578096179762	6145.7998046875
726.309023365281	6143.39990234375
727.039859560792	6196.2001953125
727.770604774222	6170.7998046875
728.501259013484	6136.39990234375
729.231822286501	6225.2001953125
729.962294601191	6223.39990234375
730.692675965469	6120.2001953125
731.42296638726	6057.2001953125
732.153165874472	6081.60009765625
732.883274435032	6121.39990234375
733.613292076851	6177.7998046875
734.343218807843	6241.39990234375
735.07305463593	6256.60009765625
735.802799569028	6187.7998046875
736.532453615048	6127.7998046875
737.262016781904	6097.2001953125
737.991489077517	6064.2001953125
738.720870509794	6085.2001953125
739.450161086654	6071.2001953125
740.179360816009	6061.7998046875
740.908469705772	6171.60009765625
741.637487763854	6237.2001953125
742.366414998168	6272.60009765625
743.095251416623	6311
743.823997027137	6285
744.552651837618	6306
745.281215855978	6284
746.009689090124	6212.60009765625
746.738071547964	6133
747.466363237419	6075
748.194564166384	6121.7998046875
748.92267434278	6107.60009765625
749.650693774504	6100.60009765625
750.378622469476	6118.7998046875
751.106460435596	6177.2001953125
751.834207680771	6201.2001953125
752.561864212909	6285.7998046875
753.289430039919	6282.2001953125
754.016905169707	6271.39990234375
754.744289610175	6247.39990234375
755.471583369231	6227.39990234375
756.198786454782	6237.60009765625
756.925898874728	6250.39990234375
757.652920636979	6217
758.379851749433	6224
759.106692219996	6287.2001953125
759.833442056572	6291.2001953125
760.560101267063	6356
761.28666985937	6506.39990234375
762.0131478414	6542.7998046875
762.739535221046	6538.60009765625
763.465832006219	6574
764.192038204812	6648.39990234375
764.918153824731	6660.7998046875
765.644178873872	6758
766.370113360138	6882
767.095957291425	7071.60009765625
767.821710675635	7202.39990234375
768.547373520665	7280.39990234375
769.272945834415	7389
769.998427624781	7481
770.723818899658	7641.7998046875
771.449119666949	7651.39990234375
772.174329934546	7723.60009765625
772.899449710347	7794.2001953125
773.624479002248	7830.7998046875
774.349417818145	7844.39990234375
775.074266165934	7804.2001953125
775.799024053505	7817.7998046875
776.523691488757	7687.7998046875
777.248268479582	7473.60009765625
777.972755033877	7277.60009765625
778.69715115953	7112
779.421456864441	7004.2001953125
780.145672156493	6819.7998046875
780.869797043587	6777.2001953125
781.593831533611	6671
782.317775634457	6663
783.041629354012	6608
783.765392700174	6508.2001953125
784.489065680828	6413.39990234375
785.212648303866	6329.39990234375
785.936140577177	6335.60009765625
786.659542508652	6326
787.382854106174	6295.39990234375
788.106075377639	6310.7998046875
788.829206330928	6343.39990234375
789.552246973933	6415.60009765625
790.275197314542	6423.2001953125
790.998057360638	6433.39990234375
791.720827120108	6416.2001953125
792.443506600841	6348.2001953125
793.166095810722	6286.39990234375
793.888594757635	6209.39990234375
794.611003449465	6249.60009765625
795.333321894098	6297
796.055550099417	6363.39990234375
796.777688073308	6367.39990234375
797.499735823654	6441.7998046875
798.221693358334	6335.39990234375
798.943560685235	6330.60009765625
799.665337812239	6361.39990234375
800.387024747226	6391.60009765625
801.108621498075	6378
801.830128072674	6368.7998046875
802.551544478902	6377.39990234375
803.272870724636	6326.2001953125
803.994106817761	6329
804.715252766148	6261.39990234375
805.436308577687	6221.39990234375
806.157274260251	6204.39990234375
806.878149821721	6231.39990234375
807.598935269973	6260
808.319630612886	6271.2001953125
809.040235858336	6221.60009765625
809.760751014202	6274.39990234375
810.481176088361	6337.39990234375
811.201511088685	6278.60009765625
811.921756023059	6243.2001953125
812.641910899347	6208.7998046875
813.361975725432	6189.39990234375
814.081950509188	6217
814.801835258489	6231.39990234375
815.521629981206	6260.7998046875
816.241334685218	6258.2001953125
816.960949378392	6226.7998046875
817.680474068606	6173.39990234375
818.399908763731	6135.7998046875
819.11925347164	6107.39990234375
819.838508200202	6110.7998046875
820.55767295729	6051
821.276747750778	6039.7998046875
821.995732588531	6034
822.714627478425	6095.39990234375
823.433432428327	6187.60009765625
824.152147446105	6243
824.870772539632	6315.2001953125
825.589307716775	6362.7998046875
826.307752985404	6369.39990234375
827.026108353378	6373.7998046875
827.744373828579	6315.7998046875
828.462549418867	6304.60009765625
829.180635132107	6291.2001953125
829.898630976168	6324
830.616536958915	6371
831.334353088218	6397.60009765625
832.052079371938	6366.60009765625
832.769715817942	6372
833.487262434092	6264.60009765625
834.204719228255	6232.7998046875
834.922086208293	6225.2001953125
835.639363382073	6224.60009765625
836.356550757456	6262.7998046875
837.073648342304	6291.2001953125
837.790656144484	6309.7998046875
838.507574171847	6294
839.22440243227	6254.7998046875
839.941140933601	6189.39990234375
840.657789683706	6124.39990234375
841.374348690448	6121
842.090817961686	6138.60009765625
842.807197505276	6192.39990234375
843.523487329083	6244.39990234375
844.23968744096	6188.2001953125
844.955797848771	6171.39990234375
845.671818560374	6159.7998046875
846.387749583622	6169.39990234375
847.103590926378	6130
847.819342596497	6110.2001953125
848.535004601833	6037.2001953125
849.25057695025	5974.39990234375
849.966059649598	5977.2001953125
850.681452707735	6035.2001953125
851.396756132513	6072.2001953125
852.111969931789	6160.7998046875
852.827094113419	6221.7998046875
853.542128685257	6226
854.257073655158	6240.60009765625
854.971929030969	6196.7998046875
855.686694820551	6174.7998046875
856.40137103175	6142
857.115957672423	6160.60009765625
857.830454750423	6182
858.544862273597	6179.60009765625
859.259180249797	6178.39990234375
859.97340868688	6243.7998046875
860.687547592688	6252.60009765625
861.401596975075	6237.2001953125
862.115556841891	6259.2001953125
862.829427200985	6225.2001953125
863.543208060205	6264.7998046875
864.256899427402	6198.39990234375
864.970501310423	6169
865.684013717114	6171.7998046875
866.397436655325	6174.2001953125
867.110770132901	6175
867.824014157691	6117
868.537168737542	6116.2001953125
869.250233880299	6098.39990234375
869.963209593803	6084.60009765625
870.676095885902	6068.60009765625
871.388892764445	6064.7998046875
872.101600237276	6071.2001953125
872.814218312233	6090.7998046875
873.526746997165	6116.39990234375
874.239186299914	6113.7998046875
874.951536228323	6106
875.663796790231	6141.7998046875
876.375967993487	6105.39990234375
877.088049845928	6145.2001953125
877.8000423554	6145.2001953125
878.511945529739	6091.2001953125
879.22375937679	6074
879.935483904388	6064
880.64711912038	6028.39990234375
881.358665032604	6018
882.070121648892	5972.39990234375
882.78148897709	5957.2001953125
883.492767025039	5989.2001953125
884.203955800571	6086.7998046875
884.915055311525	6051.2001953125
885.626065565741	6032
886.336986571053	6007.39990234375
887.047818335298	5999.60009765625
887.758560866315	6037.2001953125
888.469214171937	6018
889.179778260005	6005.7998046875
889.890253138347	5951.2001953125
890.600638814803	5920
891.310935297204	5936.7998046875
892.021142593385	5945
892.731260711183	5967
893.441289658429	5999
894.15122944295	6010.2001953125
894.861080072591	6087
895.570841555173	6040.7998046875
896.280513898534	6041
896.990097110503	6088.39990234375
897.699591198913	6100.39990234375
898.408996171595	6107
899.118312036375	6152.7998046875
899.827538801089	6157.7998046875
900.536676473561	6101.39990234375
901.245725061628	6142.7998046875
901.954684573109	6217.2001953125
902.663555015838	6273.60009765625
903.372336397644	6298.7998046875
904.081028726351	6282.2001953125
904.789632009793	6282.60009765625
905.49814625579	6288.60009765625
906.20657147217	6331
906.914907666765	6275
907.623154847391	6271
908.331313021885	6255.2001953125
909.039382198064	6252.39990234375
909.747362383754	6257.2001953125
910.455253586782	6251.7998046875
911.163055814972	6228.60009765625
911.870769076143	6255.60009765625
912.578393378126	6185.2001953125
913.285928728738	6191
913.993375135802	6211
914.700732607145	6255.2001953125
915.408001150579	6327.2001953125
916.115180773937	6341
916.822271485037	6379.7998046875
917.529273291693	6383.7998046875
918.236186201733	6341.60009765625
918.943010222971	6290.2001953125
919.649745363234	6288.39990234375
920.356391630333	6273.2001953125
921.062949032096	6224.2001953125
921.769417576333	6201
922.475797270864	6185.2001953125
923.182088123512	6221
923.888290142089	6280.39990234375
924.594403334414	6345.7998046875
925.300427708304	6406
926.006363271572	6436
926.712210032039	6443
927.417967997522	6412
928.123637175827	6370.39990234375
928.829217574776	6330.2001953125
929.534709202184	6359
930.240112065859	6366
930.945426173621	6315.7998046875
931.650651533283	6277.39990234375
932.355788152653	6262
933.060836039547	6240.7998046875
933.765795201776	6224.2001953125
934.470665647153	6169
935.175447383492	6120.60009765625
935.880140418599	6152.60009765625
936.584744760286	6173.2001953125
937.289260416366	6198.60009765625
937.993687394647	6277
938.698025702939	6314.7998046875
939.402275349051	6338
940.106436340793	6421
940.810508685976	6400.2001953125
941.5144923924	6349.2001953125
942.21838746788	6277.2001953125
942.922193920223	6199
943.625911757231	6118.60009765625
944.329540986716	6035.7998046875
945.033081616484	5990.2001953125
945.736533654334	5947.60009765625
946.439897108083	5951.39990234375
947.143171985529	5981
947.846358294477	5974.39990234375
948.549456042732	5959.60009765625
949.2524652381	6001.2001953125
949.955385888382	6069.60009765625
950.658218001384	6057
951.360961584907	6102
952.063616646755	6079
952.766183194733	6142.60009765625
953.468661236636	6140.39990234375
954.171050780271	6110.60009765625
954.873351833437	6083.7998046875
955.575564403935	6071.2001953125
956.277688499565	6038.7998046875
956.97972412813	6002.60009765625
957.681671297424	6031.7998046875
958.383530015255	6026.7998046875
959.085300289414	6014.7998046875
959.786982127703	6003.7998046875
960.488575537918	6028.39990234375
961.190080527859	6036.7998046875
961.891497105327	5981.39990234375
962.592825278111	5985
963.294065054012	6023.7998046875
963.995216440829	5986
964.696279446353	6017.2001953125
965.397254078383	6040.2001953125
966.098140344714	6030.39990234375
966.798938253139	6019.39990234375
967.499647811456	6002.60009765625
968.200269027458	5980
968.900801908937	5982
969.601246463685	5957.39990234375
970.3016026995	5929.2001953125
971.001870624169	5890
971.702050245491	5916.39990234375
972.402141571249	5912.7998046875
973.102144609245	5873.2001953125
973.802059367267	5926.2001953125
974.501885853103	5937
975.201624074541	5944
975.901274039379	5983.2001953125
976.600835755399	5974.7998046875
977.3003092304	5876.39990234375
977.999694472158	5896
978.698991488473	5905.60009765625
979.39820028713	5923.39990234375
980.097320875915	5903.39990234375
980.796353262618	5997.60009765625
981.495297455024	6044.60009765625
982.194153460919	6073.39990234375
982.892921288093	6095.7998046875
983.591600944331	6118.39990234375
984.290192437419	6091
984.98869577514	6078.2001953125
985.687110965282	6053.60009765625
986.385438015629	6012.60009765625
987.083676933961	5980.2001953125
987.781827728069	5993
988.479890405732	5967.60009765625
989.177864974732	6006.39990234375
989.875751442857	5960.60009765625
990.573549817888	5979.39990234375
991.271260107602	6010.2001953125
991.968882319786	6002.39990234375
992.666416462217	5921.2001953125
993.363862542681	5915.7998046875
994.061220568959	5837.39990234375
994.758490548823	5794
995.455672490061	5823
996.152766400451	5871.39990234375
996.849772287773	5890.60009765625
997.5466901598	5894.7998046875
998.243520024317	5887.39990234375
998.940261889097	5855.39990234375
999.636915761923	5805
1000.33348165057	5725
1001.02995956281	5707.60009765625
1001.72634950643	5736.60009765625
1002.42265148919	5804.2001953125
1003.11886551889	5809
1003.81499160328	5873.60009765625
1004.51102975015	5949.39990234375
1005.20697996727	5978
1005.90284226242	5983
1006.59861664337	6036.39990234375
1007.2943031179	6040
1007.98990169377	6088
1008.68541237876	6138.7998046875
1009.38083518064	6180
1010.07617010719	6191.60009765625
1010.77141716617	6147.60009765625
1011.46657636536	6203.2001953125
1012.16164771253	6151
1012.85663121546	6092
1013.5515268819	6015.7998046875
1014.24633471963	5943.39990234375
1014.94105473642	5933.39990234375
1015.63568694004	5921.7998046875
1016.33023133826	5978.39990234375
1017.02468793885	6043.39990234375
1017.71905674957	5998.2001953125
1018.41333777819	6015.2001953125
1019.10753103249	5978.7998046875
1019.80163652022	6004
1020.49565424916	5988.7998046875
1021.18958422707	5975.7998046875
1021.88342646171	6005.39990234375
1022.57718096085	6013.60009765625
1023.27084773227	6044.2001953125
1023.96442678371	6001.2001953125
1024.65791812296	5929.2001953125
1025.35132175776	5800.39990234375
1026.04463769589	5775.7998046875
1026.73786594511	5760.60009765625
1027.43100651318	5749.60009765625
1028.12405940786	5772.60009765625
1028.81702463692	5764
1029.50990220812	5812.39990234375
1030.20269212921	5794.2001953125
1030.89539440798	5835
1031.58800905216	5748.2001953125
1032.28053606952	5626.60009765625
1032.97297546784	5644.2001953125
1033.66532725485	5685.39990234375
1034.35759143832	5733.2001953125
1035.04976802602	5780.60009765625
1035.7418570257	5752
1036.43385844511	5758.39990234375
1037.12577229202	5772
1037.81759857419	5828
1038.50933729937	5858.60009765625
1039.20098847531	5881
1039.89255210978	5857.60009765625
1040.58402821053	5879
1041.27541678532	5834
1041.96671784191	5810.2001953125
1042.65793138804	5767.60009765625
1043.34905743147	5749.7998046875
1044.04009597996	5784
1044.73104704125	5840.7998046875
1045.42191062312	5875.7998046875
1046.1126867333	5881.60009765625
1046.80337537955	5889.60009765625
1047.49397656962	5947
1048.18449031127	5888
1048.87491661225	5837.39990234375
1049.5652554803	5748.60009765625
1050.25550692319	5711.39990234375
1050.94567094865	5658.2001953125
1051.63574756444	5685
1052.32573677832	5749.60009765625
1053.01563859803	5768.60009765625
1053.70545303131	5790.7998046875
1054.39518008592	5795
1055.08481976961	5748.2001953125
1055.77437209013	5710.60009765625
1056.46383705522	5749.7998046875
1057.15321467262	5792.7998046875
1057.8425049501	5763.2001953125
1058.53170789539	5709.7998046875
1059.22082351624	5695.2001953125
1059.9098518204	5685
1060.59879281561	5646.7998046875
1061.28764650962	5684.7998046875
1061.97641291016	5739.2001953125
1062.665092025	5759.2001953125
1063.35368386187	5761.2001953125
1064.04218842851	5719.2001953125
1064.73060573268	5690.2001953125
1065.4189357821	5648
1066.10717858452	5622.60009765625
1066.7953341477	5584.2001953125
1067.48340247936	5574.7998046875
1068.17138358725	5550.60009765625
1068.85927747912	5580.7998046875
1069.5470841627	5605.2001953125
1070.23480364573	5666.7998046875
1070.92243593595	5689.60009765625
1071.60998104111	5650.2001953125
1072.29743896894	5663.2001953125
1072.98480972718	5643
1073.67209332357	5681.7998046875
1074.35928976585	5724.7998046875
1075.04639906176	5769
1075.73342121903	5811
1076.42035624541	5805.39990234375
1077.10720414862	5864.60009765625
1077.79396493641	5878.2001953125
1078.48063861651	5866.7998046875
1079.16722519666	5810.39990234375
1079.85372468459	5759.39990234375
1080.54013708804	5727.39990234375
1081.22646241474	5705.7998046875
1081.91270067243	5665.2001953125
1082.59885186884	5719.7998046875
1083.28491601171	5774.7998046875
1083.97089310877	5798.60009765625
1084.65678316774	5886.39990234375
1085.34258619637	5948.2001953125
1086.02830220239	5931.7998046875
1086.71393119352	5931
1087.39947317751	5928.60009765625
1088.08492816207	5935.7998046875
1088.77029615495	6012
1089.45557716387	6012.39990234375
1090.14077119656	6042.2001953125
1090.82587826075	6004.7998046875
1091.51089836417	5981
1092.19583151456	5947.39990234375
1092.88067771963	5862.7998046875
1093.56543698712	5870.2001953125
1094.25010932475	5811.39990234375
1094.93469474026	5783.2001953125
1095.61919324137	5794.7998046875
1096.3036048358	5774
1096.98792953129	5814.7998046875
1097.67216733555	5815
1098.35631825632	5817.39990234375
1099.04038230132	5821
1099.72435947828	5781.2001953125
1100.40824979492	5694.7998046875
1101.09205325895	5599.2001953125
1101.77576987812	5505
1102.45939966014	5446.39990234375
1103.14294261273	5462
1103.82639874362	5409
1104.50976806054	5429.39990234375
1105.19305057119	5544.7998046875
1105.87624628331	5662.39990234375
1106.55935520461	5703.60009765625
1107.24237734283	5778.2001953125
1107.92531270566	5777.39990234375
1108.60816130085	5775.7998046875
1109.2909231361	5811
1109.97359821914	5848.60009765625
1110.65618655768	5896.7998046875
1111.33868815946	5993.7998046875
1112.02110303217	5940.39990234375
1112.70343118355	5990
1113.3856726213	5971
1114.06782735316	5949
1114.74989538683	5868
1115.43187673002	5799.39990234375
1116.11377139047	5735.7998046875
1116.79557937588	5744.60009765625
1117.47730069397	5818.39990234375
1118.15893535245	5902.7998046875
1118.84048335904	5923.39990234375
1119.52194472146	5966.60009765625
1120.20331944741	5984.2001953125
1120.88460754462	5923.39990234375
1121.56580902079	5955.60009765625
1122.24692388364	5934.7998046875
1122.92795214088	5977.60009765625
1123.60889380022	6003.39990234375
1124.28974886938	6051.2001953125
1124.97051735606	6160.2001953125
1125.65119926799	6174.60009765625
1126.33179461286	6212.60009765625
1127.0123033984	6242.7998046875
1127.6927256323	6222
1128.37306132229	6221.60009765625
1129.05331047606	6178
1129.73347310134	6119.7998046875
1130.41354920582	6075.7998046875
1131.09353879722	6023.39990234375
1131.77344188324	6005.60009765625
1132.45325847159	5980.2001953125
1133.13298856999	6048.60009765625
1133.81263218612	6028.2001953125
1134.49218932772	6005.2001953125
1135.17166000247	5936
1135.85104421809	5924.60009765625
1136.53034198227	5840
1137.20955330274	5748.60009765625
1137.88867818718	5686.39990234375
1138.56771664331	5725.39990234375
1139.24666867883	5761.39990234375
1139.92553430144	5751.60009765625
1140.60431351885	5786.60009765625
1141.28300633876	5842.60009765625
1141.96161276887	5881.2001953125
1142.64013281689	5928
1143.31856649051	5916
1143.99691379744	5888
1144.67517474538	5831.39990234375
1145.35334934203	5835.60009765625
1146.03143759509	5790
1146.70943951226	5711.2001953125
1147.38735510125	5625.60009765625
1148.06518436974	5632.60009765625
1148.74292732545	5587.60009765625
1149.42058397606	5617.39990234375
1150.09815432928	5649.39990234375
1150.7756383928	5696.60009765625
1151.45303617432	5727.60009765625
1152.13034768155	5785.7998046875
1152.80757292217	5887.7998046875
1153.48471190389	5907.7998046875
1154.16176463439	5932
1154.83873112138	5838
1155.51561137255	5778.39990234375
1156.1924053956	5786.2001953125
1156.86911319822	5762
1157.5457347881	5704.7998046875
1158.22227017294	5720.60009765625
1158.89871936044	5692
1159.57508235828	5720.2001953125
1160.25135917416	5708
1160.92754981578	5670.60009765625
1161.60365429081	5716
1162.27967260697	5742.2001953125
1162.95560477193	5751.2001953125
1163.63145079339	5764
1164.30721067904	5790
1164.98288443657	5770.2001953125
1165.65847207367	5803.2001953125
1166.33397359803	5878.2001953125
1167.00938901735	5872.60009765625
1167.6847183393	5882
1168.35996157157	5872.7998046875
1169.03511872187	5892.7998046875
1169.71018979787	5922.7998046875
1170.38517480726	5943.60009765625
1171.06007375773	5934.7998046875
1171.73488665696	5914.7998046875
1172.40961351265	5909.39990234375
1173.08425433247	5931.2001953125
1173.75880912412	5954.7998046875
1174.43327789528	5992.60009765625
1175.10766065364	6027.39990234375
1175.78195740687	6081
1176.45616816267	6172.39990234375
1177.13029292871	6195
1177.80433171269	6228
1178.47828452229	6243.7998046875
1179.15215136518	6313.7998046875
1179.82593224905	6316
1180.49962718159	6421.7998046875
1181.17323617047	6418.39990234375
1181.84675922337	6422.60009765625
1182.52019634799	6416.2001953125
1183.193547552	6459.60009765625
1183.86681284307	6447
1184.53999222889	6458.7998046875
1185.21308571714	6452.7998046875
1185.8860933155	6445.2001953125
1186.55901503165	6405.2001953125
1187.23185087326	6364.60009765625
1187.90460084802	6343.2001953125
1188.5772649636	6400
1189.24984322768	6401.39990234375
1189.92233564794	6426.60009765625
1190.59474223206	6475.60009765625
1191.2670629877	6500.7998046875
1191.93929792255	6485
1192.61144704428	6504.60009765625
1193.28351036058	6512.39990234375
1193.9554878791	6432
1194.62737960754	6366.39990234375
1195.29918555356	6337.60009765625
1195.97090572483	6366.39990234375
1196.64254012903	6388.7998046875
1197.31408877384	6393.60009765625
1197.98555166693	6371.39990234375
1198.65692881596	6322
1199.32822022862	6249.39990234375
1199.99942591256	6222.60009765625
1200.67054587548	6193.60009765625
1201.34158012503	6154.2001953125
1202.01252866889	6167.2001953125
1202.68339151473	6055.60009765625
1203.35416867021	6022
1204.02486014301	5976.39990234375
1204.6954659408	5973
1205.36598607124	6007.39990234375
1206.03642054201	6000
1206.70676936078	6010.2001953125
1207.3770325352	5946.39990234375
1208.04721007295	5945.39990234375
1208.7173019817	5919.7998046875
1209.38730826911	5905
1210.05722894285	5853
1210.72706401059	5817.2001953125
1211.39681347999	5772
1212.06647735872	5707.60009765625
1212.73605565444	5715.39990234375
1213.40554837481	5747.2001953125
1214.07495552751	5740.2001953125
1214.74427712019	5777.39990234375
1215.41351316052	5790.2001953125
1216.08266365617	5823.60009765625
1216.75172861479	5761.60009765625
1217.42070804405	5734.2001953125
1218.0896019516	5741.60009765625
1218.75841034513	5815.2001953125
1219.42713323227	5848
1220.0957706207	5879.7998046875
1220.76432251808	5909.7998046875
1221.43278893207	5902.2001953125
1222.10116987032	5915.2001953125
1222.7694653405	5936.39990234375
1223.43767535026	5923.60009765625
1224.10579990727	5887.7998046875
1224.77383901918	5884.7998046875
1225.44179269366	5843
1226.10966093835	5817.39990234375
1226.77744376093	5790.60009765625
1227.44514116904	5763.2001953125
1228.11275317034	5795.39990234375
1228.78027977249	5769.2001953125
1229.44772098315	5729.7998046875
1230.11507680996	5700.2001953125
1230.7823472606	5662.2001953125
1231.44953234271	5706.39990234375
1232.11663206394	5676.60009765625
1232.78364643195	5681
1233.4505754544	5639.39990234375
1234.11741913894	5654
1234.78417749322	5638.60009765625
1235.45085052489	5656.60009765625
1236.11743824162	5601
1236.78394065104	5578.2001953125
1237.45035776082	5556.7998046875
1238.1166895786	5623.39990234375
1238.78293611204	5610.7998046875
1239.44909736878	5601.39990234375
1240.11517335648	5609.39990234375
1240.78116408279	5620.60009765625
1241.44706955535	5622
1242.11288978182	5591.39990234375
1242.77862476985	5570.60009765625
1243.44427452708	5478.7998046875
1244.10983906116	5434.60009765625
1244.77531837974	5472.2001953125
1245.44071249047	5497.7998046875
1246.106021401	5498
1246.77124511898	5482.2001953125
1247.43638365204	5568
1248.10143700783	5594.39990234375
1248.76640519401	5602.7998046875
1249.43128821822	5558
1250.0960860881	5544
1250.76079881129	5568.39990234375
1251.42542639545	5509.60009765625
1252.08996884822	5457.39990234375
1252.75442617723	5462.2001953125
1253.41879839014	5513.39990234375
1254.08308549458	5533.7998046875
1254.74728749821	5568.39990234375
1255.41140440866	5632.39990234375
1256.07543623357	5617.2001953125
1256.73938298059	5518.39990234375
1257.40324465735	5486.7998046875
1258.0670212715	5461.2001953125
1258.73071283068	5445.39990234375
1259.39431934253	5516
1260.05784081468	5480.2001953125
1260.72127725479	5485.39990234375
1261.38462867049	5503
1262.0478950694	5501.60009765625
1262.71107645919	5524.39990234375
1263.37417284748	5550.7998046875
1264.03718424191	5601.60009765625
1264.70011065011	5594.7998046875
1265.36295207974	5609
1266.02570853841	5632.39990234375
1266.68838003378	5612
1267.35096657346	5601.60009765625
1268.01346816511	5560.7998046875
1268.67588481636	5505
1269.33821653483	5452.39990234375
1270.00046332817	5529.39990234375
1270.66262520401	5578.7998046875
1271.32470216998	5651
1271.98669423372	5592.7998046875
1272.64860140285	5561.39990234375
1273.31042368503	5534.7998046875
1273.97216108786	5560.39990234375
1274.633813619	5599.39990234375
1275.29538128606	5638.60009765625
1275.95686409669	5673.7998046875
1276.6182620585	5652
1277.27957517914	5645.2001953125
1277.94080346624	5627
1278.60194692741	5682.60009765625
1279.2630055703	5714.7998046875
1279.92397940253	5766.7998046875
1280.58486843173	5736.2001953125
1281.24567266552	5716.39990234375
1281.90639211155	5637.2001953125
1282.56702677743	5630.60009765625
1283.2275766708	5623.39990234375
1283.88804179927	5632
1284.54842217049	5568.2001953125
1285.20871779206	5555.60009765625
1285.86892867163	5603.7998046875
1286.52905481681	5670.7998046875
1287.18909623523	5733.39990234375
1287.84905293452	5766.7998046875
1288.5089249223	5771.39990234375
1289.16871220619	5783
1289.82841479383	5799
1290.48803269282	5781.2001953125
1291.1475659108	5735.39990234375
1291.80701445539	5627
1292.46637833421	5561.60009765625
1293.12565755489	5567.39990234375
1293.78485212504	5539.7998046875
1294.44396205229	5544
1295.10298734425	5560.39990234375
1295.76192800856	5610.2001953125
1296.42078405283	5580.39990234375
1297.07955548467	5606.39990234375
1297.73824231171	5676.2001953125
1298.39684454158	5700
1299.05536218188	5702
1299.71379524023	5767.39990234375
1300.37214372427	5782.39990234375
1301.03040764159	5747.39990234375
1301.68858699983	5725.7998046875
1302.34668180659	5721.7998046875
1303.0046920695	5817
1303.66261779617	5891
1304.32045899422	5946
1304.97821567126	6031.39990234375
1305.63588783492	6085.7998046875
1306.29347549279	6065.7998046875
1306.95097865251	6062
1307.60839732168	6065
1308.26573150791	6113.7998046875
1308.92298121883	6101
1309.58014646204	6104.7998046875
1310.23722724517	6134.7998046875
1310.89422357581	6135.60009765625
1311.55113546158	6114.2001953125
1312.2079629101	6058
1312.86470592898	6070.2001953125
1313.52136452582	6115.39990234375
1314.17793870824	6076.7998046875
1314.83442848386	6018.2001953125
1315.49083386027	6029.60009765625
1316.14715484509	6073
1316.80339144594	6099.60009765625
1317.45954367041	6087.60009765625
1318.11561152611	6085.60009765625
1318.77159502067	6019.39990234375
1319.42749416168	5996.7998046875
1320.08330895674	5976.60009765625
1320.73903941348	5982.39990234375
1321.3946855395	5922.39990234375
1322.0502473424	5889.2001953125
1322.70572482978	5858.39990234375
1323.36111800926	5834
1324.01642688845	5819
1324.67165147494	5799.7998046875
1325.32679177634	5784.7998046875
1325.98184780025	5786.7998046875
1326.63681955429	5751
1327.29170704605	5697.39990234375
1327.94651028314	5639.2001953125
1328.60122927316	5622.7998046875
1329.25586402371	5631.2001953125
1329.9104145424	5612.2001953125
1330.56488083683	5573.39990234375
1331.2192629146	5551.7998046875
1331.87356078331	5565.2001953125
1332.52777445056	5647
1333.18190392395	5638.39990234375
1333.83594921109	5581.7998046875
1334.48991031958	5524
1335.143787257	5538.7998046875
1335.79758003097	5535.39990234375
1336.45128864908	5587
1337.10491311893	5621
1337.75845344813	5590.2001953125
1338.41190964425	5569.2001953125
1339.06528171491	5610.7998046875
1339.71856966771	5619.39990234375
1340.37177351023	5560
1341.02489325007	5548
1341.67792889484	5449.39990234375
1342.33088045212	5415.60009765625
1342.98374792952	5464
1343.63653133462	5492.60009765625
1344.28923067503	5530.39990234375
1344.94184595833	5574
1345.59437719212	5667.7998046875
1346.246824384	5747
1346.89918754155	5827.7998046875
1347.55146667238	5906.39990234375
1348.20366178407	5951
1348.85577288421	5971.60009765625
1349.50779998041	5954
1350.15974308024	5935.39990234375
1350.8116021913	5974
1351.46337732119	6074
1352.11506847748	6106.39990234375
1352.76667566778	6153
1353.41819889967	6193.60009765625
1354.06963818074	6267.39990234375
1354.72099351858	6337.39990234375
1355.37226492079	6353.60009765625
1356.02345239494	6410.7998046875
1356.67455594862	6540.60009765625
1357.32557558943	6748.60009765625
1357.97651132496	6909.39990234375
1358.62736316277	6997.7998046875
1359.27813111048	7052.60009765625
1359.92881517565	7148.7998046875
1360.57941536589	7124.2001953125
1361.22993168876	7181.7998046875
1361.88036415186	7270
1362.53071276278	7266
1363.1809775291	7330.60009765625
1363.8311584584	7323.39990234375
1364.48125555826	7190
1365.13126883627	6958
1365.78119830001	6712
1366.43104395707	6554.39990234375
1367.08080581503	6459.2001953125
1367.73048388147	6356.7998046875
1368.38007816397	6297.7998046875
1369.02958867011	6181.7998046875
1369.67901540748	6107
1370.32835838365	6093.7998046875
1370.9776176062	6062.7998046875
1371.62679308273	6031
1372.27588482079	5999
1372.92489282798	5984.2001953125
1373.57381711188	5917.2001953125
1374.22265768006	5839.39990234375
1374.87141454009	5777.60009765625
1375.52008769957	5732.39990234375
1376.16867716606	5716.2001953125
1376.81718294715	5700.60009765625
1377.4656050504	5727.39990234375
1378.1139434834	5741.7998046875
1378.76219825373	5787.7998046875
1379.41036936895	5753
1380.05845683664	5678.7998046875
1380.70646066439	5638.7998046875
1381.35438085976	5560.7998046875
1382.00221743032	5545.60009765625
1382.64997038366	5559.7998046875
1383.29763972735	5558.2001953125
1383.94522546895	5596
1384.59272761605	5572
1385.24014617621	5541.2001953125
1385.88748115701	5495.2001953125
1386.53473256602	5494.7998046875
1387.18190041081	5438.60009765625
1387.82898469895	5451.60009765625
1388.47598543802	5385.2001953125
1389.12290263558	5352
1389.7697362992	5328.2001953125
1390.41648643646	5241
1391.06315305492	5223.2001953125
1391.70973616215	5184
1392.35623576573	5184.7998046875
1393.00265187321	5196.7998046875
1393.64898449217	5189.7998046875
1394.29523363018	5258.2001953125
1394.94139929481	5228.7998046875
1395.58748149361	5166.60009765625
1396.23348023415	5152.60009765625
1396.87939552402	5054.60009765625
1397.52522737076	5002.60009765625
1398.17097578195	4947.2001953125
1398.81664076514	4922.60009765625
1399.46222232792	4907
1400.10772047783	4904.60009765625
1400.75313522245	4971.7998046875
1401.39846656934	5030
1402.04371452605	5082.60009765625
1402.68887910016	5074.60009765625
1403.33396029924	5041
1403.97895813083	5046.39990234375
1404.6238726025	5046.39990234375
1405.26870372182	5048
1405.91345149634	5065.60009765625
1406.55811593363	5051.7998046875
1407.20269704125	5021
1407.84719482676	5024.60009765625
1408.49160929772	4989.60009765625
1409.13594046168	5034.7998046875
1409.78018832622	5037.7998046875
1410.42435289887	5049.7998046875
1411.06843418722	5054.2001953125
1411.7124321988	5061
1412.3563469412	5147.39990234375
1413.00017842194	5202.39990234375
1413.64392664861	5277.7998046875
1414.28759162875	5309.39990234375
1414.93117336992	5289.60009765625
1415.57467187967	5258
1416.21808716557	5272.2001953125
1416.86141923516	5294.2001953125
1417.50466809601	5301.2001953125
1418.14783375567	5320.60009765625
1418.79091622169	5303.60009765625
1419.43391550162	5257.7998046875
1420.07683160303	5268.7998046875
1420.71966453346	5302.2001953125
1421.36241430046	5302.2001953125
1422.0050809116	5313.60009765625
1422.64766437442	5332.7998046875
1423.29016469647	5388.60009765625
1423.93258188531	5403.39990234375
1424.57491594848	5363.7998046875
1425.21716689354	5341.39990234375
1425.85933472805	5298.7998046875
1426.50141945954	5277.7998046875
1427.14342109557	5244.60009765625
1427.78533964369	5280
1428.42717511144	5236.7998046875
1429.06892750639	5210.39990234375
1429.71059683607	5149.2001953125
1430.35218310803	5149.60009765625
1430.99368632983	5155.39990234375
1431.635106509	5187.7998046875
1432.2764436531	5153
1432.91769776967	5191
1433.55886886627	5177.2001953125
1434.19995695043	5193
1434.84096202969	5174
1435.48188411162	5121.60009765625
1436.12272320375	5064.60009765625
1436.76347931363	5068.7998046875
1437.40415244879	5062.7998046875
1438.0447426168	5098.7998046875
1438.68524982518	5023.39990234375
1439.32567408148	5023.2001953125
1439.96601539325	5023.7998046875
1440.60627376803	4998
1441.24644921336	5026.2001953125
1441.88654173678	4975
1442.52655134583	4998.2001953125
1443.16647804806	4945.7998046875
1443.806321851	4976
1444.4460827622	5000.60009765625
1445.0857607892	5011
1445.72535593953	5009.2001953125
1446.36486822074	4955.2001953125
1447.00429764037	4955.2001953125
1447.64364420595	4983.2001953125
1448.28290792502	4974
1448.92208880512	4980
1449.56118685379	4961.60009765625
1450.20020207857	4968.39990234375
1450.83913448699	4985.7998046875
1451.47798408659	5012.60009765625
1452.1167508849	5007
1452.75543488947	5001
1453.39403610782	4962
1454.0325545475	4925.39990234375
1454.67099021603	4921.60009765625
1455.30934312097	4965
1455.94761326982	4991.60009765625
1456.58580067014	4971
1457.22390532945	4947.60009765625
1457.86192725529	4942
1458.49986645519	4965.39990234375
1459.13772293668	4946.7998046875
1459.7754967073	4910
1460.41318777457	4879.2001953125
1461.05079614604	4876.7998046875
1461.68832182922	4880
1462.32576483166	4841.60009765625
1462.96312516087	4882.2001953125
1463.6004028244	4929.39990234375
1464.23759782977	4982.2001953125
1464.8747101845	5041.39990234375
1465.51173989614	5083.60009765625
1466.14868697221	5047
1466.78555142024	5062.60009765625
1467.42233324774	5000.2001953125
1468.05903246227	5008.7998046875
1468.69564907133	4967
1469.33218308246	4977.39990234375
1469.96863450317	4975.2001953125
1470.60500334102	4977.7998046875
1471.2412896035	5055.60009765625
1471.87749329816	5075
1472.51361443251	5064.60009765625
1473.14965301409	5006.2001953125
1473.78560905041	5004
1474.421482549	5012.2001953125
1475.05727351739	5074.60009765625
1475.69298196309	5095.60009765625
1476.32860789364	5100.7998046875
1476.96415131654	5124.39990234375
1477.59961223934	5037
1478.23499066954	5001
1478.87028661467	4964.7998046875
1479.50550008226	4954.2001953125
1480.14063107981	4933.2001953125
1480.77567961486	4924
1481.41064569492	4860.60009765625
1482.04552932752	4883.2001953125
1482.68033052017	4880
1483.31504928039	4914.39990234375
1483.9496856157	4971.7998046875
1484.58423953363	4950.2001953125
1485.21871104168	4972.7998046875
1485.85310014738	4968.7998046875
1486.48740685824	4921
1487.12163118178	4935.39990234375
1487.75577312553	4972.2001953125
1488.38983269698	4970.60009765625
1489.02380990367	4977.60009765625
1489.65770475311	4992.7998046875
1490.29151725281	5056.39990234375
1490.92524741029	5151.2001953125
1491.55889523306	5111.60009765625
1492.19246072863	5174.60009765625
1492.82594390453	5218.2001953125
1493.45934476826	5263.7998046875
1494.09266332734	5319.39990234375
1494.72589958928	5302.7998046875
1495.3590535616	5365.2001953125
1495.99212525181	5382
1496.62511466741	5419.60009765625
1497.25802181592	5441.2001953125
1497.89084670485	5456.2001953125
1498.52358934172	5538.2001953125
1499.15624973403	5601.7998046875
1499.7888278893	5691.60009765625
1500.42132381503	5750.60009765625
1501.05373751873	5853.60009765625
1501.68606900792	5961.60009765625
1502.31831829009	6048.60009765625
1502.95048537277	6078.39990234375
1503.58257026346	6130.2001953125
1504.21457296966	6171.39990234375
1504.84649349889	6240
1505.47833185864	6308.60009765625
1506.11008805644	6323.2001953125
1506.74176209978	6308.39990234375
1507.37335399617	6295
1508.00486375312	6304
1508.63629137813	6216.2001953125
1509.2676368787	6173.2001953125
1509.89890026235	6195.60009765625
1510.53008153658	6182.7998046875
1511.16118070889	6214.39990234375
1511.79219778677	6185.7998046875
1512.42313277775	6137.2001953125
1513.05398568932	6078.2001953125
1513.68475652898	6046.2001953125
1514.31544530424	5980
1514.9460520226	5853.60009765625
1515.57657669155	5711.60009765625
1516.20701931861	5556.7998046875
1516.83737991127	5465
1517.46765847702	5399.7998046875
1518.09785502339	5416.60009765625
1518.72796955785	5442.7998046875
1519.35800208792	5449
1519.98795262109	5414.7998046875
1520.61782116486	5376
1521.24760772673	5351.39990234375
1521.87731231419	5360.7998046875
1522.50693493475	5332.60009765625
1523.1364755959	5286.39990234375
1523.76593430514	5273
1524.39531106997	5254.2001953125
1525.02460589788	5243
1525.65381879637	5245
1526.28294977293	5183.7998046875
1526.91199883507	5164.39990234375
1527.54096599027	5110.7998046875
1528.16985124603	5097.2001953125
1528.79865460984	5084.2001953125
1529.4273760892	5059.39990234375
1530.05601569161	5060
1530.68457342455	5122.60009765625
1531.31304929552	5137.39990234375
1531.94144331201	5180
1532.56975548151	5240.39990234375
1533.19798581152	5263.7998046875
1533.82613430953	5269.60009765625
1534.45420098302	5332
1535.08218583949	5278
1535.71008888643	5216.60009765625
1536.33791013134	5213.39990234375
1536.96564958169	5213
1537.59330724498	5197
1538.22088312871	5218.7998046875
1538.84837724034	5179.60009765625
1539.47578958739	5152.60009765625
1540.10312017733	5129.39990234375
1540.73036901765	5057.39990234375
1541.35753611584	5050.39990234375
1541.98462147939	5019.60009765625
1542.61162511578	4999.60009765625
1543.2385470325	5081
1543.86538723704	5082.39990234375
1544.49214573688	5065.39990234375
1545.11882253951	5074.60009765625
1545.74541765241	5134.7998046875
1546.37193108306	5126.2001953125
1546.99836283896	5097.39990234375
1547.62471292758	5049
1548.25098135641	4998
1548.87716813294	4984
1549.50327326464	4950.39990234375
1550.12929675899	4956.39990234375
1550.75523862349	4930.7998046875
1551.38109886561	4953.39990234375
1552.00687749284	4928.39990234375
1552.63257451264	4880.39990234375
1553.25818993252	4886.2001953125
1553.88372375994	4846
1554.50917600239	4779.39990234375
1555.13454666734	4740.60009765625
1555.75983576228	4743
1556.38504329469	4764.39990234375
1557.01016927204	4778.60009765625
1557.63521370181	4792.7998046875
1558.26017659149	4805.7998046875
1558.88505794854	4861.7998046875
1559.50985778045	4944.7998046875
1560.13457609469	4896.2001953125
1560.75921289874	4886.60009765625
1561.38376820008	4897.60009765625
1562.00824200618	4906.60009765625
1562.63263432452	4870
1563.25694516257	4873.2001953125
1563.88117452781	4894.39990234375
1564.50532242772	4889.39990234375
1565.12938886976	4893
1565.75337386141	4925.7998046875
1566.37727741015	5018.39990234375
1567.00109952345	5067.7998046875
1567.62484020878	5156.60009765625
1568.24849947361	5182.39990234375
1568.87207732542	5228
1569.49557377168	5308.7998046875
1570.11898881986	5310.39990234375
1570.74232247743	5320.7998046875
1571.36557475186	5339.60009765625
1571.98874565062	5415.39990234375
1572.61183518119	5438
1573.23484335103	5486
1573.85777016761	5521
1574.4806156384	5541.39990234375
1575.10337977088	5511.7998046875
1575.7260625725	5452.7998046875
1576.34866405074	5434.7998046875
1576.97118421306	5381.60009765625
1577.59362306694	5390.39990234375
1578.21598061984	5397
1578.83825687922	5358.7998046875
1579.46045185255	5283.2001953125
1580.08256554731	5238.39990234375
1580.70459797094	5204
1581.32654913093	5127.60009765625
1581.94841903473	5047.2001953125
1582.57020768981	5013.60009765625
1583.19191510364	4968.39990234375
1583.81354128367	4888.2001953125
1584.43508623737	4861.39990234375
1585.05654997221	4831.60009765625
1585.67793249564	4788.7998046875
1586.29923381514	4783.39990234375
1586.92045393815	4731
1587.54159287216	4689.2001953125
1588.1626506246	4730.2001953125
1588.78362720296	4692.2001953125
1589.40452261468	4698.60009765625
1590.02533686724	4654.60009765625
1590.64606996808	4635.2001953125
1591.26672192467	4588.7998046875
1591.88729274447	4575.2001953125
1592.50778243493	4529.39990234375
1593.12819100352	4521.7998046875
1593.7485184577	4556.39990234375
1594.36876480492	4545.7998046875
1594.98893005264	4524
1595.60901420832	4535.39990234375
1596.22901727941	4565.2001953125
1596.84893927338	4579.7998046875
1597.46878019767	4582.60009765625
1598.08854005975	4612.7998046875
1598.70821886707	4618
1599.32781662708	4631.2001953125
1599.94733334725	4643.60009765625
1600.56676903502	4620.7998046875
1601.18612369785	4581.39990234375
1601.8053973432	4521.39990234375
1602.42458997851	4453.39990234375
1603.04370161124	4428.7998046875
1603.66273224884	4396.7998046875
1604.28168189878	4369.2001953125
1604.90055056849	4293.2001953125
1605.51933826543	4297.2001953125
1606.13804499705	4295.60009765625
1606.75667077081	4328.2001953125
1607.37521559415	4326
1607.99367947452	4355.60009765625
1608.61206241938	4342.2001953125
1609.23036443618	4339.7998046875
1609.84858553236	4287
1610.46672571537	4309.39990234375
1611.08478499267	4332.2001953125
1611.7027633717	4341.7998046875
1612.3206608599	4340.60009765625
1612.93847746473	4297.60009765625
1613.55621319364	4234.60009765625
1614.17386805407	4216.2001953125
1614.79144205347	4192.60009765625
1615.40893519928	4178
1616.02634749895	4215.39990234375
1616.64367895993	4155.7998046875
1617.26092958966	4141.2001953125
1617.87809939559	4177.60009765625
1618.49518838516	4169
1619.11219656582	4193.39990234375
1619.729123945	4201
1620.34597053016	4211.2001953125
1620.96273632874	4191.60009765625
1621.57942134818	4187.60009765625
1622.19602559592	4158.7998046875
1622.8125490794	4196.39990234375
1623.42899180607	4172.2001953125
1624.04535378337	4197
1624.66163501874	4178.39990234375
1625.27783551963	4190.39990234375
1625.89395529346	4155.7998046875
1626.50999434768	4149.7998046875
1627.12595268974	4106.39990234375
1627.74183032707	4074.39990234375
1628.3576272671	4039.19995117188
1628.97334351729	4000
1629.58897908506	4012.60009765625
1630.20453397786	4000.80004882813
1630.82000820313	4012.39990234375
1631.43540176829	4040.60009765625
1632.05071468079	4019.39990234375
1632.66594694807	4043.39990234375
1633.28109857756	4027.60009765625
1633.8961695767	4005.19995117188
1634.51115995292	3996.39990234375
1635.12606971366	4037.39990234375
1635.74089886636	4039.80004882813
1636.35564741844	4106.60009765625
1636.97031537734	4129.2001953125
1637.58490275051	4175
1638.19940954536	4218.7998046875
1638.81383576934	4278.39990234375
1639.42818142987	4291
1640.0424465344	4327.60009765625
1640.65663109034	4368.7998046875
1641.27073510515	4421.7998046875
1641.88475858623	4420.60009765625
1642.49870154104	4465.2001953125
1643.11256397699	4485.60009765625
1643.72634590152	4541.39990234375
1644.34004732206	4630.60009765625
1644.95366824604	4719
1645.56720868089	4818.60009765625
1646.18066863404	4822.2001953125
1646.79404811291	4910.7998046875
1647.40734712494	4914.7998046875
1648.02056567755	4978.39990234375
1648.63370377817	4982
1649.24676143423	5000
1649.85973865316	4985.7998046875
1650.47263544238	4979.7998046875
1651.08545180932	5009.39990234375
1651.6981877614	4987.2001953125
1652.31084330606	4914.7998046875
1652.92341845071	4791.39990234375
1653.53591320278	4722
1654.1483275697	4680.2001953125
1654.7606615589	4635
1655.37291517778	4545.60009765625
1655.98508843379	4483
1656.59718133434	4422.60009765625
1657.20919388685	4388
1657.82112609875	4366.2001953125
1658.43297797747	4260.39990234375
1659.04474953041	4218.60009765625
1659.65644076501	4177.2001953125
1660.26805168869	4115.2001953125
1660.87958230886	4042.60009765625
1661.49103263294	4009.19995117188
1662.10240266837	3984.39990234375
1662.71369242255	3927
1663.32490190291	3923.19995117188
1663.93603111687	3868.39990234375
1664.54708007184	3834.80004882813
1665.15804877524	3805.19995117188
1665.7689372345	3775.60009765625
1666.37974545703	3807.80004882813
1666.99047345024	3780
1667.60112122156	3779.39990234375
1668.2116887784	3719
1668.82217612818	3666.60009765625
1669.43258327831	3628.80004882813
1670.04291023622	3576.60009765625
1670.65315700931	3551.39990234375
1671.263323605	3544.60009765625
1671.8734100307	3528
1672.48341629384	3484.19995117188
1673.09334240182	3501
1673.70318836206	3470.19995117188
1674.31295418197	3438.60009765625
1674.92263986896	3450.80004882813
1675.53224543046	3447.39990234375
1676.14177087386	3424.60009765625
1676.75121620658	3487.80004882813
1677.36058143604	3481.39990234375
1677.96986656964	3482.60009765625
1678.5790716148	3550.39990234375
1679.18819657892	3572.60009765625
1679.79724146943	3567.39990234375
1680.40620629372	3596.60009765625
1681.0150910592	3605.19995117188
1681.6238957733	3600.19995117188
1682.23262044341	3585.60009765625
1682.84126507694	3563.80004882813
1683.4498296813	3582.60009765625
1684.0583142639	3578.80004882813
1684.66671883216	3587.19995117188
1685.27504339346	3602.39990234375
1685.88328795523	3542.39990234375
1686.49145252487	3516.80004882813
1687.09953710978	3485.80004882813
1687.70754171737	3504.80004882813
1688.31546635505	3506.80004882813
1688.92331103021	3510
1689.53107575028	3551.60009765625
1690.13876052265	3551.80004882813
1690.74636535472	3527
1691.3538902539	3506.19995117188
1691.96133522759	3450
1692.5687002832	3421.19995117188
1693.17598542812	3367.60009765625
1693.78319066977	3328
1694.39031601554	3288
1694.99736147283	3334.60009765625
1695.60432704905	3362.60009765625
1696.2112127516	3431
1696.81801858788	3440.19995117188
1697.42474456528	3453.60009765625
1698.03139069121	3432.60009765625
1698.63795697307	3424
1699.24444341826	3435
1699.85085003417	3429
1700.45717682821	3421.60009765625
1701.06342380778	3433
1701.66959098026	3391.19995117188
1702.27567835307	3386.60009765625
1702.88168593359	3365.39990234375
1703.48761372922	3339.19995117188
1704.09346174737	3329.60009765625
1704.69922999542	3301.19995117188
1705.30491848077	3323.60009765625
1705.91052721083	3338
1706.51605619297	3370.19995117188
1707.12150543461	3347.80004882813
1707.72687494312	3346.39990234375
1708.33216472592	3324
1708.93737479039	3294.80004882813
1709.54250514392	3291.39990234375
