634.977642221345	2912.39990234375
635.719821695905	2893.60009765625
636.461909203392	2880.19995117188
637.203904751776	2894.60009765625
637.945808349023	2913.39990234375
638.687620003102	2936.39990234375
639.42933972198	2974
640.170967513616	2983
640.912503385981	2946.80004882813
641.653947347041	2964.60009765625
642.395299404758	2934.19995117188
643.13655956709	2915
643.877727842014	2878.80004882813
644.61880423748	2851.60009765625
645.359788761455	2850.80004882813
646.100681421905	2912.19995117188
646.841482226789	2938.60009765625
647.582191184074	2957.19995117188
648.322808301711	2931.39990234375
649.06333358767	2930.19995117188
649.803767049909	2898
650.544108696385	2937.39990234375
651.28435853506	2985.80004882813
652.024516573894	3007.19995117188
652.764582820849	3001
653.504557283875	3027.39990234375
654.244439970937	3048
654.984230889991	3008.19995117188
655.723930048995	3068.80004882813
656.463537455909	3079.80004882813
657.203053118683	3058
657.942477045275	3063
658.681809243647	3062.39990234375
659.421049721747	3017.60009765625
660.160198487535	3012.80004882813
660.899255548962	3026.19995117188
661.638220913985	3054.39990234375
662.377094590559	3067
663.115876586631	3073
663.854566910165	3080.60009765625
664.593165569107	3081.39990234375
665.331672571406	3061.19995117188
666.07008792502	3064.39990234375
666.808411637902	3054
667.546643717996	3020.60009765625
668.284784173258	3037
669.022833011641	2991.80004882813
669.760790241089	3019
670.498655869554	2996.60009765625
671.236429904987	3011.60009765625
671.97411235534	2993.80004882813
672.711703228551	3044.80004882813
673.449202532577	3098.39990234375
674.186610275364	3101
674.923926464857	3146.60009765625
675.661151109008	3144.39990234375
676.398284215759	3154.39990234375
677.135325793058	3153.60009765625
677.87227584885	3189.60009765625
678.609134391082	3209.19995117188
679.345901427696	3207.39990234375
680.082576966644	3224
680.819161015861	3222.39990234375
681.555653583298	3178.80004882813
682.292054676895	3164.19995117188
683.028364304594	3144.60009765625
683.764582474344	3112.39990234375
684.500709194083	3117.19995117188
685.236744471752	3089
685.972688315294	3070.60009765625
686.708540732652	3094.80004882813
687.444301731762	3101.19995117188
688.179971320572	3108
688.915549507013	3104.19995117188
689.651036299034	3054.80004882813
690.386431704569	3047.39990234375
691.121735731559	3017.60009765625
691.85694838794	3018.39990234375
692.592069681652	2983
693.327099620632	3027.19995117188
694.062038212821	3034.19995117188
694.796885466149	3060.80004882813
695.531641388561	3115.19995117188
696.266305987987	3167.80004882813
697.000879272367	3192.39990234375
697.735361249632	3169.60009765625
698.469751927722	3187.39990234375
699.204051314568	3172.60009765625
699.938259418107	3156.39990234375
700.672376246272	3140.19995117188
701.406401806997	3155.39990234375
702.140336108212	3131.80004882813
702.874179157855	3131.60009765625
703.607930963856	3168.39990234375
704.341591534147	3133.39990234375
705.07516087666	3133.39990234375
705.808638999324	3139.39990234375
706.542025910073	3164.80004882813
707.275321616841	3177.39990234375
708.008526127549	3170.60009765625
708.741639450132	3158.80004882813
709.474661592521	3130.19995117188
710.207592562641	3185
710.940432368424	3193.60009765625
711.673181017796	3190.19995117188
712.405838518687	3180
713.138404879025	3167.39990234375
713.870880106731	3149.60009765625
714.603264209738	3166.80004882813
715.335557195971	3213.60009765625
716.067759073357	3224
716.799869849816	3224
717.531889533281	3210
718.263818131673	3186.80004882813
718.995655652917	3225
719.727402104934	3200.60009765625
720.45905749565	3188.19995117188
721.19062183299	3153
721.922095124877	3158.80004882813
722.653477379231	3145.39990234375
723.384768603973	3121.19995117188
724.11596880703	3151.60009765625
724.847077996319	3151.19995117188
725.578096179762	3187.19995117188
726.309023365281	3206.39990234375
727.039859560792	3215.60009765625
727.770604774222	3198.80004882813
728.501259013484	3223.80004882813
729.231822286501	3206
729.962294601191	3231.39990234375
730.692675965469	3197.60009765625
731.42296638726	3137.19995117188
732.153165874472	3184
732.883274435032	3192.80004882813
733.613292076851	3234.39990234375
734.343218807843	3244
735.07305463593	3222.39990234375
735.802799569028	3225.60009765625
736.532453615048	3187.39990234375
737.262016781904	3156.80004882813
737.991489077517	3166.60009765625
738.720870509794	3171
739.450161086654	3159.60009765625
740.179360816009	3183.39990234375
740.908469705772	3198
741.637487763854	3252.39990234375
742.366414998168	3269.39990234375
743.095251416623	3276.60009765625
743.823997027137	3269.19995117188
744.552651837618	3254.19995117188
745.281215855978	3258.19995117188
746.009689090124	3241.60009765625
746.738071547964	3194.60009765625
747.466363237419	3188
748.194564166384	3185.19995117188
748.92267434278	3165.80004882813
749.650693774504	3182.80004882813
750.378622469476	3173.60009765625
751.106460435596	3212.80004882813
751.834207680771	3229.19995117188
752.561864212909	3268.80004882813
753.289430039919	3266.39990234375
754.016905169707	3241.60009765625
754.744289610175	3243.39990234375
755.471583369231	3242.80004882813
756.198786454782	3251.19995117188
756.925898874728	3230.60009765625
757.652920636979	3219
758.379851749433	3235.39990234375
759.106692219996	3228
759.833442056572	3260.19995117188
760.560101267063	3318.39990234375
761.28666985937	3318.19995117188
762.0131478414	3328
762.739535221046	3311.80004882813
763.465832006219	3319
764.192038204812	3349.39990234375
764.918153824731	3334.60009765625
765.644178873872	3342.80004882813
766.370113360138	3379.39990234375
767.095957291425	3422
767.821710675635	3447.39990234375
768.547373520665	3457.39990234375
769.272945834415	3487.39990234375
769.998427624781	3539.19995117188
770.723818899658	3559.19995117188
771.449119666949	3536.19995117188
772.174329934546	3570.80004882813
772.899449710347	3556.19995117188
773.624479002248	3569.39990234375
774.349417818145	3562.80004882813
775.074266165934	3575.39990234375
775.799024053505	3570.39990234375
776.523691488757	3556.19995117188
777.248268479582	3524
777.972755033877	3451.39990234375
778.69715115953	3438
779.421456864441	3403.80004882813
780.145672156493	3350.39990234375
780.869797043587	3344.60009765625
781.593831533611	3367.19995117188
782.317775634457	3362.60009765625
783.041629354012	3361.60009765625
783.765392700174	3321.39990234375
784.489065680828	3286.60009765625
785.212648303866	3273
785.936140577177	3260
786.659542508652	3253.60009765625
787.382854106174	3257.80004882813
788.106075377639	3284.39990234375
788.829206330928	3301.19995117188
789.552246973933	3328
790.275197314542	3379
790.998057360638	3348.80004882813
791.720827120108	3342.19995117188
792.443506600841	3356.19995117188
793.166095810722	3303.80004882813
793.888594757635	3264.60009765625
794.611003449465	3288.60009765625
795.333321894098	3306.19995117188
796.055550099417	3317.39990234375
796.777688073308	3381.19995117188
797.499735823654	3374
798.221693358334	3333.80004882813
798.943560685235	3327.80004882813
799.665337812239	3356.19995117188
800.387024747226	3339.19995117188
801.108621498075	3328
801.830128072674	3334.60009765625
802.551544478902	3365.60009765625
803.272870724636	3326.19995117188
803.994106817761	3353.80004882813
804.715252766148	3335.19995117188
805.436308577687	3325.80004882813
806.157274260251	3298.39990234375
806.878149821721	3306.60009765625
807.598935269973	3271.39990234375
808.319630612886	3267
809.040235858336	3269.19995117188
809.760751014202	3318.19995117188
810.481176088361	3325.80004882813
811.201511088685	3298.80004882813
811.921756023059	3293.39990234375
812.641910899347	3294.19995117188
813.361975725432	3276.19995117188
814.081950509188	3239.80004882813
814.801835258489	3260.60009765625
815.521629981206	3286.39990234375
816.241334685218	3262.60009765625
816.960949378392	3271.80004882813
817.680474068606	3302.19995117188
818.399908763731	3308.80004882813
819.11925347164	3281
819.838508200202	3263
820.55767295729	3256.60009765625
821.276747750778	3205.80004882813
821.995732588531	3224.39990234375
822.714627478425	3225
823.433432428327	3257.60009765625
824.152147446105	3303.19995117188
824.870772539632	3313.19995117188
825.589307716775	3332.60009765625
826.307752985404	3335.80004882813
827.026108353378	3354.60009765625
827.744373828579	3348.60009765625
828.462549418867	3342.80004882813
829.180635132107	3335.80004882813
829.898630976168	3358.80004882813
830.616536958915	3388.80004882813
831.334353088218	3379.60009765625
832.052079371938	3369
832.769715817942	3360
833.487262434092	3350.19995117188
834.204719228255	3360.39990234375
834.922086208293	3306.39990234375
835.639363382073	3277.60009765625
836.356550757456	3329.39990234375
837.073648342304	3314.19995117188
837.790656144484	3332.19995117188
838.507574171847	3332.60009765625
839.22440243227	3312
839.941140933601	3284.80004882813
840.657789683706	3281.39990234375
841.374348690448	3295.19995117188
842.090817961686	3285.60009765625
842.807197505276	3320
843.523487329083	3308.19995117188
844.23968744096	3310.39990234375
844.955797848771	3292.39990234375
845.671818560374	3301
846.387749583622	3288.39990234375
847.103590926378	3258.60009765625
847.819342596497	3249
848.535004601833	3245
849.25057695025	3224.80004882813
849.966059649598	3227.80004882813
850.681452707735	3223.80004882813
851.396756132513	3253.80004882813
852.111969931789	3248.19995117188
852.827094113419	3287.39990234375
853.542128685257	3346
854.257073655158	3369
854.971929030969	3369.19995117188
855.686694820551	3358.39990234375
856.40137103175	3345.19995117188
857.115957672423	3316.39990234375
857.830454750423	3328.39990234375
858.544862273597	3345.19995117188
859.259180249797	3322.19995117188
859.97340868688	3365
860.687547592688	3378.80004882813
861.401596975075	3369.80004882813
862.115556841891	3371.19995117188
862.829427200985	3395.80004882813
863.543208060205	3373.39990234375
864.256899427402	3340.60009765625
864.970501310423	3340.19995117188
865.684013717114	3324.19995117188
866.397436655325	3327.19995117188
867.110770132901	3312.19995117188
867.824014157691	3289.60009765625
868.537168737542	3301.80004882813
869.250233880299	3268
869.963209593803	3282.19995117188
870.676095885902	3281.60009765625
871.388892764445	3282.80004882813
872.101600237276	3288
872.814218312233	3298.39990234375
873.526746997165	3325.80004882813
874.239186299914	3302.39990234375
874.951536228323	3332.39990234375
875.663796790231	3310.80004882813
876.375967993487	3296.19995117188
877.088049845928	3299
877.8000423554	3287.19995117188
878.511945529739	3283.39990234375
879.22375937679	3251.19995117188
879.935483904388	3255.19995117188
880.64711912038	3266.39990234375
881.358665032604	3237.80004882813
882.070121648892	3235.39990234375
882.78148897709	3230
883.492767025039	3244.39990234375
884.203955800571	3286.39990234375
884.915055311525	3296.39990234375
885.626065565741	3276.60009765625
886.336986571053	3264.39990234375
887.047818335298	3275.80004882813
887.758560866315	3270.60009765625
888.469214171937	3267.60009765625
889.179778260005	3281
889.890253138347	3239.19995117188
890.600638814803	3229.39990234375
891.310935297204	3214.39990234375
892.021142593385	3199.39990234375
892.731260711183	3244.80004882813
893.441289658429	3268
894.15122944295	3253.60009765625
894.861080072591	3294
895.570841555173	3265.60009765625
896.280513898534	3303.60009765625
896.990097110503	3313.19995117188
897.699591198913	3302.19995117188
898.408996171595	3343.19995117188
899.118312036375	3335.39990234375
899.827538801089	3343.60009765625
900.536676473561	3344.80004882813
901.245725061628	3345.80004882813
901.954684573109	3336.19995117188
902.663555015838	3365
903.372336397644	3378.39990234375
904.081028726351	3359.60009765625
904.789632009793	3362
905.49814625579	3364.60009765625
906.20657147217	3390
906.914907666765	3361
907.623154847391	3340.39990234375
908.331313021885	3327
909.039382198064	3322
909.747362383754	3339.60009765625
910.455253586782	3341
911.163055814972	3341.80004882813
911.870769076143	3347.80004882813
912.578393378126	3324.39990234375
913.285928728738	3331
913.993375135802	3316.19995117188
914.700732607145	3340.80004882813
915.408001150579	3343.39990234375
916.115180773937	3377.19995117188
916.822271485037	3376.39990234375
917.529273291693	3384.39990234375
918.236186201733	3396.60009765625
918.943010222971	3362.39990234375
919.649745363234	3356.80004882813
920.356391630333	3346
921.062949032096	3322
921.769417576333	3318.39990234375
922.475797270864	3292.19995117188
923.182088123512	3300.39990234375
923.888290142089	3341.19995117188
924.594403334414	3336.39990234375
925.300427708304	3381.19995117188
926.006363271572	3373.39990234375
926.712210032039	3355
927.417967997522	3372.60009765625
928.123637175827	3358.80004882813
928.829217574776	3356
929.534709202184	3363
930.240112065859	3381.19995117188
930.945426173621	3361.39990234375
931.650651533283	3330.19995117188
932.355788152653	3339.19995117188
933.060836039547	3327.60009765625
933.765795201776	3312.19995117188
934.470665647153	3303.19995117188
935.175447383492	3302.19995117188
935.880140418599	3303
936.584744760286	3294.80004882813
937.289260416366	3341.39990234375
937.993687394647	3360.19995117188
938.698025702939	3379.60009765625
939.402275349051	3412.80004882813
940.106436340793	3420.60009765625
940.810508685976	3427.60009765625
941.5144923924	3400.39990234375
942.21838746788	3406
942.922193920223	3355.60009765625
943.625911757231	3350
944.329540986716	3329.80004882813
945.033081616484	3313.39990234375
945.736533654334	3278.19995117188
946.439897108083	3240
947.143171985529	3264.80004882813
947.846358294477	3260.39990234375
948.549456042732	3274
949.2524652381	3269
949.955385888382	3307
950.658218001384	3329
951.360961584907	3338
952.063616646755	3358.60009765625
952.766183194733	3351.19995117188
953.468661236636	3368.80004882813
954.171050780271	3378.80004882813
954.873351833437	3335.19995117188
955.575564403935	3355
956.277688499565	3356.19995117188
956.97972412813	3295.19995117188
957.681671297424	3304.19995117188
958.383530015255	3326
959.085300289414	3326.80004882813
959.786982127703	3317.39990234375
960.488575537918	3308.80004882813
961.190080527859	3308.60009765625
961.891497105327	3288.39990234375
962.592825278111	3263.19995117188
963.294065054012	3279.19995117188
963.995216440829	3287.60009765625
964.696279446353	3289.19995117188
965.397254078383	3302.19995117188
966.098140344714	3321
966.798938253139	3286
967.499647811456	3282.60009765625
968.200269027458	3281.80004882813
968.900801908937	3272.39990234375
969.601246463685	3250.39990234375
970.3016026995	3247.19995117188
971.001870624169	3195.80004882813
971.702050245491	3235
972.402141571249	3214.19995117188
973.102144609245	3233.80004882813
973.802059367267	3244.39990234375
974.501885853103	3247
975.201624074541	3287.80004882813
975.901274039379	3312.19995117188
976.600835755399	3311.39990234375
977.3003092304	3280.60009765625
977.999694472158	3321
978.698991488473	3315
979.39820028713	3289
980.097320875915	3332.60009765625
980.796353262618	3313
981.495297455024	3348.39990234375
982.194153460919	3364.80004882813
982.892921288093	3333.60009765625
983.591600944331	3350.60009765625
984.290192437419	3357.39990234375
984.98869577514	3328.60009765625
985.687110965282	3288
986.385438015629	3268.80004882813
987.083676933961	3264.60009765625
987.781827728069	3276
988.479890405732	3267.80004882813
989.177864974732	3291.60009765625
989.875751442857	3299
990.573549817888	3317.80004882813
991.271260107602	3298.60009765625
991.968882319786	3300.39990234375
992.666416462217	3306.80004882813
993.363862542681	3285
994.061220568959	3249.39990234375
994.758490548823	3243
995.455672490061	3254.39990234375
996.152766400451	3290.39990234375
996.849772287773	3278.80004882813
997.5466901598	3299.39990234375
998.243520024317	3296.39990234375
998.940261889097	3289.19995117188
999.636915761923	3272.39990234375
1000.33348165057	3223.80004882813
1001.02995956281	3230.19995117188
1001.72634950643	3228.60009765625
1002.42265148919	3259.80004882813
1003.11886551889	3265.60009765625
1003.81499160328	3281.19995117188
1004.51102975015	3300.39990234375
1005.20697996727	3343.60009765625
1005.90284226242	3293.39990234375
1006.59861664337	3327.39990234375
1007.2943031179	3337.80004882813
1007.98990169377	3367.60009765625
1008.68541237876	3375.80004882813
1009.38083518064	3407.19995117188
1010.07617010719	3411.39990234375
1010.77141716617	3403
1011.46657636536	3377.80004882813
1012.16164771253	3389
1012.85663121546	3348.80004882813
1013.5515268819	3313
1014.24633471963	3279
1014.94105473642	3255.80004882813
1015.63568694004	3290.39990234375
1016.33023133826	3289.60009765625
1017.02468793885	3317.80004882813
1017.71905674957	3339.39990234375
1018.41333777819	3370
1019.10753103249	3312.39990234375
1019.80163652022	3323
1020.49565424916	3349.80004882813
1021.18958422707	3327.39990234375
1021.88342646171	3326
1022.57718096085	3309.80004882813
1023.27084773227	3331.80004882813
1023.96442678371	3330.19995117188
1024.65791812296	3263.39990234375
1025.35132175776	3260
1026.04463769589	3189
1026.73786594511	3210
1027.43100651318	3214.39990234375
1028.12405940786	3201.39990234375
1028.81702463692	3212.60009765625
1029.50990220812	3229.19995117188
1030.20269212921	3226.39990234375
1030.89539440798	3233.19995117188
1031.58800905216	3238.39990234375
1032.28053606952	3205.19995117188
1032.97297546784	3202.39990234375
1033.66532725485	3218.60009765625
1034.35759143832	3239
1035.04976802602	3249
1035.7418570257	3246
1036.43385844511	3214.80004882813
1037.12577229202	3227.80004882813
1037.81759857419	3242.80004882813
1038.50933729937	3240.39990234375
1039.20098847531	3268.80004882813
1039.89255210978	3278.80004882813
1040.58402821053	3290.39990234375
1041.27541678532	3253.39990234375
1041.96671784191	3266.19995117188
1042.65793138804	3225
1043.34905743147	3255.39990234375
1044.04009597996	3298.80004882813
1044.73104704125	3309.60009765625
1045.42191062312	3323.19995117188
1046.1126867333	3310
1046.80337537955	3307.60009765625
1047.49397656962	3313.60009765625
1048.18449031127	3317
1048.87491661225	3288.80004882813
1049.5652554803	3268
1050.25550692319	3218
1050.94567094865	3212.60009765625
1051.63574756444	3225.60009765625
1052.32573677832	3252.80004882813
1053.01563859803	3278
1053.70545303131	3277.80004882813
1054.39518008592	3251.60009765625
1055.08481976961	3218.19995117188
1055.77437209013	3234.60009765625
1056.46383705522	3268
1057.15321467262	3266.39990234375
1057.8425049501	3266.19995117188
1058.53170789539	3216.19995117188
1059.22082351624	3199
1059.9098518204	3185.60009765625
1060.59879281561	3195.39990234375
1061.28764650962	3205.80004882813
1061.97641291016	3247
1062.665092025	3235.80004882813
1063.35368386187	3216
1064.04218842851	3201.80004882813
1064.73060573268	3176.80004882813
1065.4189357821	3177.80004882813
1066.10717858452	3127.60009765625
1066.7953341477	3181.80004882813
1067.48340247936	3187.19995117188
1068.17138358725	3162.80004882813
1068.85927747912	3184.19995117188
1069.5470841627	3194.60009765625
1070.23480364573	3203.19995117188
1070.92243593595	3209.39990234375
1071.60998104111	3221.19995117188
1072.29743896894	3214.60009765625
1072.98480972718	3215.19995117188
1073.67209332357	3248.39990234375
1074.35928976585	3232.39990234375
1075.04639906176	3259.60009765625
1075.73342121903	3282.39990234375
1076.42035624541	3254.60009765625
1077.10720414862	3266.60009765625
1077.79396493641	3307
1078.48063861651	3312.19995117188
1079.16722519666	3262.19995117188
1079.85372468459	3278.19995117188
1080.54013708804	3249.39990234375
1081.22646241474	3193.39990234375
1081.91270067243	3201
1082.59885186884	3243.39990234375
1083.28491601171	3261.80004882813
1083.97089310877	3305.80004882813
1084.65678316774	3291.39990234375
1085.34258619637	3280.80004882813
1086.02830220239	3349.39990234375
1086.71393119352	3325.19995117188
1087.39947317751	3325
1088.08492816207	3303.19995117188
1088.77029615495	3351
1089.45557716387	3321.60009765625
1090.14077119656	3332.60009765625
1090.82587826075	3307.60009765625
1091.51089836417	3304.60009765625
1092.19583151456	3300.80004882813
1092.88067771963	3296.80004882813
1093.56543698712	3262
1094.25010932475	3267.39990234375
1094.93469474026	3230.80004882813
1095.61919324137	3247.39990234375
1096.3036048358	3235.80004882813
1096.98792953129	3212.60009765625
1097.67216733555	3233
1098.35631825632	3244
1099.04038230132	3241
1099.72435947828	3228.39990234375
1100.40824979492	3205.80004882813
1101.09205325895	3183.19995117188
1101.77576987812	3137.39990234375
1102.45939966014	3119.80004882813
1103.14294261273	3109
1103.82639874362	3072.60009765625
1104.50976806054	3091
1105.19305057119	3141.60009765625
1105.87624628331	3169.39990234375
1106.55935520461	3235
1107.24237734283	3244.80004882813
1107.92531270566	3262
1108.60816130085	3292.19995117188
1109.2909231361	3280.19995117188
1109.97359821914	3348.39990234375
1110.65618655768	3352.60009765625
1111.33868815946	3372.60009765625
1112.02110303217	3354.60009765625
1112.70343118355	3368.80004882813
1113.3856726213	3345.39990234375
1114.06782735316	3339.19995117188
1114.74989538683	3287.19995117188
1115.43187673002	3249.19995117188
1116.11377139047	3215.39990234375
1116.79557937588	3208.39990234375
1117.47730069397	3230.19995117188
1118.15893535245	3301.60009765625
1118.84048335904	3305
1119.52194472146	3319.39990234375
1120.20331944741	3322
1120.88460754462	3294.80004882813
1121.56580902079	3327.19995117188
1122.24692388364	3324.60009765625
1122.92795214088	3331.19995117188
1123.60889380022	3330
1124.28974886938	3343.80004882813
1124.97051735606	3403.80004882813
1125.65119926799	3393.39990234375
1126.33179461286	3398.19995117188
1127.0123033984	3364.19995117188
1127.6927256323	3372.60009765625
1128.37306132229	3382.39990234375
1129.05331047606	3348
1129.73347310134	3335.60009765625
1130.41354920582	3340
1131.09353879722	3313.19995117188
1131.77344188324	3299.60009765625
1132.45325847159	3290
1133.13298856999	3316.80004882813
1133.81263218612	3334.19995117188
1134.49218932772	3328.80004882813
1135.17166000247	3291.19995117188
1135.85104421809	3298.39990234375
1136.53034198227	3280.60009765625
1137.20955330274	3227.60009765625
1137.88867818718	3255.60009765625
1138.56771664331	3253.80004882813
1139.24666867883	3269
1139.92553430144	3297.60009765625
1140.60431351885	3292.60009765625
1141.28300633876	3322.19995117188
1141.96161276887	3339.60009765625
1142.64013281689	3334.60009765625
1143.31856649051	3346
1143.99691379744	3341.80004882813
1144.67517474538	3346
1145.35334934203	3281.60009765625
1146.03143759509	3267.19995117188
1146.70943951226	3255.60009765625
1147.38735510125	3224.19995117188
1148.06518436974	3221.39990234375
1148.74292732545	3219
1149.42058397606	3227.19995117188
1150.09815432928	3226.60009765625
1150.7756383928	3235.19995117188
1151.45303617432	3276
1152.13034768155	3300.19995117188
1152.80757292217	3329
1153.48471190389	3349.19995117188
1154.16176463439	3370.19995117188
1154.83873112138	3347
1155.51561137255	3321.19995117188
1156.1924053956	3329.19995117188
1156.86911319822	3323.19995117188
1157.5457347881	3340.19995117188
1158.22227017294	3330.19995117188
1158.89871936044	3308
1159.57508235828	3301.60009765625
1160.25135917416	3328.19995117188
1160.92754981578	3290.19995117188
1161.60365429081	3338.60009765625
1162.27967260697	3309.19995117188
1162.95560477193	3305
1163.63145079339	3293.80004882813
1164.30721067904	3276
1164.98288443657	3265.80004882813
1165.65847207367	3292.19995117188
1166.33397359803	3309
1167.00938901735	3321.80004882813
1167.6847183393	3346.80004882813
1168.35996157157	3347.80004882813
1169.03511872187	3360.80004882813
1169.71018979787	3367.80004882813
1170.38517480726	3341.39990234375
1171.06007375773	3331
1171.73488665696	3269.80004882813
1172.40961351265	3287.80004882813
1173.08425433247	3284
1173.75880912412	3284
1174.43327789528	3313.19995117188
1175.10766065364	3328
1175.78195740687	3323.39990234375
1176.45616816267	3364.80004882813
1177.13029292871	3346.39990234375
1177.80433171269	3329.19995117188
1178.47828452229	3323
1179.15215136518	3364
1179.82593224905	3361.39990234375
1180.49962718159	3368.60009765625
1181.17323617047	3385.80004882813
1181.84675922337	3358.39990234375
1182.52019634799	3409.80004882813
1183.193547552	3407.80004882813
1183.86681284307	3411.60009765625
1184.53999222889	3425
1185.21308571714	3427.19995117188
1185.8860933155	3397
1186.55901503165	3394.60009765625
1187.23185087326	3390.39990234375
1187.90460084802	3400.19995117188
1188.5772649636	3394.39990234375
1189.24984322768	3390.80004882813
1189.92233564794	3392.60009765625
1190.59474223206	3431.60009765625
1191.2670629877	3459
1191.93929792255	3474.60009765625
1192.61144704428	3505.60009765625
1193.28351036058	3479.60009765625
1193.9554878791	3429.19995117188
1194.62737960754	3405
1195.29918555356	3424.19995117188
1195.97090572483	3434.39990234375
1196.64254012903	3436.19995117188
1197.31408877384	3450.60009765625
1197.98555166693	3464
1198.65692881596	3456.80004882813
1199.32822022862	3440.19995117188
1199.99942591256	3426.19995117188
1200.67054587548	3413.19995117188
1201.34158012503	3401.19995117188
1202.01252866889	3384.19995117188
1202.68339151473	3361
1203.35416867021	3347.39990234375
1204.02486014301	3321.80004882813
1204.6954659408	3354.19995117188
1205.36598607124	3371.60009765625
1206.03642054201	3382.39990234375
1206.70676936078	3392.60009765625
1207.3770325352	3412
1208.04721007295	3383.80004882813
1208.7173019817	3373.39990234375
1209.38730826911	3369.60009765625
1210.05722894285	3314
1210.72706401059	3309.60009765625
1211.39681347999	3288
1212.06647735872	3278.60009765625
1212.73605565444	3279
1213.40554837481	3267.39990234375
1214.07495552751	3278
1214.74427712019	3305
1215.41351316052	3303.60009765625
1216.08266365617	3314.39990234375
1216.75172861479	3302
1217.42070804405	3284
1218.0896019516	3288.60009765625
1218.75841034513	3309.39990234375
1219.42713323227	3327.19995117188
1220.0957706207	3362
1220.76432251808	3350.39990234375
1221.43278893207	3363.80004882813
1222.10116987032	3342.39990234375
1222.7694653405	3373
1223.43767535026	3360.60009765625
1224.10579990727	3370
1224.77383901918	3318.39990234375
1225.44179269366	3314
1226.10966093835	3304.80004882813
1226.77744376093	3311.60009765625
1227.44514116904	3329
1228.11275317034	3326.39990234375
1228.78027977249	3329
1229.44772098315	3340.39990234375
1230.11507680996	3308.80004882813
1230.7823472606	3260.80004882813
1231.44953234271	3273.80004882813
1232.11663206394	3261.80004882813
1232.78364643195	3230.80004882813
1233.4505754544	3242.39990234375
1234.11741913894	3222.80004882813
1234.78417749322	3203.19995117188
1235.45085052489	3228.80004882813
1236.11743824162	3218.60009765625
1236.78394065104	3214
1237.45035776082	3227.19995117188
1238.1166895786	3254.39990234375
1238.78293611204	3292.19995117188
1239.44909736878	3297.39990234375
1240.11517335648	3277.60009765625
1240.78116408279	3282.39990234375
1241.44706955535	3297.80004882813
1242.11288978182	3280.39990234375
1242.77862476985	3238
1243.44427452708	3206
1244.10983906116	3190.80004882813
1244.77531837974	3229.39990234375
1245.44071249047	3222.39990234375
1246.106021401	3223.39990234375
1246.77124511898	3240.60009765625
1247.43638365204	3260
1248.10143700783	3271.80004882813
1248.76640519401	3260
1249.43128821822	3236.39990234375
1250.0960860881	3233
1250.76079881129	3241
1251.42542639545	3238
1252.08996884822	3228.19995117188
1252.75442617723	3216.60009765625
1253.41879839014	3219.60009765625
1254.08308549458	3231.19995117188
1254.74728749821	3262.19995117188
1255.41140440866	3267
1256.07543623357	3251.80004882813
1256.73938298059	3261.39990234375
1257.40324465735	3210.80004882813
1258.0670212715	3198.19995117188
1258.73071283068	3190.19995117188
1259.39431934253	3216.80004882813
1260.05784081468	3189.19995117188
1260.72127725479	3212.19995117188
1261.38462867049	3182.39990234375
1262.0478950694	3161.80004882813
1262.71107645919	3171.80004882813
1263.37417284748	3159.80004882813
1264.03718424191	3202
1264.70011065011	3197.39990234375
1265.36295207974	3198.60009765625
1266.02570853841	3240.80004882813
1266.68838003378	3219.60009765625
1267.35096657346	3200.19995117188
1268.01346816511	3194.80004882813
1268.67588481636	3165.19995117188
1269.33821653483	3180.60009765625
1270.00046332817	3213.39990234375
1270.66262520401	3226.80004882813
1271.32470216998	3259.60009765625
1271.98669423372	3231
1272.64860140285	3203.80004882813
1273.31042368503	3171.60009765625
1273.97216108786	3203.80004882813
1274.633813619	3226.60009765625
1275.29538128606	3249.80004882813
1275.95686409669	3260
1276.6182620585	3256
1277.27957517914	3240.60009765625
1277.94080346624	3221.19995117188
1278.60194692741	3225.80004882813
1279.2630055703	3254.39990234375
1279.92397940253	3279.80004882813
1280.58486843173	3295.60009765625
1281.24567266552	3266.80004882813
1281.90639211155	3210.80004882813
1282.56702677743	3214.39990234375
1283.2275766708	3212.39990234375
1283.88804179927	3209.19995117188
1284.54842217049	3174.60009765625
1285.20871779206	3171.39990234375
1285.86892867163	3169.60009765625
1286.52905481681	3218.80004882813
1287.18909623523	3263.19995117188
1287.84905293452	3274.19995117188
1288.5089249223	3277.80004882813
1289.16871220619	3296.80004882813
1289.82841479383	3310.60009765625
1290.48803269282	3287.60009765625
1291.1475659108	3263.39990234375
1291.80701445539	3241
1292.46637833421	3191.60009765625
1293.12565755489	3185
1293.78485212504	3157.19995117188
1294.44396205229	3157.80004882813
1295.10298734425	3177.19995117188
1295.76192800856	3199.19995117188
1296.42078405283	3198.19995117188
1297.07955548467	3196.19995117188
1297.73824231171	3212.60009765625
1298.39684454158	3229.60009765625
1299.05536218188	3253.19995117188
1299.71379524023	3240.80004882813
1300.37214372427	3226
1301.03040764159	3229
1301.68858699983	3215.60009765625
1302.34668180659	3228
1303.0046920695	3239
1303.66261779617	3237.60009765625
1304.32045899422	3275
1304.97821567126	3288
1305.63588783492	3297.60009765625
1306.29347549279	3286.60009765625
1306.95097865251	3264.19995117188
1307.60839732168	3238.60009765625
1308.26573150791	3283.39990234375
1308.92298121883	3253.39990234375
1309.58014646204	3248.60009765625
1310.23722724517	3236.39990234375
1310.89422357581	3208
1311.55113546158	3221.80004882813
1312.2079629101	3252
1312.86470592898	3300.19995117188
1313.52136452582	3287.80004882813
1314.17793870824	3297.19995117188
1314.83442848386	3319.19995117188
1315.49083386027	3315
1316.14715484509	3341.80004882813
1316.80339144594	3322.19995117188
1317.45954367041	3344.80004882813
1318.11561152611	3346.80004882813
1318.77159502067	3295
1319.42749416168	3323
1320.08330895674	3330
1320.73903941348	3302
1321.3946855395	3278.39990234375
1322.0502473424	3269.39990234375
1322.70572482978	3254
1323.36111800926	3279.60009765625
1324.01642688845	3275.39990234375
1324.67165147494	3245.80004882813
1325.32679177634	3304
1325.98184780025	3300.19995117188
1326.63681955429	3291.39990234375
1327.29170704605	3269
1327.94651028314	3284.39990234375
1328.60122927316	3259.60009765625
1329.25586402371	3268.19995117188
1329.9104145424	3269.80004882813
1330.56488083683	3238.60009765625
1331.2192629146	3230
1331.87356078331	3261.19995117188
1332.52777445056	3290.39990234375
1333.18190392395	3297
1333.83594921109	3279.60009765625
1334.48991031958	3231
1335.143787257	3241.80004882813
1335.79758003097	3249.19995117188
1336.45128864908	3246.80004882813
1337.10491311893	3252.39990234375
1337.75845344813	3271.80004882813
1338.41190964425	3264.60009765625
1339.06528171491	3260.80004882813
1339.71856966771	3216.19995117188
1340.37177351023	3188.19995117188
1341.02489325007	3184
1341.67792889484	3144
1342.33088045212	3120.60009765625
1342.98374792952	3142.19995117188
1343.63653133462	3174
1344.28923067503	3187.60009765625
1344.94184595833	3210
1345.59437719212	3249.19995117188
1346.246824384	3264.39990234375
1346.89918754155	3268.39990234375
1347.55146667238	3267.39990234375
1348.20366178407	3273.80004882813
1348.85577288421	3269.60009765625
1349.50779998041	3262.39990234375
1350.15974308024	3262.60009765625
1350.8116021913	3255.39990234375
1351.46337732119	3251.80004882813
1352.11506847748	3263.39990234375
1352.76667566778	3263.60009765625
1353.41819889967	3283.19995117188
1354.06963818074	3273.19995117188
1354.72099351858	3318.60009765625
1355.37226492079	3325.39990234375
1356.02345239494	3318.19995117188
1356.67455594862	3379.19995117188
1357.32557558943	3419.80004882813
1357.97651132496	3459.19995117188
1358.62736316277	3485.19995117188
1359.27813111048	3508
1359.92881517565	3491.60009765625
1360.57941536589	3493.19995117188
1361.22993168876	3510
1361.88036415186	3526.60009765625
1362.53071276278	3533.39990234375
1363.1809775291	3529
1363.8311584584	3544
1364.48125555826	3545.39990234375
1365.13126883627	3460.60009765625
1365.78119830001	3400.60009765625
1366.43104395707	3354.60009765625
1367.08080581503	3311.19995117188
1367.73048388147	3299
1368.38007816397	3278.39990234375
1369.02958867011	3297
1369.67901540748	3302.60009765625
1370.32835838365	3321.60009765625
1370.9776176062	3324.19995117188
1371.62679308273	3329.39990234375
1372.27588482079	3344
1372.92489282798	3366.60009765625
1373.57381711188	3318.39990234375
1374.22265768006	3293.39990234375
1374.87141454009	3279
1375.52008769957	3263
1376.16867716606	3267.80004882813
1376.81718294715	3257
1377.4656050504	3223.39990234375
1378.1139434834	3201.19995117188
1378.76219825373	3240.80004882813
1379.41036936895	3210
1380.05845683664	3214.80004882813
1380.70646066439	3219.80004882813
1381.35438085976	3231.19995117188
1382.00221743032	3225
1382.64997038366	3241.60009765625
1383.29763972735	3247
1383.94522546895	3226.39990234375
1384.59272761605	3238.19995117188
1385.24014617621	3223.39990234375
1385.88748115701	3197.60009765625
1386.53473256602	3213.60009765625
1387.18190041081	3194.39990234375
1387.82898469895	3199.60009765625
1388.47598543802	3181.39990234375
1389.12290263558	3175.60009765625
1389.7697362992	3143.80004882813
1390.41648643646	3118.80004882813
1391.06315305492	3110.60009765625
1391.70973616215	3084.39990234375
1392.35623576573	3073.39990234375
1393.00265187321	3076.39990234375
1393.64898449217	3116.39990234375
1394.29523363018	3146
1394.94139929481	3163
1395.58748149361	3108.60009765625
1396.23348023415	3086.60009765625
1396.87939552402	3039
1397.52522737076	3047
1398.17097578195	3004.39990234375
1398.81664076514	2956.80004882813
1399.46222232792	2947.80004882813
1400.10772047783	2957
1400.75313522245	2946
1401.39846656934	2974
1402.04371452605	3012.80004882813
1402.68887910016	3042.80004882813
1403.33396029924	3030.60009765625
1403.97895813083	3057
1404.6238726025	3062.80004882813
1405.26870372182	3071.39990234375
1405.91345149634	3078.19995117188
1406.55811593363	3047.80004882813
1407.20269704125	3023.60009765625
1407.84719482676	3024.39990234375
1408.49160929772	3041.60009765625
1409.13594046168	3039.39990234375
1409.78018832622	3034.60009765625
1410.42435289887	3076.39990234375
1411.06843418722	3057
1411.7124321988	3040.39990234375
1412.3563469412	3070.80004882813
1413.00017842194	3097.60009765625
1413.64392664861	3118.19995117188
1414.28759162875	3130
1414.93117336992	3119.80004882813
1415.57467187967	3123.19995117188
1416.21808716557	3109
1416.86141923516	3131
1417.50466809601	3131.19995117188
1418.14783375567	3136.39990234375
1418.79091622169	3123
1419.43391550162	3097.60009765625
1420.07683160303	3090.80004882813
1420.71966453346	3116
1421.36241430046	3129.39990234375
1422.0050809116	3113.39990234375
1422.64766437442	3136
1423.29016469647	3135.19995117188
1423.93258188531	3164
1424.57491594848	3159.80004882813
1425.21716689354	3143.39990234375
1425.85933472805	3142
1426.50141945954	3115
1427.14342109557	3116
1427.78533964369	3099.39990234375
1428.42717511144	3111.39990234375
1429.06892750639	3091.60009765625
1429.71059683607	3062.80004882813
1430.35218310803	3058
1430.99368632983	3070.60009765625
1431.635106509	3072.19995117188
1432.2764436531	3081.80004882813
1432.91769776967	3112.60009765625
1433.55886886627	3102.60009765625
1434.19995695043	3128.80004882813
1434.84096202969	3114.19995117188
1435.48188411162	3097.19995117188
1436.12272320375	3063
1436.76347931363	3044.19995117188
1437.40415244879	3063.19995117188
1438.0447426168	3072.80004882813
1438.68524982518	3077.60009765625
1439.32567408148	3047
1439.96601539325	3049.39990234375
1440.60627376803	3029.19995117188
1441.24644921336	3014.60009765625
1441.88654173678	3010.19995117188
1442.52655134583	3012.80004882813
1443.16647804806	3004.39990234375
1443.806321851	3025
1444.4460827622	3028.19995117188
1445.0857607892	3026.39990234375
1445.72535593953	3005.19995117188
1446.36486822074	2981.80004882813
1447.00429764037	2988.39990234375
1447.64364420595	2998.80004882813
1448.28290792502	2983.39990234375
1448.92208880512	3006.39990234375
1449.56118685379	3007.60009765625
1450.20020207857	3018.39990234375
1450.83913448699	3052.39990234375
1451.47798408659	3036.39990234375
1452.1167508849	3042.80004882813
1452.75543488947	3050.39990234375
1453.39403610782	3032.60009765625
1454.0325545475	3021.60009765625
1454.67099021603	3034.80004882813
1455.30934312097	3063.80004882813
1455.94761326982	3050.19995117188
1456.58580067014	3068.19995117188
1457.22390532945	3064
1457.86192725529	3061.60009765625
1458.49986645519	3050.80004882813
1459.13772293668	3037.60009765625
1459.7754967073	3030.19995117188
1460.41318777457	3010.80004882813
1461.05079614604	2990.60009765625
1461.68832182922	2990.39990234375
1462.32576483166	2979.60009765625
1462.96312516087	2993.19995117188
1463.6004028244	3015.60009765625
1464.23759782977	3070.19995117188
1464.8747101845	3058.39990234375
1465.51173989614	3104.80004882813
1466.14868697221	3094.60009765625
1466.78555142024	3065.60009765625
1467.42233324774	3071.80004882813
1468.05903246227	3051.60009765625
1468.69564907133	3043
1469.33218308246	3052.19995117188
1469.96863450317	3035.19995117188
1470.60500334102	3040.80004882813
1471.2412896035	3085
1471.87749329816	3094.60009765625
1472.51361443251	3078.80004882813
1473.14965301409	3061
1473.78560905041	3058.80004882813
1474.421482549	3105.19995117188
1475.05727351739	3066.39990234375
1475.69298196309	3093.60009765625
1476.32860789364	3074
1476.96415131654	3067.60009765625
1477.59961223934	3051.60009765625
1478.23499066954	3036.80004882813
1478.87028661467	3022.80004882813
1479.50550008226	3040.19995117188
1480.14063107981	3020.39990234375
1480.77567961486	3015.19995117188
1481.41064569492	2978.60009765625
1482.04552932752	2979.19995117188
1482.68033052017	2992.19995117188
1483.31504928039	3001.39990234375
1483.9496856157	3025.39990234375
1484.58423953363	3037.19995117188
1485.21871104168	3046.39990234375
1485.85310014738	3031.19995117188
1486.48740685824	2998
1487.12163118178	3009
1487.75577312553	3022.39990234375
1488.38983269698	2999.39990234375
1489.02380990367	3014.80004882813
1489.65770475311	3006.39990234375
1490.29151725281	3033.60009765625
1490.92524741029	3077.60009765625
1491.55889523306	3043.60009765625
1492.19246072863	3078.80004882813
1492.82594390453	3045.39990234375
1493.45934476826	3091.60009765625
1494.09266332734	3077
1494.72589958928	3090.19995117188
1495.3590535616	3071.19995117188
1495.99212525181	3115.60009765625
1496.62511466741	3103.80004882813
1497.25802181592	3090
1497.89084670485	3071.80004882813
1498.52358934172	3104.39990234375
1499.15624973403	3130.60009765625
1499.7888278893	3150
1500.42132381503	3141.39990234375
1501.05373751873	3173
1501.68606900792	3200
1502.31831829009	3269
1502.95048537277	3220.80004882813
1503.58257026346	3261.39990234375
1504.21457296966	3254.80004882813
1504.84649349889	3270.80004882813
1505.47833185864	3259.80004882813
1506.11008805644	3297.60009765625
1506.74176209978	3223.60009765625
1507.37335399617	3205
1508.00486375312	3193
1508.63629137813	3183.39990234375
1509.2676368787	3184.39990234375
1509.89890026235	3182.19995117188
1510.53008153658	3233
1511.16118070889	3254.60009765625
1511.79219778677	3238.80004882813
1512.42313277775	3255.39990234375
1513.05398568932	3237.39990234375
1513.68475652898	3247
1514.31544530424	3206.19995117188
1514.9460520226	3219.80004882813
1515.57657669155	3157.39990234375
1516.20701931861	3105.19995117188
1516.83737991127	3103
1517.46765847702	3100.80004882813
1518.09785502339	3108.39990234375
1518.72796955785	3152.39990234375
1519.35800208792	3143.39990234375
1519.98795262109	3150.60009765625
1520.61782116486	3148
1521.24760772673	3155
1521.87731231419	3146.60009765625
1522.50693493475	3131.39990234375
1523.1364755959	3123.80004882813
1523.76593430514	3094.39990234375
1524.39531106997	3108.60009765625
1525.02460589788	3118.39990234375
1525.65381879637	3094.39990234375
1526.28294977293	3087.60009765625
1526.91199883507	3057.80004882813
1527.54096599027	3055.60009765625
1528.16985124603	3047.80004882813
1528.79865460984	3044.60009765625
1529.4273760892	3062.19995117188
1530.05601569161	3055.19995117188
1530.68457342455	3061.19995117188
1531.31304929552	3080.39990234375
1531.94144331201	3082.19995117188
1532.56975548151	3105.19995117188
1533.19798581152	3124.60009765625
1533.82613430953	3131.60009765625
1534.45420098302	3146.60009765625
1535.08218583949	3142
1535.71008888643	3095.60009765625
1536.33791013134	3131.19995117188
1536.96564958169	3108.39990234375
1537.59330724498	3099
1538.22088312871	3092.39990234375
1538.84837724034	3043.19995117188
1539.47578958739	3023.39990234375
1540.10312017733	3019.80004882813
1540.73036901765	3005.60009765625
1541.35753611584	3009.39990234375
1541.98462147939	3000.39990234375
1542.61162511578	3001.19995117188
1543.2385470325	3009.80004882813
1543.86538723704	3036.80004882813
1544.49214573688	3025.19995117188
1545.11882253951	3026
1545.74541765241	3056.39990234375
1546.37193108306	3078.80004882813
1546.99836283896	3057.60009765625
1547.62471292758	3060.60009765625
1548.25098135641	3017.19995117188
1548.87716813294	3030
1549.50327326464	3036
1550.12929675899	3014.39990234375
1550.75523862349	3002
1551.38109886561	2998.80004882813
1552.00687749284	3008.60009765625
1552.63257451264	3000.39990234375
1553.25818993252	2997.60009765625
1553.88372375994	2972.80004882813
1554.50917600239	2929.80004882813
1555.13454666734	2934.39990234375
1555.75983576228	2945.39990234375
1556.38504329469	2933
1557.01016927204	2953
1557.63521370181	2935.39990234375
1558.26017659149	2903.39990234375
1558.88505794854	2948.39990234375
1559.50985778045	2963.60009765625
1560.13457609469	2976.80004882813
1560.75921289874	2984.60009765625
1561.38376820008	2966.39990234375
1562.00824200618	2946.19995117188
1562.63263432452	2952.19995117188
1563.25694516257	2958.39990234375
1563.88117452781	2953
1564.50532242772	2963.39990234375
1565.12938886976	2931.80004882813
1565.75337386141	2923.19995117188
1566.37727741015	2946.80004882813
1567.00109952345	2952
1567.62484020878	2979.39990234375
1568.24849947361	3021.60009765625
1568.87207732542	3053.39990234375
1569.49557377168	3058.60009765625
1570.11898881986	3046.60009765625
1570.74232247743	3074.39990234375
1571.36557475186	3054.19995117188
1571.98874565062	3060.19995117188
1572.61183518119	3082.19995117188
1573.23484335103	3128.39990234375
1573.85777016761	3150.60009765625
1574.4806156384	3175.60009765625
1575.10337977088	3145.60009765625
1575.7260625725	3119.60009765625
1576.34866405074	3105.19995117188
1576.97118421306	3094.80004882813
1577.59362306694	3096
1578.21598061984	3118.60009765625
1578.83825687922	3094.19995117188
1579.46045185255	3082.39990234375
1580.08256554731	3066.39990234375
1580.70459797094	3037
1581.32654913093	3038.39990234375
1581.94841903473	3033.60009765625
1582.57020768981	3002.39990234375
1583.19191510364	2980.60009765625
1583.81354128367	2958.60009765625
1584.43508623737	2951
1585.05654997221	2956.60009765625
1585.67793249564	2935.80004882813
1586.29923381514	2918
1586.92045393815	2907.39990234375
1587.54159287216	2920
1588.1626506246	2940.19995117188
1588.78362720296	2920.19995117188
1589.40452261468	2937.80004882813
1590.02533686724	2891.60009765625
1590.64606996808	2885.39990234375
1591.26672192467	2889.39990234375
1591.88729274447	2866.80004882813
1592.50778243493	2850
1593.12819100352	2832.19995117188
1593.7485184577	2841.60009765625
1594.36876480492	2847.60009765625
1594.98893005264	2817.80004882813
1595.60901420832	2817.60009765625
1596.22901727941	2825.39990234375
1596.84893927338	2833.19995117188
1597.46878019767	2830.19995117188
1598.08854005975	2860.80004882813
1598.70821886707	2857.80004882813
1599.32781662708	2880.80004882813
1599.94733334725	2892.60009765625
1600.56676903502	2897.60009765625
1601.18612369785	2888
1601.8053973432	2851.80004882813
1602.42458997851	2808.39990234375
1603.04370161124	2809.80004882813
1603.66273224884	2811.60009765625
1604.28168189878	2798.39990234375
1604.90055056849	2778.19995117188
1605.51933826543	2784
1606.13804499705	2765.19995117188
1606.75667077081	2795.60009765625
1607.37521559415	2787
1607.99367947452	2825.80004882813
1608.61206241938	2798.19995117188
1609.23036443618	2790.60009765625
1609.84858553236	2762
1610.46672571537	2772.39990234375
1611.08478499267	2808.60009765625
1611.7027633717	2805.80004882813
1612.3206608599	2807.19995117188
1612.93847746473	2791
1613.55621319364	2759.60009765625
1614.17386805407	2723
1614.79144205347	2729.60009765625
1615.40893519928	2729.60009765625
1616.02634749895	2717.60009765625
1616.64367895993	2701.80004882813
1617.26092958966	2689
1617.87809939559	2698.80004882813
1618.49518838516	2707.19995117188
1619.11219656582	2707.80004882813
1619.729123945	2693.60009765625
1620.34597053016	2726.39990234375
1620.96273632874	2720.19995117188
1621.57942134818	2738.39990234375
1622.19602559592	2705.80004882813
1622.8125490794	2693.19995117188
1623.42899180607	2698.19995117188
1624.04535378337	2694.19995117188
1624.66163501874	2690.80004882813
1625.27783551963	2706.39990234375
1625.89395529346	2697
1626.50999434768	2660.39990234375
1627.12595268974	2637.19995117188
1627.74183032707	2647
1628.3576272671	2643.19995117188
1628.97334351729	2614
1629.58897908506	2609
1630.20453397786	2617.19995117188
1630.82000820313	2591.80004882813
1631.43540176829	2625
1632.05071468079	2623.39990234375
1632.66594694807	2617.19995117188
1633.28109857756	2648.60009765625
1633.8961695767	2645.19995117188
1634.51115995292	2622.39990234375
1635.12606971366	2636.80004882813
1635.74089886636	2629.39990234375
1636.35564741844	2651.60009765625
1636.97031537734	2670.60009765625
1637.58490275051	2680.39990234375
1638.19940954536	2680
1638.81383576934	2701.39990234375
1639.42818142987	2710.60009765625
1640.0424465344	2725
1640.65663109034	2729.60009765625
1641.27073510515	2742.80004882813
1641.88475858623	2740.19995117188
1642.49870154104	2738.60009765625
1643.11256397699	2727
1643.72634590152	2725.19995117188
1644.34004732206	2741.80004882813
1644.95366824604	2745.80004882813
1645.56720868089	2755
1646.18066863404	2765.19995117188
1646.79404811291	2756.60009765625
1647.40734712494	2752
1648.02056567755	2739.80004882813
1648.63370377817	2732.19995117188
1649.24676143423	2739.39990234375
1649.85973865316	2723.39990234375
1650.47263544238	2723.39990234375
1651.08545180932	2727
1651.6981877614	2738
1652.31084330606	2698.39990234375
1652.92341845071	2683.60009765625
1653.53591320278	2636.60009765625
1654.1483275697	2645.39990234375
1654.7606615589	2632.80004882813
1655.37291517778	2623.80004882813
1655.98508843379	2607
1656.59718133434	2597
1657.20919388685	2605.19995117188
1657.82112609875	2597.80004882813
1658.43297797747	2612.80004882813
1659.04474953041	2601.80004882813
1659.65644076501	2594.80004882813
1660.26805168869	2604
1660.87958230886	2565.19995117188
1661.49103263294	2580.60009765625
1662.10240266837	2565.19995117188
1662.71369242255	2557.39990234375
1663.32490190291	2568.39990234375
1663.93603111687	2542.19995117188
1664.54708007184	2533.19995117188
1665.15804877524	2535
1665.7689372345	2531.39990234375
1666.37974545703	2513.80004882813
1666.99047345024	2514
1667.60112122156	2527
1668.2116887784	2484
1668.82217612818	2449.80004882813
1669.43258327831	2424.60009765625
1670.04291023622	2404.60009765625
1670.65315700931	2377.80004882813
1671.263323605	2346.39990234375
1671.8734100307	2336.39990234375
1672.48341629384	2343
1673.09334240182	2328
1673.70318836206	2322.60009765625
1674.31295418197	2313.19995117188
1674.92263986896	2291.80004882813
1675.53224543046	2309
1676.14177087386	2317.60009765625
1676.75121620658	2338.19995117188
1677.36058143604	2359
1677.96986656964	2360.60009765625
1678.5790716148	2381.39990234375
1679.18819657892	2389.80004882813
1679.79724146943	2440.19995117188
1680.40620629372	2436.39990234375
1681.0150910592	2441.80004882813
1681.6238957733	2455.19995117188
1682.23262044341	2439
1682.84126507694	2441.19995117188
1683.4498296813	2422.39990234375
1684.0583142639	2449.39990234375
1684.66671883216	2446.60009765625
1685.27504339346	2439.60009765625
1685.88328795523	2409.60009765625
1686.49145252487	2382.80004882813
1687.09953710978	2379.19995117188
1687.70754171737	2383.39990234375
1688.31546635505	2393.19995117188
1688.92331103021	2390.80004882813
1689.53107575028	2401.60009765625
1690.13876052265	2419
1690.74636535472	2407.19995117188
1691.3538902539	2379.39990234375
1691.96133522759	2365.80004882813
1692.5687002832	2360.19995117188
1693.17598542812	2340.39990234375
1693.78319066977	2324.60009765625
1694.39031601554	2312.80004882813
1694.99736147283	2331
1695.60432704905	2367.80004882813
1696.2112127516	2395.60009765625
1696.81801858788	2391
1697.42474456528	2398.80004882813
1698.03139069121	2396
1698.63795697307	2365.39990234375
1699.24444341826	2369.60009765625
1699.85085003417	2375.60009765625
1700.45717682821	2354.80004882813
1701.06342380778	2358.60009765625
1701.66959098026	2358.19995117188
1702.27567835307	2351.19995117188
1702.88168593359	2331
1703.48761372922	2305.19995117188
1704.09346174737	2317.39990234375
1704.69922999542	2285.19995117188
1705.30491848077	2281.19995117188
1705.91052721083	2294.19995117188
1706.51605619297	2303.60009765625
1707.12150543461	2298
1707.72687494312	2291.19995117188
1708.33216472592	2264.80004882813
1708.93737479039	2271.39990234375
1709.54250514392	2253.39990234375
