634.977642221345	3142.80004882813
635.719821695905	3163.80004882813
636.461909203392	3167.39990234375
637.203904751776	3183.80004882813
637.945808349023	3177.60009765625
638.687620003102	3206.80004882813
639.42933972198	3226.60009765625
640.170967513616	3221.39990234375
640.912503385981	3199.39990234375
641.653947347041	3170.19995117188
642.395299404758	3160.80004882813
643.13655956709	3137.60009765625
643.877727842014	3075.80004882813
644.61880423748	3051.80004882813
645.359788761455	3046
646.100681421905	3088.80004882813
646.841482226789	3150.60009765625
647.582191184074	3147.60009765625
648.322808301711	3155
649.06333358767	3141
649.803767049909	3122
650.544108696385	3178.60009765625
651.28435853506	3208.39990234375
652.024516573894	3216
652.764582820849	3236.39990234375
653.504557283875	3270.19995117188
654.244439970937	3276.19995117188
654.984230889991	3289.80004882813
655.723930048995	3294
656.463537455909	3310.80004882813
657.203053118683	3329.60009765625
657.942477045275	3335.39990234375
658.681809243647	3301.39990234375
659.421049721747	3297.60009765625
660.160198487535	3258.80004882813
660.899255548962	3252.19995117188
661.638220913985	3295
662.377094590559	3289.80004882813
663.115876586631	3321.39990234375
663.854566910165	3300.60009765625
664.593165569107	3309.39990234375
665.331672571406	3284.19995117188
666.07008792502	3275.60009765625
666.808411637902	3252.60009765625
667.546643717996	3209
668.284784173258	3204.39990234375
669.022833011641	3241.80004882813
669.760790241089	3252.60009765625
670.498655869554	3238.39990234375
671.236429904987	3224.60009765625
671.97411235534	3215.60009765625
672.711703228551	3280
673.449202532577	3301.19995117188
674.186610275364	3351.60009765625
674.923926464857	3385.39990234375
675.661151109008	3405.19995117188
676.398284215759	3390.60009765625
677.135325793058	3426.19995117188
677.87227584885	3448.60009765625
678.609134391082	3457.19995117188
679.345901427696	3497
680.082576966644	3453.19995117188
680.819161015861	3442.60009765625
681.555653583298	3412.80004882813
682.292054676895	3378
683.028364304594	3381.19995117188
683.764582474344	3327
684.500709194083	3330
685.236744471752	3313.39990234375
685.972688315294	3314.19995117188
686.708540732652	3314.80004882813
687.444301731762	3335.39990234375
688.179971320572	3364
688.915549507013	3319.80004882813
689.651036299034	3299.60009765625
690.386431704569	3266.80004882813
691.121735731559	3261.39990234375
691.85694838794	3234.19995117188
692.592069681652	3248.80004882813
693.327099620632	3238.39990234375
694.062038212821	3259.39990234375
694.796885466149	3295.80004882813
695.531641388561	3315.60009765625
696.266305987987	3378
697.000879272367	3384.60009765625
697.735361249632	3418.60009765625
698.469751927722	3409.80004882813
699.204051314568	3433.80004882813
699.938259418107	3395.39990234375
700.672376246272	3367.80004882813
701.406401806997	3369
702.140336108212	3358.80004882813
702.874179157855	3359.19995117188
703.607930963856	3357.19995117188
704.341591534147	3375
705.07516087666	3361
705.808638999324	3359.80004882813
706.542025910073	3388.19995117188
707.275321616841	3382
708.008526127549	3378.60009765625
708.741639450132	3393.39990234375
709.474661592521	3377.39990234375
710.207592562641	3392.19995117188
710.940432368424	3404.80004882813
711.673181017796	3411.80004882813
712.405838518687	3404.60009765625
713.138404879025	3393.19995117188
713.870880106731	3370.39990234375
714.603264209738	3361.60009765625
715.335557195971	3421
716.067759073357	3442.80004882813
716.799869849816	3457
717.531889533281	3425.80004882813
718.263818131673	3438.39990234375
718.995655652917	3410.80004882813
719.727402104934	3355.19995117188
720.45905749565	3363.39990234375
721.19062183299	3333.80004882813
721.922095124877	3332
722.653477379231	3338.19995117188
723.384768603973	3340
724.11596880703	3339
724.847077996319	3369.19995117188
725.578096179762	3407.60009765625
726.309023365281	3411.80004882813
727.039859560792	3448.60009765625
727.770604774222	3449.19995117188
728.501259013484	3431.39990234375
729.231822286501	3454.19995117188
729.962294601191	3449.39990234375
730.692675965469	3417
731.42296638726	3359.60009765625
732.153165874472	3378.60009765625
732.883274435032	3396.60009765625
733.613292076851	3435
734.343218807843	3442.80004882813
735.07305463593	3460.80004882813
735.802799569028	3417.80004882813
736.532453615048	3388.19995117188
737.262016781904	3397
737.991489077517	3386
738.720870509794	3402.60009765625
739.450161086654	3378.80004882813
740.179360816009	3411.60009765625
740.908469705772	3420.19995117188
741.637487763854	3459.60009765625
742.366414998168	3465.39990234375
743.095251416623	3454.80004882813
743.823997027137	3449.39990234375
744.552651837618	3466.19995117188
745.281215855978	3472.19995117188
746.009689090124	3449.60009765625
746.738071547964	3421
747.466363237419	3418
748.194564166384	3419.39990234375
748.92267434278	3394.80004882813
749.650693774504	3399.39990234375
750.378622469476	3394.60009765625
751.106460435596	3413
751.834207680771	3429
752.561864212909	3435.39990234375
753.289430039919	3452.39990234375
754.016905169707	3414
754.744289610175	3425.60009765625
755.471583369231	3413
756.198786454782	3411
756.925898874728	3414.60009765625
757.652920636979	3394.60009765625
758.379851749433	3392.19995117188
759.106692219996	3441.60009765625
759.833442056572	3440
760.560101267063	3475.80004882813
761.28666985937	3505.39990234375
762.0131478414	3492.39990234375
762.739535221046	3495.60009765625
763.465832006219	3510.19995117188
764.192038204812	3525.39990234375
764.918153824731	3517
765.644178873872	3518
766.370113360138	3560
767.095957291425	3595.60009765625
767.821710675635	3649.39990234375
768.547373520665	3685.39990234375
769.272945834415	3709.39990234375
769.998427624781	3759.80004882813
770.723818899658	3766.80004882813
771.449119666949	3748
772.174329934546	3743
772.899449710347	3771.19995117188
773.624479002248	3772.39990234375
774.349417818145	3797.60009765625
775.074266165934	3795.39990234375
775.799024053505	3805.80004882813
776.523691488757	3797.60009765625
777.248268479582	3745.80004882813
777.972755033877	3677.19995117188
778.69715115953	3623.19995117188
779.421456864441	3611.19995117188
780.145672156493	3566.19995117188
780.869797043587	3517.80004882813
781.593831533611	3512.39990234375
782.317775634457	3518.19995117188
783.041629354012	3524.60009765625
783.765392700174	3483
784.489065680828	3469.39990234375
785.212648303866	3425.39990234375
785.936140577177	3422.60009765625
786.659542508652	3456.60009765625
787.382854106174	3490
788.106075377639	3474.39990234375
788.829206330928	3493
789.552246973933	3493
790.275197314542	3511.60009765625
790.998057360638	3497.80004882813
791.720827120108	3488
792.443506600841	3492.39990234375
793.166095810722	3503.19995117188
793.888594757635	3438
794.611003449465	3448.19995117188
795.333321894098	3449.19995117188
796.055550099417	3468.39990234375
796.777688073308	3499
797.499735823654	3473.39990234375
798.221693358334	3450.39990234375
798.943560685235	3435.39990234375
799.665337812239	3469
800.387024747226	3456.39990234375
801.108621498075	3482.80004882813
801.830128072674	3487.80004882813
802.551544478902	3498.60009765625
803.272870724636	3478.80004882813
803.994106817761	3485.80004882813
804.715252766148	3459.19995117188
805.436308577687	3479.80004882813
806.157274260251	3434.80004882813
806.878149821721	3435.80004882813
807.598935269973	3419.39990234375
808.319630612886	3394
809.040235858336	3367.19995117188
809.760751014202	3392
810.481176088361	3393.60009765625
811.201511088685	3382.60009765625
811.921756023059	3419.60009765625
812.641910899347	3382.39990234375
813.361975725432	3387.80004882813
814.081950509188	3367.60009765625
814.801835258489	3368.60009765625
815.521629981206	3407
816.241334685218	3391.60009765625
816.960949378392	3393.19995117188
817.680474068606	3403
818.399908763731	3385.60009765625
819.11925347164	3383.60009765625
819.838508200202	3376.39990234375
820.55767295729	3402.80004882813
821.276747750778	3392.60009765625
821.995732588531	3378.60009765625
822.714627478425	3385.80004882813
823.433432428327	3402.80004882813
824.152147446105	3397.19995117188
824.870772539632	3439.60009765625
825.589307716775	3440.60009765625
826.307752985404	3446.80004882813
827.026108353378	3455.60009765625
827.744373828579	3410
828.462549418867	3417.80004882813
829.180635132107	3439.60009765625
829.898630976168	3431.80004882813
830.616536958915	3450.60009765625
831.334353088218	3492.19995117188
832.052079371938	3481.80004882813
832.769715817942	3473.39990234375
833.487262434092	3464.80004882813
834.204719228255	3447.80004882813
834.922086208293	3429.60009765625
835.639363382073	3427.60009765625
836.356550757456	3459.60009765625
837.073648342304	3476
837.790656144484	3455.39990234375
838.507574171847	3478.60009765625
839.22440243227	3444
839.941140933601	3434.19995117188
840.657789683706	3397.19995117188
841.374348690448	3422
842.090817961686	3402.39990234375
842.807197505276	3425.60009765625
843.523487329083	3453.60009765625
844.23968744096	3432.60009765625
844.955797848771	3424.39990234375
845.671818560374	3443
846.387749583622	3453.19995117188
847.103590926378	3424.19995117188
847.819342596497	3409.80004882813
848.535004601833	3366.60009765625
849.25057695025	3363.39990234375
849.966059649598	3347
850.681452707735	3350.39990234375
851.396756132513	3350.39990234375
852.111969931789	3372
852.827094113419	3414.39990234375
853.542128685257	3401.39990234375
854.257073655158	3451.60009765625
854.971929030969	3467.80004882813
855.686694820551	3421.39990234375
856.40137103175	3388.19995117188
857.115957672423	3409.60009765625
857.830454750423	3396.80004882813
858.544862273597	3363.80004882813
859.259180249797	3414.80004882813
859.97340868688	3413.80004882813
860.687547592688	3464.39990234375
861.401596975075	3448.80004882813
862.115556841891	3483.80004882813
862.829427200985	3461.39990234375
863.543208060205	3473.60009765625
864.256899427402	3413.60009765625
864.970501310423	3396
865.684013717114	3392.80004882813
866.397436655325	3408.39990234375
867.110770132901	3397.60009765625
867.824014157691	3387.80004882813
868.537168737542	3392
869.250233880299	3388.39990234375
869.963209593803	3380.39990234375
870.676095885902	3377.80004882813
871.388892764445	3374.60009765625
872.101600237276	3367
872.814218312233	3359.39990234375
873.526746997165	3377.39990234375
874.239186299914	3389
874.951536228323	3388.19995117188
875.663796790231	3348.80004882813
876.375967993487	3342.39990234375
877.088049845928	3368
877.8000423554	3388.39990234375
878.511945529739	3368.60009765625
879.22375937679	3352.80004882813
879.935483904388	3337
880.64711912038	3363.39990234375
881.358665032604	3346
882.070121648892	3301
882.78148897709	3314
883.492767025039	3305.39990234375
884.203955800571	3311.60009765625
884.915055311525	3324.19995117188
885.626065565741	3312.80004882813
886.336986571053	3293.60009765625
887.047818335298	3277.60009765625
887.758560866315	3301.19995117188
888.469214171937	3287.19995117188
889.179778260005	3282.39990234375
889.890253138347	3293.39990234375
890.600638814803	3262.39990234375
891.310935297204	3242.19995117188
892.021142593385	3249.39990234375
892.731260711183	3274.80004882813
893.441289658429	3280.19995117188
894.15122944295	3302
894.861080072591	3315
895.570841555173	3331.80004882813
896.280513898534	3324.60009765625
896.990097110503	3345.39990234375
897.699591198913	3367.80004882813
898.408996171595	3370.60009765625
899.118312036375	3374
899.827538801089	3356.80004882813
900.536676473561	3380.60009765625
901.245725061628	3354.80004882813
901.954684573109	3346.19995117188
902.663555015838	3388.80004882813
903.372336397644	3414.80004882813
904.081028726351	3391.60009765625
904.789632009793	3433.19995117188
905.49814625579	3420
906.20657147217	3431.39990234375
906.914907666765	3416.19995117188
907.623154847391	3374.19995117188
908.331313021885	3388.80004882813
909.039382198064	3383.19995117188
909.747362383754	3379
910.455253586782	3396.60009765625
911.163055814972	3412.19995117188
911.870769076143	3409.39990234375
912.578393378126	3370.80004882813
913.285928728738	3372.19995117188
913.993375135802	3377.39990234375
914.700732607145	3371.80004882813
915.408001150579	3388.80004882813
916.115180773937	3390.60009765625
916.822271485037	3400.39990234375
917.529273291693	3430
918.236186201733	3377.80004882813
918.943010222971	3386.19995117188
919.649745363234	3397.60009765625
920.356391630333	3387
921.062949032096	3347.80004882813
921.769417576333	3358.19995117188
922.475797270864	3340
923.182088123512	3335
923.888290142089	3345.39990234375
924.594403334414	3386.80004882813
925.300427708304	3369
926.006363271572	3381.19995117188
926.712210032039	3395.80004882813
927.417967997522	3386.39990234375
928.123637175827	3393.60009765625
928.829217574776	3345
929.534709202184	3356.39990234375
930.240112065859	3360.19995117188
930.945426173621	3338.19995117188
931.650651533283	3326.80004882813
932.355788152653	3339
933.060836039547	3306.39990234375
933.765795201776	3318.19995117188
934.470665647153	3304.60009765625
935.175447383492	3298.19995117188
935.880140418599	3296
936.584744760286	3343
937.289260416366	3338
937.993687394647	3383.39990234375
938.698025702939	3375.80004882813
939.402275349051	3414.39990234375
940.106436340793	3436.80004882813
940.810508685976	3444.19995117188
941.5144923924	3395.19995117188
942.21838746788	3383.39990234375
942.922193920223	3370.19995117188
943.625911757231	3348.19995117188
944.329540986716	3351.19995117188
945.033081616484	3310.19995117188
945.736533654334	3284.60009765625
946.439897108083	3257.60009765625
947.143171985529	3275.60009765625
947.846358294477	3291.80004882813
948.549456042732	3293.39990234375
949.2524652381	3309.80004882813
949.955385888382	3301.19995117188
950.658218001384	3348.80004882813
951.360961584907	3350
952.063616646755	3320.19995117188
952.766183194733	3367.39990234375
953.468661236636	3358.19995117188
954.171050780271	3345.60009765625
954.873351833437	3342.80004882813
955.575564403935	3322.60009765625
956.277688499565	3309.80004882813
956.97972412813	3279.19995117188
957.681671297424	3271.60009765625
958.383530015255	3271.60009765625
959.085300289414	3280.39990234375
959.786982127703	3288.80004882813
960.488575537918	3274
961.190080527859	3276.39990234375
961.891497105327	3246.19995117188
962.592825278111	3237.80004882813
963.294065054012	3246.80004882813
963.995216440829	3263.39990234375
964.696279446353	3291.60009765625
965.397254078383	3273.60009765625
966.098140344714	3311.60009765625
966.798938253139	3294.80004882813
967.499647811456	3296.39990234375
968.200269027458	3278.80004882813
968.900801908937	3280.39990234375
969.601246463685	3252.19995117188
970.3016026995	3226.60009765625
971.001870624169	3247.39990234375
971.702050245491	3220
972.402141571249	3213.19995117188
973.102144609245	3239.39990234375
973.802059367267	3255.39990234375
974.501885853103	3267.60009765625
975.201624074541	3295.80004882813
975.901274039379	3339.19995117188
976.600835755399	3331
977.3003092304	3301.60009765625
977.999694472158	3269.19995117188
978.698991488473	3252.80004882813
979.39820028713	3250.19995117188
980.097320875915	3271
980.796353262618	3278.80004882813
981.495297455024	3291.19995117188
982.194153460919	3278.39990234375
982.892921288093	3313.80004882813
983.591600944331	3310.39990234375
984.290192437419	3293
984.98869577514	3304.60009765625
985.687110965282	3288.80004882813
986.385438015629	3258.80004882813
987.083676933961	3239.19995117188
987.781827728069	3224.19995117188
988.479890405732	3213.60009765625
989.177864974732	3221
989.875751442857	3266
990.573549817888	3261
991.271260107602	3273.60009765625
991.968882319786	3276
992.666416462217	3296.19995117188
993.363862542681	3256.80004882813
994.061220568959	3230
994.758490548823	3225.80004882813
995.455672490061	3212
996.152766400451	3264
996.849772287773	3249
997.5466901598	3253.60009765625
998.243520024317	3279.39990234375
998.940261889097	3263.80004882813
999.636915761923	3221.60009765625
1000.33348165057	3193.60009765625
1001.02995956281	3175.39990234375
1001.72634950643	3179.60009765625
1002.42265148919	3180.80004882813
1003.11886551889	3199.60009765625
1003.81499160328	3248.60009765625
1004.51102975015	3256.80004882813
1005.20697996727	3279.39990234375
1005.90284226242	3246
1006.59861664337	3250.19995117188
1007.2943031179	3287.19995117188
1007.98990169377	3280.80004882813
1008.68541237876	3282.39990234375
1009.38083518064	3306.39990234375
1010.07617010719	3307
1010.77141716617	3316
1011.46657636536	3311.80004882813
1012.16164771253	3287.60009765625
1012.85663121546	3251.60009765625
1013.5515268819	3268.19995117188
1014.24633471963	3224.60009765625
1014.94105473642	3237.39990234375
1015.63568694004	3225.60009765625
1016.33023133826	3254.19995117188
1017.02468793885	3250.19995117188
1017.71905674957	3265.60009765625
1018.41333777819	3234
1019.10753103249	3253.39990234375
1019.80163652022	3235.19995117188
1020.49565424916	3234.80004882813
1021.18958422707	3230.39990234375
1021.88342646171	3234.60009765625
1022.57718096085	3249.60009765625
1023.27084773227	3272.60009765625
1023.96442678371	3238.60009765625
1024.65791812296	3265.39990234375
1025.35132175776	3202.19995117188
1026.04463769589	3179.60009765625
1026.73786594511	3165
1027.43100651318	3162
1028.12405940786	3151
1028.81702463692	3149.80004882813
1029.50990220812	3141
1030.20269212921	3150.39990234375
1030.89539440798	3162.80004882813
1031.58800905216	3153
1032.28053606952	3128
1032.97297546784	3105.80004882813
1033.66532725485	3138.80004882813
1034.35759143832	3137.39990234375
1035.04976802602	3123.80004882813
1035.7418570257	3160.80004882813
1036.43385844511	3128
1037.12577229202	3127
1037.81759857419	3128.39990234375
1038.50933729937	3159.60009765625
1039.20098847531	3170.19995117188
1039.89255210978	3195.39990234375
1040.58402821053	3201.19995117188
1041.27541678532	3169
1041.96671784191	3149.19995117188
1042.65793138804	3140.19995117188
1043.34905743147	3183.19995117188
1044.04009597996	3169.39990234375
1044.73104704125	3205.80004882813
1045.42191062312	3184.39990234375
1046.1126867333	3198.60009765625
1046.80337537955	3215.39990234375
1047.49397656962	3205.60009765625
1048.18449031127	3177
1048.87491661225	3180.39990234375
1049.5652554803	3164.60009765625
1050.25550692319	3115.39990234375
1050.94567094865	3070.80004882813
1051.63574756444	3091.80004882813
1052.32573677832	3123.80004882813
1053.01563859803	3139.19995117188
1053.70545303131	3125.39990234375
1054.39518008592	3145
1055.08481976961	3117.39990234375
1055.77437209013	3090.80004882813
1056.46383705522	3127
1057.15321467262	3081.19995117188
1057.8425049501	3087.39990234375
1058.53170789539	3107
1059.22082351624	3065.39990234375
1059.9098518204	3084.39990234375
1060.59879281561	3058
1061.28764650962	3063.19995117188
1061.97641291016	3073.80004882813
1062.665092025	3123.39990234375
1063.35368386187	3116.19995117188
1064.04218842851	3127.19995117188
1064.73060573268	3079.39990234375
1065.4189357821	3068
1066.10717858452	3074.39990234375
1066.7953341477	3048.39990234375
1067.48340247936	3073
1068.17138358725	3035.80004882813
1068.85927747912	3046.80004882813
1069.5470841627	3085.39990234375
1070.23480364573	3114.60009765625
1070.92243593595	3120.19995117188
1071.60998104111	3104.19995117188
1072.29743896894	3103.39990234375
1072.98480972718	3067.39990234375
1073.67209332357	3107.19995117188
1074.35928976585	3099.39990234375
1075.04639906176	3099.39990234375
1075.73342121903	3143.39990234375
1076.42035624541	3161.60009765625
1077.10720414862	3173.60009765625
1077.79396493641	3197.19995117188
1078.48063861651	3175.60009765625
1079.16722519666	3134.39990234375
1079.85372468459	3120.39990234375
1080.54013708804	3102
1081.22646241474	3093.60009765625
1081.91270067243	3047.39990234375
1082.59885186884	3078.19995117188
1083.28491601171	3094.39990234375
1083.97089310877	3135.60009765625
1084.65678316774	3152.80004882813
1085.34258619637	3162
1086.02830220239	3165.80004882813
1086.71393119352	3151.80004882813
1087.39947317751	3139
1088.08492816207	3143.39990234375
1088.77029615495	3156.39990234375
1089.45557716387	3171
1090.14077119656	3152.60009765625
1090.82587826075	3152.19995117188
1091.51089836417	3129.80004882813
1092.19583151456	3133.60009765625
1092.88067771963	3129.19995117188
1093.56543698712	3095.60009765625
1094.25010932475	3072.39990234375
1094.93469474026	3074.39990234375
1095.61919324137	3100
1096.3036048358	3091.19995117188
1096.98792953129	3104.60009765625
1097.67216733555	3108.80004882813
1098.35631825632	3102.80004882813
1099.04038230132	3097.60009765625
1099.72435947828	3086.60009765625
1100.40824979492	3082.19995117188
1101.09205325895	3060
1101.77576987812	3061.19995117188
1102.45939966014	3015
1103.14294261273	3009.60009765625
1103.82639874362	2980.39990234375
1104.50976806054	2979
1105.19305057119	2991.60009765625
1105.87624628331	3040.39990234375
1106.55935520461	3085.80004882813
1107.24237734283	3086.80004882813
1107.92531270566	3093.39990234375
1108.60816130085	3131.19995117188
1109.2909231361	3100.60009765625
1109.97359821914	3122.80004882813
1110.65618655768	3125.39990234375
1111.33868815946	3139.60009765625
1112.02110303217	3135.60009765625
1112.70343118355	3181.80004882813
1113.3856726213	3156.39990234375
1114.06782735316	3185.19995117188
1114.74989538683	3127.39990234375
1115.43187673002	3104.19995117188
1116.11377139047	3054.80004882813
1116.79557937588	3058
1117.47730069397	3090.60009765625
1118.15893535245	3113.39990234375
1118.84048335904	3156.80004882813
1119.52194472146	3175
1120.20331944741	3157.19995117188
1120.88460754462	3129.39990234375
1121.56580902079	3114
1122.24692388364	3145
1122.92795214088	3126.19995117188
1123.60889380022	3117.80004882813
1124.28974886938	3171
1124.97051735606	3190
1125.65119926799	3188
1126.33179461286	3201.80004882813
1127.0123033984	3217.19995117188
1127.6927256323	3186
1128.37306132229	3207.39990234375
1129.05331047606	3180.60009765625
1129.73347310134	3154.60009765625
1130.41354920582	3171.19995117188
1131.09353879722	3138.39990234375
1131.77344188324	3138.39990234375
1132.45325847159	3164
1133.13298856999	3149.39990234375
1133.81263218612	3144.80004882813
1134.49218932772	3163
1135.17166000247	3111.19995117188
1135.85104421809	3111.19995117188
1136.53034198227	3067.19995117188
1137.20955330274	3037.39990234375
1137.88867818718	3016.39990234375
1138.56771664331	3027.19995117188
1139.24666867883	3076.80004882813
1139.92553430144	3081.80004882813
1140.60431351885	3121.39990234375
1141.28300633876	3091.80004882813
1141.96161276887	3110
1142.64013281689	3129.39990234375
1143.31856649051	3132
1143.99691379744	3092
1144.67517474538	3090.19995117188
1145.35334934203	3077.19995117188
1146.03143759509	3052.60009765625
1146.70943951226	3057
1147.38735510125	3021.39990234375
1148.06518436974	2998
1148.74292732545	2996.80004882813
1149.42058397606	2989.60009765625
1150.09815432928	2991
1150.7756383928	2997
1151.45303617432	3002.80004882813
1152.13034768155	3022.80004882813
1152.80757292217	3073
1153.48471190389	3107.60009765625
1154.16176463439	3085.19995117188
1154.83873112138	3093.80004882813
1155.51561137255	3057.60009765625
1156.1924053956	3083.60009765625
1156.86911319822	3078.39990234375
1157.5457347881	3056.80004882813
1158.22227017294	3092.60009765625
1158.89871936044	3095.80004882813
1159.57508235828	3083
1160.25135917416	3062
1160.92754981578	3025.80004882813
1161.60365429081	3043
1162.27967260697	3028.80004882813
1162.95560477193	3009
1163.63145079339	3020.19995117188
1164.30721067904	3026.80004882813
1164.98288443657	2992.60009765625
1165.65847207367	3010
1166.33397359803	3016.60009765625
1167.00938901735	3043.80004882813
1167.6847183393	3042.80004882813
1168.35996157157	3059.60009765625
1169.03511872187	3070
1169.71018979787	3047
1170.38517480726	3041.19995117188
1171.06007375773	3049.80004882813
1171.73488665696	3026
1172.40961351265	2987.39990234375
1173.08425433247	2991.60009765625
1173.75880912412	3001.39990234375
1174.43327789528	3017
1175.10766065364	3047.19995117188
1175.78195740687	3089.60009765625
1176.45616816267	3102.80004882813
1177.13029292871	3129.60009765625
1177.80433171269	3099.39990234375
1178.47828452229	3107
1179.15215136518	3080.60009765625
1179.82593224905	3072.19995117188
1180.49962718159	3071
1181.17323617047	3109.80004882813
1181.84675922337	3102
1182.52019634799	3135.19995117188
1183.193547552	3145
1183.86681284307	3108
1184.53999222889	3147.39990234375
1185.21308571714	3147
1185.8860933155	3159.80004882813
1186.55901503165	3131.60009765625
1187.23185087326	3121.19995117188
1187.90460084802	3127.39990234375
1188.5772649636	3113.60009765625
1189.24984322768	3112.39990234375
1189.92233564794	3123
1190.59474223206	3153.60009765625
1191.2670629877	3161.19995117188
1191.93929792255	3161.80004882813
1192.61144704428	3136
1193.28351036058	3133.80004882813
1193.9554878791	3121.19995117188
1194.62737960754	3089.80004882813
1195.29918555356	3103.80004882813
1195.97090572483	3105.19995117188
1196.64254012903	3134.80004882813
1197.31408877384	3130
1197.98555166693	3116.19995117188
1198.65692881596	3090.39990234375
1199.32822022862	3067
1199.99942591256	3078.60009765625
1200.67054587548	3048.19995117188
1201.34158012503	3039.19995117188
1202.01252866889	3046.39990234375
1202.68339151473	3030.80004882813
1203.35416867021	3011
1204.02486014301	2986.60009765625
1204.6954659408	2985.60009765625
1205.36598607124	3010
1206.03642054201	3046.19995117188
1206.70676936078	3043.19995117188
1207.3770325352	3024.80004882813
1208.04721007295	3033.80004882813
1208.7173019817	2991.80004882813
1209.38730826911	2982.39990234375
1210.05722894285	2990.19995117188
1210.72706401059	2976.19995117188
1211.39681347999	2968
1212.06647735872	2955.80004882813
1212.73605565444	2977
1213.40554837481	2963.80004882813
1214.07495552751	2952.60009765625
1214.74427712019	2987.60009765625
1215.41351316052	3009.80004882813
1216.08266365617	2995.39990234375
1216.75172861479	2975.60009765625
1217.42070804405	2972
1218.0896019516	2986.60009765625
1218.75841034513	2991.80004882813
1219.42713323227	2989.60009765625
1220.0957706207	3016.39990234375
1220.76432251808	3040.80004882813
1221.43278893207	3038.80004882813
1222.10116987032	3039.60009765625
1222.7694653405	3038
1223.43767535026	3017.19995117188
1224.10579990727	3036.39990234375
1224.77383901918	3027.60009765625
1225.44179269366	3008.39990234375
1226.10966093835	2999.80004882813
1226.77744376093	2971.60009765625
1227.44514116904	2973.39990234375
1228.11275317034	2991.39990234375
1228.78027977249	2985.60009765625
1229.44772098315	2960.39990234375
1230.11507680996	2962.19995117188
1230.7823472606	2952.19995117188
1231.44953234271	2935.60009765625
1232.11663206394	2949.19995117188
1232.78364643195	2955.80004882813
1233.4505754544	2954.19995117188
1234.11741913894	2935.60009765625
1234.78417749322	2929.80004882813
1235.45085052489	2944
1236.11743824162	2931.60009765625
1236.78394065104	2916.19995117188
1237.45035776082	2894.80004882813
1238.1166895786	2929.60009765625
1238.78293611204	2963.19995117188
1239.44909736878	2960.60009765625
1240.11517335648	2935
1240.78116408279	2947.39990234375
1241.44706955535	2933.39990234375
1242.11288978182	2927.60009765625
1242.77862476985	2914
1243.44427452708	2883
1244.10983906116	2867.60009765625
1244.77531837974	2866.60009765625
1245.44071249047	2887.39990234375
1246.106021401	2907.60009765625
1246.77124511898	2892
1247.43638365204	2920.60009765625
1248.10143700783	2942.60009765625
1248.76640519401	2939.80004882813
1249.43128821822	2924
1250.0960860881	2905
1250.76079881129	2897
1251.42542639545	2885.39990234375
1252.08996884822	2869.60009765625
1252.75442617723	2874
1253.41879839014	2892
1254.08308549458	2913.39990234375
1254.74728749821	2914.60009765625
1255.41140440866	2919.19995117188
1256.07543623357	2924.39990234375
1256.73938298059	2895.80004882813
1257.40324465735	2896.19995117188
1258.0670212715	2870.80004882813
1258.73071283068	2884
1259.39431934253	2888.39990234375
1260.05784081468	2915.39990234375
1260.72127725479	2928
1261.38462867049	2905.39990234375
1262.0478950694	2890.39990234375
1262.71107645919	2867.80004882813
1263.37417284748	2900.19995117188
1264.03718424191	2911.39990234375
1264.70011065011	2900.80004882813
1265.36295207974	2898.80004882813
1266.02570853841	2914.80004882813
1266.68838003378	2919.19995117188
1267.35096657346	2905.19995117188
1268.01346816511	2903.80004882813
1268.67588481636	2878
1269.33821653483	2856
1270.00046332817	2873
1270.66262520401	2900.19995117188
1271.32470216998	2898.19995117188
1271.98669423372	2889.19995117188
1272.64860140285	2860.39990234375
1273.31042368503	2853
1273.97216108786	2855.39990234375
1274.633813619	2872.80004882813
1275.29538128606	2891
1275.95686409669	2905.60009765625
1276.6182620585	2890.80004882813
1277.27957517914	2892.80004882813
1277.94080346624	2881
1278.60194692741	2867
1279.2630055703	2876.60009765625
1279.92397940253	2885
1280.58486843173	2895
1281.24567266552	2877
1281.90639211155	2853.60009765625
1282.56702677743	2857.19995117188
1283.2275766708	2868.39990234375
1283.88804179927	2848
1284.54842217049	2840.80004882813
1285.20871779206	2818.60009765625
1285.86892867163	2849.80004882813
1286.52905481681	2865
1287.18909623523	2879.60009765625
1287.84905293452	2876
1288.5089249223	2891
1289.16871220619	2903.39990234375
1289.82841479383	2893.80004882813
1290.48803269282	2909.80004882813
1291.1475659108	2924.19995117188
1291.80701445539	2892
1292.46637833421	2857.80004882813
1293.12565755489	2838.80004882813
1293.78485212504	2809.80004882813
1294.44396205229	2807.19995117188
1295.10298734425	2839.80004882813
1295.76192800856	2840.19995117188
1296.42078405283	2834
1297.07955548467	2877.19995117188
1297.73824231171	2869.60009765625
1298.39684454158	2881
1299.05536218188	2892.80004882813
1299.71379524023	2888.19995117188
1300.37214372427	2896.60009765625
1301.03040764159	2885.19995117188
1301.68858699983	2855.39990234375
1302.34668180659	2872
1303.0046920695	2876
1303.66261779617	2887.80004882813
1304.32045899422	2908.39990234375
1304.97821567126	2923.60009765625
1305.63588783492	2917.39990234375
1306.29347549279	2898.19995117188
1306.95097865251	2916
1307.60839732168	2932
1308.26573150791	2948
1308.92298121883	2957.60009765625
1309.58014646204	2920.60009765625
1310.23722724517	2941
1310.89422357581	2945.80004882813
1311.55113546158	2958
1312.2079629101	2951.39990234375
1312.86470592898	2979.19995117188
1313.52136452582	2955
1314.17793870824	2963.39990234375
1314.83442848386	2976.39990234375
1315.49083386027	2958.19995117188
1316.14715484509	2944.60009765625
1316.80339144594	2967.60009765625
1317.45954367041	2969.39990234375
1318.11561152611	2995.19995117188
1318.77159502067	2965.80004882813
1319.42749416168	2976.39990234375
1320.08330895674	2967.39990234375
1320.73903941348	2948.39990234375
1321.3946855395	2911.19995117188
1322.0502473424	2929
1322.70572482978	2921.39990234375
1323.36111800926	2917.39990234375
1324.01642688845	2921.19995117188
1324.67165147494	2929.60009765625
1325.32679177634	2938.19995117188
1325.98184780025	2916.60009765625
1326.63681955429	2900.19995117188
1327.29170704605	2880.39990234375
1327.94651028314	2836.60009765625
1328.60122927316	2836.80004882813
1329.25586402371	2842.80004882813
1329.9104145424	2845.19995117188
1330.56488083683	2831.60009765625
1331.2192629146	2844
1331.87356078331	2863.80004882813
1332.52777445056	2871.39990234375
1333.18190392395	2859.80004882813
1333.83594921109	2840.19995117188
1334.48991031958	2818.60009765625
1335.143787257	2804.39990234375
1335.79758003097	2812.39990234375
1336.45128864908	2827.80004882813
1337.10491311893	2828.80004882813
1337.75845344813	2836.39990234375
1338.41190964425	2833.19995117188
1339.06528171491	2830.39990234375
1339.71856966771	2803
1340.37177351023	2788.39990234375
1341.02489325007	2793.39990234375
1341.67792889484	2770
1342.33088045212	2723.60009765625
1342.98374792952	2728
1343.63653133462	2748.60009765625
1344.28923067503	2737.39990234375
1344.94184595833	2788.80004882813
1345.59437719212	2780.80004882813
1346.246824384	2815.19995117188
1346.89918754155	2843
1347.55146667238	2846.19995117188
1348.20366178407	2862
1348.85577288421	2843.39990234375
1349.50779998041	2848.19995117188
1350.15974308024	2837.60009765625
1350.8116021913	2837.80004882813
1351.46337732119	2851.39990234375
1352.11506847748	2845.19995117188
1352.76667566778	2857.60009765625
1353.41819889967	2866
1354.06963818074	2867.19995117188
1354.72099351858	2879.60009765625
1355.37226492079	2883.60009765625
1356.02345239494	2863.39990234375
1356.67455594862	2920.19995117188
1357.32557558943	2967
1357.97651132496	3010.19995117188
1358.62736316277	3041.39990234375
1359.27813111048	3084.80004882813
1359.92881517565	3111.60009765625
1360.57941536589	3125.80004882813
1361.22993168876	3138.80004882813
1361.88036415186	3159.39990234375
1362.53071276278	3163
1363.1809775291	3173.60009765625
1363.8311584584	3186.60009765625
1364.48125555826	3168.60009765625
1365.13126883627	3075.80004882813
1365.78119830001	3013.39990234375
1366.43104395707	2995
1367.08080581503	2967.19995117188
1367.73048388147	2921.60009765625
1368.38007816397	2905.39990234375
1369.02958867011	2880.39990234375
1369.67901540748	2883.39990234375
1370.32835838365	2874.80004882813
1370.9776176062	2861
1371.62679308273	2866
1372.27588482079	2872
1372.92489282798	2878.19995117188
1373.57381711188	2898.80004882813
1374.22265768006	2849.19995117188
1374.87141454009	2865.80004882813
1375.52008769957	2823.60009765625
1376.16867716606	2794.80004882813
1376.81718294715	2826
1377.4656050504	2779.60009765625
1378.1139434834	2787.19995117188
1378.76219825373	2799.60009765625
1379.41036936895	2787.60009765625
1380.05845683664	2776.39990234375
1380.70646066439	2776.80004882813
1381.35438085976	2785
1382.00221743032	2771.80004882813
1382.64997038366	2775.80004882813
1383.29763972735	2747.60009765625
1383.94522546895	2784.60009765625
1384.59272761605	2787
1385.24014617621	2807.60009765625
1385.88748115701	2767.80004882813
1386.53473256602	2760.19995117188
1387.18190041081	2749
1387.82898469895	2745.80004882813
1388.47598543802	2754.60009765625
1389.12290263558	2714.80004882813
1389.7697362992	2696
1390.41648643646	2705
1391.06315305492	2672.80004882813
1391.70973616215	2661
1392.35623576573	2678.19995117188
1393.00265187321	2675.19995117188
1393.64898449217	2691.19995117188
1394.29523363018	2701.80004882813
1394.94139929481	2705.60009765625
1395.58748149361	2714.19995117188
1396.23348023415	2700.80004882813
1396.87939552402	2654.80004882813
1397.52522737076	2614.60009765625
1398.17097578195	2573
1398.81664076514	2572.19995117188
1399.46222232792	2555
1400.10772047783	2537.19995117188
1400.75313522245	2543.39990234375
1401.39846656934	2550.60009765625
1402.04371452605	2593.19995117188
1402.68887910016	2614
1403.33396029924	2608.39990234375
1403.97895813083	2610.39990234375
1404.6238726025	2613
1405.26870372182	2622.80004882813
1405.91345149634	2621.39990234375
1406.55811593363	2607.19995117188
1407.20269704125	2619.19995117188
1407.84719482676	2595.60009765625
1408.49160929772	2588.19995117188
1409.13594046168	2618
1409.78018832622	2621.19995117188
1410.42435289887	2618.60009765625
1411.06843418722	2633.80004882813
1411.7124321988	2622.39990234375
1412.3563469412	2664.60009765625
1413.00017842194	2642.19995117188
1413.64392664861	2689.60009765625
1414.28759162875	2686.60009765625
1414.93117336992	2695.60009765625
1415.57467187967	2669.80004882813
1416.21808716557	2671.60009765625
1416.86141923516	2678.19995117188
1417.50466809601	2690
1418.14783375567	2675.60009765625
1418.79091622169	2693.19995117188
1419.43391550162	2678.60009765625
1420.07683160303	2673.80004882813
1420.71966453346	2657.60009765625
1421.36241430046	2673.39990234375
1422.0050809116	2677.60009765625
1422.64766437442	2706.60009765625
1423.29016469647	2704.60009765625
1423.93258188531	2735.19995117188
1424.57491594848	2727.19995117188
1425.21716689354	2713.60009765625
1425.85933472805	2720.19995117188
1426.50141945954	2698.80004882813
1427.14342109557	2712.80004882813
1427.78533964369	2687.80004882813
1428.42717511144	2682.80004882813
1429.06892750639	2662.60009765625
1429.71059683607	2631.60009765625
1430.35218310803	2621
1430.99368632983	2641
1431.635106509	2656.39990234375
1432.2764436531	2654.39990234375
1432.91769776967	2659.39990234375
1433.55886886627	2656.80004882813
1434.19995695043	2695.19995117188
1434.84096202969	2671.80004882813
1435.48188411162	2652.19995117188
1436.12272320375	2642.19995117188
1436.76347931363	2662.60009765625
1437.40415244879	2646
1438.0447426168	2636.19995117188
1438.68524982518	2636.60009765625
1439.32567408148	2643.60009765625
1439.96601539325	2619.60009765625
1440.60627376803	2595.80004882813
1441.24644921336	2602.39990234375
1441.88654173678	2599
1442.52655134583	2610.19995117188
1443.16647804806	2586.60009765625
1443.806321851	2611.60009765625
1444.4460827622	2616.19995117188
1445.0857607892	2613.80004882813
1445.72535593953	2582.80004882813
1446.36486822074	2579.19995117188
1447.00429764037	2577.39990234375
1447.64364420595	2572.80004882813
1448.28290792502	2570.80004882813
1448.92208880512	2569
1449.56118685379	2580.80004882813
1450.20020207857	2602
1450.83913448699	2595.80004882813
1451.47798408659	2611.19995117188
1452.1167508849	2618.80004882813
1452.75543488947	2606.19995117188
1453.39403610782	2597.39990234375
1454.0325545475	2572.39990234375
1454.67099021603	2591.60009765625
1455.30934312097	2608
1455.94761326982	2630.80004882813
1456.58580067014	2605.19995117188
1457.22390532945	2608
1457.86192725529	2587.60009765625
1458.49986645519	2596.60009765625
1459.13772293668	2606.39990234375
1459.7754967073	2580
1460.41318777457	2577.60009765625
1461.05079614604	2558
1461.68832182922	2563.39990234375
1462.32576483166	2540.60009765625
1462.96312516087	2553.80004882813
1463.6004028244	2558.19995117188
1464.23759782977	2578.60009765625
1464.8747101845	2604.60009765625
1465.51173989614	2603
1466.14868697221	2624.39990234375
1466.78555142024	2617.60009765625
1467.42233324774	2606.39990234375
1468.05903246227	2601.19995117188
1468.69564907133	2573.39990234375
1469.33218308246	2554.39990234375
1469.96863450317	2568
1470.60500334102	2577
1471.2412896035	2576.39990234375
1471.87749329816	2632.19995117188
1472.51361443251	2623.39990234375
1473.14965301409	2606.19995117188
1473.78560905041	2597
1474.421482549	2614.60009765625
1475.05727351739	2602.60009765625
1475.69298196309	2596.19995117188
1476.32860789364	2580.60009765625
1476.96415131654	2550.60009765625
1477.59961223934	2569.39990234375
1478.23499066954	2534.60009765625
1478.87028661467	2527.19995117188
1479.50550008226	2539.60009765625
1480.14063107981	2562.19995117188
1480.77567961486	2565.39990234375
1481.41064569492	2540.39990234375
1482.04552932752	2517.39990234375
1482.68033052017	2532.60009765625
1483.31504928039	2564.80004882813
1483.9496856157	2544.60009765625
1484.58423953363	2577.19995117188
1485.21871104168	2569.80004882813
1485.85310014738	2571.80004882813
1486.48740685824	2542
1487.12163118178	2549.19995117188
1487.75577312553	2557.60009765625
1488.38983269698	2560.80004882813
1489.02380990367	2553.39990234375
1489.65770475311	2555
1490.29151725281	2585.39990234375
1490.92524741029	2577.60009765625
1491.55889523306	2590.80004882813
1492.19246072863	2574.80004882813
1492.82594390453	2577
1493.45934476826	2570.80004882813
1494.09266332734	2585.19995117188
1494.72589958928	2596.19995117188
1495.3590535616	2618.19995117188
1495.99212525181	2588
1496.62511466741	2613.19995117188
1497.25802181592	2596.80004882813
1497.89084670485	2601.80004882813
1498.52358934172	2613.80004882813
1499.15624973403	2621.19995117188
1499.7888278893	2600.39990234375
1500.42132381503	2651.80004882813
1501.05373751873	2675.19995117188
1501.68606900792	2699.80004882813
1502.31831829009	2745.19995117188
1502.95048537277	2730.39990234375
1503.58257026346	2748.60009765625
1504.21457296966	2784.19995117188
1504.84649349889	2821.19995117188
1505.47833185864	2837.39990234375
1506.11008805644	2816.60009765625
1506.74176209978	2818.39990234375
1507.37335399617	2829.39990234375
1508.00486375312	2807.80004882813
1508.63629137813	2764.80004882813
1509.2676368787	2776.19995117188
1509.89890026235	2773.80004882813
1510.53008153658	2785.19995117188
1511.16118070889	2827
1511.79219778677	2802.60009765625
1512.42313277775	2788.80004882813
1513.05398568932	2779.39990234375
1513.68475652898	2774.80004882813
1514.31544530424	2782.19995117188
1514.9460520226	2755.19995117188
1515.57657669155	2738.39990234375
1516.20701931861	2690
1516.83737991127	2657.80004882813
1517.46765847702	2644
1518.09785502339	2632.39990234375
1518.72796955785	2631.80004882813
1519.35800208792	2649.39990234375
1519.98795262109	2644.19995117188
1520.61782116486	2617.60009765625
1521.24760772673	2628.39990234375
1521.87731231419	2632.39990234375
1522.50693493475	2619.60009765625
1523.1364755959	2596.80004882813
1523.76593430514	2592.19995117188
1524.39531106997	2597.80004882813
1525.02460589788	2573
1525.65381879637	2580
1526.28294977293	2556.19995117188
1526.91199883507	2526.19995117188
1527.54096599027	2514.39990234375
1528.16985124603	2511.39990234375
1528.79865460984	2492
1529.4273760892	2491.19995117188
1530.05601569161	2519
1530.68457342455	2519.19995117188
1531.31304929552	2553.60009765625
1531.94144331201	2543.39990234375
1532.56975548151	2552.19995117188
1533.19798581152	2550.19995117188
1533.82613430953	2564.80004882813
1534.45420098302	2569
1535.08218583949	2550.60009765625
1535.71008888643	2535.80004882813
1536.33791013134	2535.60009765625
1536.96564958169	2537.39990234375
1537.59330724498	2543
1538.22088312871	2526
1538.84837724034	2494.80004882813
1539.47578958739	2490.39990234375
1540.10312017733	2502.60009765625
1540.73036901765	2498.80004882813
1541.35753611584	2478.60009765625
1541.98462147939	2509.19995117188
1542.61162511578	2484.19995117188
1543.2385470325	2492
1543.86538723704	2500.19995117188
1544.49214573688	2491.80004882813
1545.11882253951	2487.19995117188
1545.74541765241	2503.39990234375
1546.37193108306	2518.60009765625
1546.99836283896	2520.80004882813
1547.62471292758	2493.39990234375
1548.25098135641	2498.80004882813
1548.87716813294	2460.60009765625
1549.50327326464	2466
1550.12929675899	2472.80004882813
1550.75523862349	2473.80004882813
1551.38109886561	2462.80004882813
1552.00687749284	2459.60009765625
1552.63257451264	2497.60009765625
1553.25818993252	2490.39990234375
1553.88372375994	2465.60009765625
1554.50917600239	2464.19995117188
1555.13454666734	2438
1555.75983576228	2437.19995117188
1556.38504329469	2423
1557.01016927204	2425.60009765625
1557.63521370181	2417.80004882813
1558.26017659149	2428.39990234375
1558.88505794854	2449.19995117188
1559.50985778045	2460.19995117188
1560.13457609469	2475.60009765625
1560.75921289874	2465
1561.38376820008	2454
1562.00824200618	2436.39990234375
1562.63263432452	2447.60009765625
1563.25694516257	2451.60009765625
1563.88117452781	2435
1564.50532242772	2427.60009765625
1565.12938886976	2432
1565.75337386141	2441.39990234375
1566.37727741015	2443.60009765625
1567.00109952345	2441
1567.62484020878	2449.39990234375
1568.24849947361	2476
1568.87207732542	2499.80004882813
1569.49557377168	2519.80004882813
1570.11898881986	2505
1570.74232247743	2513.39990234375
1571.36557475186	2521.60009765625
1571.98874565062	2525.80004882813
1572.61183518119	2549.60009765625
1573.23484335103	2570.19995117188
1573.85777016761	2597.60009765625
1574.4806156384	2586.80004882813
1575.10337977088	2591.60009765625
1575.7260625725	2596.60009765625
1576.34866405074	2570.80004882813
1576.97118421306	2568.39990234375
1577.59362306694	2587.80004882813
1578.21598061984	2558.39990234375
1578.83825687922	2575.19995117188
1579.46045185255	2544.19995117188
1580.08256554731	2542.39990234375
1580.70459797094	2519.19995117188
1581.32654913093	2510
1581.94841903473	2471.60009765625
1582.57020768981	2464.39990234375
1583.19191510364	2433.80004882813
1583.81354128367	2433
1584.43508623737	2442
1585.05654997221	2407.39990234375
1585.67793249564	2405.80004882813
1586.29923381514	2403
1586.92045393815	2383.39990234375
1587.54159287216	2372.39990234375
1588.1626506246	2384.80004882813
1588.78362720296	2391
1589.40452261468	2376.39990234375
1590.02533686724	2387.80004882813
1590.64606996808	2362.60009765625
1591.26672192467	2356.19995117188
1591.88729274447	2347.19995117188
1592.50778243493	2332
1593.12819100352	2335.80004882813
1593.7485184577	2345.19995117188
1594.36876480492	2333.60009765625
1594.98893005264	2342.39990234375
1595.60901420832	2316
1596.22901727941	2313
1596.84893927338	2336
1597.46878019767	2350
1598.08854005975	2356
1598.70821886707	2366
1599.32781662708	2388.80004882813
1599.94733334725	2392.80004882813
1600.56676903502	2375.19995117188
1601.18612369785	2353.80004882813
1601.8053973432	2345.19995117188
1602.42458997851	2327.19995117188
1603.04370161124	2302.19995117188
1603.66273224884	2307.60009765625
1604.28168189878	2296
1604.90055056849	2278.19995117188
1605.51933826543	2295.60009765625
1606.13804499705	2289.80004882813
1606.75667077081	2302.60009765625
1607.37521559415	2285.39990234375
1607.99367947452	2295
1608.61206241938	2309.39990234375
1609.23036443618	2309
1609.84858553236	2295.80004882813
1610.46672571537	2280.39990234375
1611.08478499267	2306.19995117188
1611.7027633717	2307
1612.3206608599	2309.39990234375
1612.93847746473	2285
1613.55621319364	2279.60009765625
1614.17386805407	2274.39990234375
1614.79144205347	2273.60009765625
1615.40893519928	2244.39990234375
1616.02634749895	2241.19995117188
1616.64367895993	2247.19995117188
1617.26092958966	2235.39990234375
1617.87809939559	2237.39990234375
1618.49518838516	2246.39990234375
1619.11219656582	2244.39990234375
1619.729123945	2241.39990234375
1620.34597053016	2236.80004882813
1620.96273632874	2256
1621.57942134818	2241
1622.19602559592	2237.19995117188
1622.8125490794	2239.19995117188
1623.42899180607	2224
1624.04535378337	2221
1624.66163501874	2240.80004882813
1625.27783551963	2243.80004882813
1625.89395529346	2240.80004882813
1626.50999434768	2218.19995117188
1627.12595268974	2218.19995117188
1627.74183032707	2195.60009765625
1628.3576272671	2180.39990234375
1628.97334351729	2173.80004882813
1629.58897908506	2192.19995117188
1630.20453397786	2185.60009765625
1630.82000820313	2181.39990234375
1631.43540176829	2207.19995117188
1632.05071468079	2218.39990234375
1632.66594694807	2206.39990234375
1633.28109857756	2209.80004882813
1633.8961695767	2221
1634.51115995292	2207.80004882813
1635.12606971366	2219.19995117188
1635.74089886636	2192.39990234375
1636.35564741844	2204
1636.97031537734	2218.39990234375
1637.58490275051	2214
1638.19940954536	2223.60009765625
1638.81383576934	2221.60009765625
1639.42818142987	2239.80004882813
1640.0424465344	2255.60009765625
1640.65663109034	2254.39990234375
1641.27073510515	2256.60009765625
1641.88475858623	2262.39990234375
1642.49870154104	2282
1643.11256397699	2267.80004882813
1643.72634590152	2267.39990234375
1644.34004732206	2278.60009765625
1644.95366824604	2306.60009765625
1645.56720868089	2320.60009765625
1646.18066863404	2334.19995117188
1646.79404811291	2327.60009765625
1647.40734712494	2333.39990234375
1648.02056567755	2343.60009765625
1648.63370377817	2350.60009765625
1649.24676143423	2340.60009765625
1649.85973865316	2361.39990234375
1650.47263544238	2364
1651.08545180932	2359.39990234375
1651.6981877614	2347.19995117188
1652.31084330606	2357.39990234375
1652.92341845071	2324.39990234375
1653.53591320278	2295.60009765625
1654.1483275697	2282.80004882813
1654.7606615589	2277
1655.37291517778	2240.80004882813
1655.98508843379	2218.80004882813
1656.59718133434	2215.60009765625
1657.20919388685	2221.39990234375
1657.82112609875	2210.39990234375
1658.43297797747	2194.39990234375
1659.04474953041	2189.19995117188
1659.65644076501	2182.80004882813
1660.26805168869	2172.19995117188
1660.87958230886	2146.60009765625
1661.49103263294	2142
1662.10240266837	2115.80004882813
1662.71369242255	2123.19995117188
1663.32490190291	2107.19995117188
1663.93603111687	2106.39990234375
1664.54708007184	2120
1665.15804877524	2100.80004882813
1665.7689372345	2134.19995117188
1666.37974545703	2127.80004882813
1666.99047345024	2144.19995117188
1667.60112122156	2106.19995117188
1668.2116887784	2097
1668.82217612818	2072.39990234375
1669.43258327831	2057.19995117188
1670.04291023622	2012.19995117188
1670.65315700931	2022.19995117188
1671.263323605	1984.80004882813
1671.8734100307	1978.40002441406
1672.48341629384	1962.80004882813
1673.09334240182	1994
1673.70318836206	1992.19995117188
1674.31295418197	1970.80004882813
1674.92263986896	1991.59997558594
1675.53224543046	1977
1676.14177087386	1980.19995117188
1676.75121620658	1987
1677.36058143604	1970
1677.96986656964	2005.40002441406
1678.5790716148	1996
1679.18819657892	2021.80004882813
1679.79724146943	2028.19995117188
1680.40620629372	2047.59997558594
1681.0150910592	2052
1681.6238957733	2068.39990234375
1682.23262044341	2053
1682.84126507694	2042
1683.4498296813	2062.39990234375
1684.0583142639	2060.80004882813
1684.66671883216	2048.60009765625
1685.27504339346	2042.40002441406
1685.88328795523	2035.19995117188
1686.49145252487	2038.40002441406
1687.09953710978	1999.19995117188
1687.70754171737	2030
1688.31546635505	2017.80004882813
1688.92331103021	2045
1689.53107575028	2049.80004882813
1690.13876052265	2027
1690.74636535472	2039.59997558594
1691.3538902539	2018.19995117188
1691.96133522759	2007
1692.5687002832	2001.80004882813
1693.17598542812	1978
1693.78319066977	1952
1694.39031601554	1963.40002441406
1694.99736147283	1934.19995117188
1695.60432704905	1957
1696.2112127516	1991.40002441406
1696.81801858788	1999.59997558594
1697.42474456528	2012.80004882813
1698.03139069121	2008.19995117188
1698.63795697307	1999.19995117188
1699.24444341826	1999.80004882813
1699.85085003417	1972.59997558594
1700.45717682821	1977
1701.06342380778	1971
1701.66959098026	1965
1702.27567835307	1981.40002441406
1702.88168593359	1958
1703.48761372922	1927.19995117188
1704.09346174737	1917.59997558594
1704.69922999542	1925
1705.30491848077	1932.59997558594
1705.91052721083	1930.80004882813
1706.51605619297	1931.59997558594
1707.12150543461	1919.40002441406
1707.72687494312	1930.80004882813
1708.33216472592	1909.80004882813
1708.93737479039	1898
1709.54250514392	1884.59997558594
