634.977642221345	3984.80004882813
635.719821695905	3946.60009765625
636.461909203392	3975.80004882813
637.203904751776	3968.60009765625
637.945808349023	3985.19995117188
638.687620003102	4051
639.42933972198	4097.39990234375
640.170967513616	4056.39990234375
640.912503385981	3999
641.653947347041	3996.60009765625
642.395299404758	3952.39990234375
643.13655956709	3914.19995117188
643.877727842014	3824.80004882813
644.61880423748	3825.80004882813
645.359788761455	3816.39990234375
646.100681421905	3884.60009765625
646.841482226789	3922.80004882813
647.582191184074	3955
648.322808301711	3941
649.06333358767	3927.19995117188
649.803767049909	3938.39990234375
650.544108696385	3973.80004882813
651.28435853506	4018.60009765625
652.024516573894	4060.39990234375
652.764582820849	4071.80004882813
653.504557283875	4120.2001953125
654.244439970937	4136.2001953125
654.984230889991	4155
655.723930048995	4171.39990234375
656.463537455909	4181.2001953125
657.203053118683	4201.2001953125
657.942477045275	4220
658.681809243647	4194.60009765625
659.421049721747	4116
660.160198487535	4129.2001953125
660.899255548962	4158.2001953125
661.638220913985	4209
662.377094590559	4261
663.115876586631	4252
663.854566910165	4214.2001953125
664.593165569107	4189
665.331672571406	4210.7998046875
666.07008792502	4182.7998046875
666.808411637902	4161
667.546643717996	4114.7998046875
668.284784173258	4125.7998046875
669.022833011641	4119.60009765625
669.760790241089	4133
670.498655869554	4089.80004882813
671.236429904987	4077.80004882813
671.97411235534	4074.60009765625
672.711703228551	4185
673.449202532577	4220
674.186610275364	4297.7998046875
674.923926464857	4338.60009765625
675.661151109008	4333.39990234375
676.398284215759	4342.7998046875
677.135325793058	4327.7998046875
677.87227584885	4365.7998046875
678.609134391082	4396
679.345901427696	4411.60009765625
680.082576966644	4405.60009765625
680.819161015861	4408.39990234375
681.555653583298	4362.39990234375
682.292054676895	4325.39990234375
683.028364304594	4282.2001953125
683.764582474344	4246.60009765625
684.500709194083	4245.7998046875
685.236744471752	4226.39990234375
685.972688315294	4216.7998046875
686.708540732652	4234.2001953125
687.444301731762	4254.2001953125
688.179971320572	4244.39990234375
688.915549507013	4263.39990234375
689.651036299034	4169.7998046875
690.386431704569	4091.80004882813
691.121735731559	4086.19995117188
691.85694838794	4067.39990234375
692.592069681652	4078.39990234375
693.327099620632	4067.19995117188
694.062038212821	4090.80004882813
694.796885466149	4176.7998046875
695.531641388561	4214
696.266305987987	4295.39990234375
697.000879272367	4322.60009765625
697.735361249632	4363.60009765625
698.469751927722	4364.39990234375
699.204051314568	4365.39990234375
699.938259418107	4281.60009765625
700.672376246272	4304.2001953125
701.406401806997	4315
702.140336108212	4303.7998046875
702.874179157855	4303.2001953125
703.607930963856	4313.2001953125
704.341591534147	4288.39990234375
705.07516087666	4285
705.808638999324	4316.2001953125
706.542025910073	4341.7998046875
707.275321616841	4335.2001953125
708.008526127549	4304.60009765625
708.741639450132	4298.39990234375
709.474661592521	4328.7998046875
710.207592562641	4314.39990234375
710.940432368424	4335.39990234375
711.673181017796	4376.39990234375
712.405838518687	4366
713.138404879025	4347.2001953125
713.870880106731	4325.60009765625
714.603264209738	4327
715.335557195971	4373.39990234375
716.067759073357	4361.39990234375
716.799869849816	4387.7998046875
717.531889533281	4405.2001953125
718.263818131673	4425.39990234375
718.995655652917	4413.60009765625
719.727402104934	4372.2001953125
720.45905749565	4348.39990234375
721.19062183299	4320.39990234375
721.922095124877	4266.7998046875
722.653477379231	4290.60009765625
723.384768603973	4306.60009765625
724.11596880703	4304
724.847077996319	4326.2001953125
725.578096179762	4336
726.309023365281	4357.2001953125
727.039859560792	4328.39990234375
727.770604774222	4333.39990234375
728.501259013484	4361.7998046875
729.231822286501	4407.39990234375
729.962294601191	4446.2001953125
730.692675965469	4391.60009765625
731.42296638726	4331
732.153165874472	4338.39990234375
732.883274435032	4366.2001953125
733.613292076851	4396
734.343218807843	4430.7998046875
735.07305463593	4431.2001953125
735.802799569028	4408.2001953125
736.532453615048	4357.2001953125
737.262016781904	4326.7998046875
737.991489077517	4369.60009765625
738.720870509794	4370.60009765625
739.450161086654	4355.60009765625
740.179360816009	4390.7998046875
740.908469705772	4444.60009765625
741.637487763854	4500
742.366414998168	4496.7998046875
743.095251416623	4511.60009765625
743.823997027137	4493.39990234375
744.552651837618	4506.2001953125
745.281215855978	4487.39990234375
746.009689090124	4430.60009765625
746.738071547964	4385.39990234375
747.466363237419	4343.60009765625
748.194564166384	4311.7998046875
748.92267434278	4349.2001953125
749.650693774504	4367.7998046875
750.378622469476	4382.7998046875
751.106460435596	4396.39990234375
751.834207680771	4419.60009765625
752.561864212909	4441
753.289430039919	4460.7998046875
754.016905169707	4433.39990234375
754.744289610175	4428.60009765625
755.471583369231	4408.39990234375
756.198786454782	4443.2001953125
756.925898874728	4442.2001953125
757.652920636979	4410.2001953125
758.379851749433	4385
759.106692219996	4450
759.833442056572	4540.2001953125
760.560101267063	4583
761.28666985937	4596.39990234375
762.0131478414	4572.2001953125
762.739535221046	4558.39990234375
763.465832006219	4588
764.192038204812	4623.39990234375
764.918153824731	4588
765.644178873872	4624.2001953125
766.370113360138	4716.39990234375
767.095957291425	4792
767.821710675635	4862.60009765625
768.547373520665	4922.60009765625
769.272945834415	4994.60009765625
769.998427624781	5064.7998046875
770.723818899658	5139
771.449119666949	5152.7998046875
772.174329934546	5159.7998046875
772.899449710347	5198
773.624479002248	5259.39990234375
774.349417818145	5207.2001953125
775.074266165934	5219.7998046875
775.799024053505	5204
776.523691488757	5202.7998046875
777.248268479582	5056.7998046875
777.972755033877	4944
778.69715115953	4837
779.421456864441	4815.7998046875
780.145672156493	4747
780.869797043587	4739.7998046875
781.593831533611	4747
782.317775634457	4730
783.041629354012	4665
783.765392700174	4603.2001953125
784.489065680828	4551
785.212648303866	4490.39990234375
785.936140577177	4475.39990234375
786.659542508652	4484.7998046875
787.382854106174	4475.2001953125
788.106075377639	4513.60009765625
788.829206330928	4537
789.552246973933	4569
790.275197314542	4614.60009765625
790.998057360638	4602.39990234375
791.720827120108	4621.2001953125
792.443506600841	4615.39990234375
793.166095810722	4556.2001953125
793.888594757635	4497
794.611003449465	4490.2001953125
795.333321894098	4533.7998046875
796.055550099417	4588.60009765625
796.777688073308	4646.7998046875
797.499735823654	4646
798.221693358334	4599.39990234375
798.943560685235	4570
799.665337812239	4572.2001953125
800.387024747226	4593.2001953125
801.108621498075	4566.60009765625
801.830128072674	4574.39990234375
802.551544478902	4594.7998046875
803.272870724636	4590.2001953125
803.994106817761	4607.7998046875
804.715252766148	4631
805.436308577687	4589.2001953125
806.157274260251	4554
806.878149821721	4548.39990234375
807.598935269973	4519.7998046875
808.319630612886	4480.7998046875
809.040235858336	4474
809.760751014202	4510.7998046875
810.481176088361	4551
811.201511088685	4538.39990234375
811.921756023059	4536
812.641910899347	4484.39990234375
813.361975725432	4500.2001953125
814.081950509188	4466.60009765625
814.801835258489	4490
815.521629981206	4477.2001953125
816.241334685218	4470.39990234375
816.960949378392	4466.2001953125
817.680474068606	4497.60009765625
818.399908763731	4517.39990234375
819.11925347164	4487.60009765625
819.838508200202	4476.39990234375
820.55767295729	4452.7998046875
821.276747750778	4390.7998046875
821.995732588531	4412.7998046875
822.714627478425	4418.60009765625
823.433432428327	4430.39990234375
824.152147446105	4452.2001953125
824.870772539632	4520.60009765625
825.589307716775	4541.2001953125
826.307752985404	4586.2001953125
827.026108353378	4569.60009765625
827.744373828579	4569.39990234375
828.462549418867	4564.7998046875
829.180635132107	4529
829.898630976168	4563.2001953125
830.616536958915	4593.60009765625
831.334353088218	4631.60009765625
832.052079371938	4603.39990234375
832.769715817942	4625.7998046875
833.487262434092	4587.39990234375
834.204719228255	4585.39990234375
834.922086208293	4530.7998046875
835.639363382073	4541.2001953125
836.356550757456	4558.60009765625
837.073648342304	4545.7998046875
837.790656144484	4536.60009765625
838.507574171847	4549.60009765625
839.22440243227	4519.7998046875
839.941140933601	4495.60009765625
840.657789683706	4499
841.374348690448	4484.7998046875
842.090817961686	4489.60009765625
842.807197505276	4529.60009765625
843.523487329083	4516.7998046875
844.23968744096	4549.7998046875
844.955797848771	4522.39990234375
845.671818560374	4488
846.387749583622	4480.39990234375
847.103590926378	4475.2001953125
847.819342596497	4442.2001953125
848.535004601833	4450.2001953125
849.25057695025	4433.39990234375
849.966059649598	4419
850.681452707735	4411.39990234375
851.396756132513	4449.39990234375
852.111969931789	4503.2001953125
852.827094113419	4490.2001953125
853.542128685257	4527.60009765625
854.257073655158	4589
854.971929030969	4596.2001953125
855.686694820551	4588.39990234375
856.40137103175	4565.60009765625
857.115957672423	4555
857.830454750423	4558.60009765625
858.544862273597	4551.39990234375
859.259180249797	4535.7998046875
859.97340868688	4596
860.687547592688	4605
861.401596975075	4605.7998046875
862.115556841891	4642.60009765625
862.829427200985	4640
863.543208060205	4635.7998046875
864.256899427402	4553.2001953125
864.970501310423	4517.39990234375
865.684013717114	4526
866.397436655325	4496
867.110770132901	4505.7998046875
867.824014157691	4442
868.537168737542	4449.2001953125
869.250233880299	4493.39990234375
869.963209593803	4479.39990234375
870.676095885902	4483
871.388892764445	4479.60009765625
872.101600237276	4461.60009765625
872.814218312233	4469.60009765625
873.526746997165	4494
874.239186299914	4506.2001953125
874.951536228323	4536.60009765625
875.663796790231	4526.60009765625
876.375967993487	4504.7998046875
877.088049845928	4503
877.8000423554	4481
878.511945529739	4451.60009765625
879.22375937679	4450.2001953125
879.935483904388	4410.60009765625
880.64711912038	4422.60009765625
881.358665032604	4424.7998046875
882.070121648892	4418.60009765625
882.78148897709	4429
883.492767025039	4417.2001953125
884.203955800571	4459
884.915055311525	4463.7998046875
885.626065565741	4449
886.336986571053	4481.39990234375
887.047818335298	4466
887.758560866315	4446.7998046875
888.469214171937	4440.39990234375
889.179778260005	4428.7998046875
889.890253138347	4390
890.600638814803	4358
891.310935297204	4344.7998046875
892.021142593385	4366.7998046875
892.731260711183	4382
893.441289658429	4413
894.15122944295	4429.7998046875
894.861080072591	4419.7998046875
895.570841555173	4454.60009765625
896.280513898534	4458.39990234375
896.990097110503	4504.7998046875
897.699591198913	4553.7998046875
898.408996171595	4558.7998046875
899.118312036375	4572
899.827538801089	4580.2001953125
900.536676473561	4560.7998046875
901.245725061628	4514.7998046875
901.954684573109	4581.60009765625
902.663555015838	4613.39990234375
903.372336397644	4600.7998046875
904.081028726351	4619
904.789632009793	4624.39990234375
905.49814625579	4658.7998046875
906.20657147217	4652.7998046875
906.914907666765	4598.60009765625
907.623154847391	4554.2001953125
908.331313021885	4586.7998046875
909.039382198064	4558.39990234375
909.747362383754	4550.39990234375
910.455253586782	4570.7998046875
911.163055814972	4592.60009765625
911.870769076143	4588.60009765625
912.578393378126	4545.60009765625
913.285928728738	4536.60009765625
913.993375135802	4552.7998046875
914.700732607145	4588.39990234375
915.408001150579	4567.7998046875
916.115180773937	4608.7998046875
916.822271485037	4618.39990234375
917.529273291693	4639.7998046875
918.236186201733	4618
918.943010222971	4608
919.649745363234	4616.2001953125
920.356391630333	4603.2001953125
921.062949032096	4523
921.769417576333	4522
922.475797270864	4487.39990234375
923.182088123512	4545.7998046875
923.888290142089	4557.2001953125
924.594403334414	4585.2001953125
925.300427708304	4601.2001953125
926.006363271572	4632.39990234375
926.712210032039	4642.60009765625
927.417967997522	4630.60009765625
928.123637175827	4615
928.829217574776	4600.39990234375
929.534709202184	4617.39990234375
930.240112065859	4593
930.945426173621	4571.60009765625
931.650651533283	4585.39990234375
932.355788152653	4553.7998046875
933.060836039547	4528.60009765625
933.765795201776	4561.39990234375
934.470665647153	4519.60009765625
935.175447383492	4523.2001953125
935.880140418599	4507.39990234375
936.584744760286	4491.2001953125
937.289260416366	4540
937.993687394647	4586.2001953125
938.698025702939	4597.2001953125
939.402275349051	4611.60009765625
940.106436340793	4671.60009765625
940.810508685976	4682
941.5144923924	4648.60009765625
942.21838746788	4618
942.922193920223	4592.7998046875
943.625911757231	4550.2001953125
944.329540986716	4520.7998046875
945.033081616484	4485.7998046875
945.736533654334	4441.2001953125
946.439897108083	4464.2001953125
947.143171985529	4447.7998046875
947.846358294477	4384.60009765625
948.549456042732	4421
949.2524652381	4449.60009765625
949.955385888382	4483.60009765625
950.658218001384	4542.39990234375
951.360961584907	4562.7998046875
952.063616646755	4559.7998046875
952.766183194733	4549.60009765625
953.468661236636	4548.39990234375
954.171050780271	4554.2001953125
954.873351833437	4572
955.575564403935	4541.39990234375
956.277688499565	4528
956.97972412813	4483.60009765625
957.681671297424	4508.60009765625
958.383530015255	4497.60009765625
959.085300289414	4492.7998046875
959.786982127703	4497.60009765625
960.488575537918	4472.39990234375
961.190080527859	4431.2001953125
961.891497105327	4413.7998046875
962.592825278111	4406.39990234375
963.294065054012	4417.2001953125
963.995216440829	4452.2001953125
964.696279446353	4476.2001953125
965.397254078383	4506.60009765625
966.098140344714	4490
966.798938253139	4488
967.499647811456	4455
968.200269027458	4449.2001953125
968.900801908937	4440
969.601246463685	4408.39990234375
970.3016026995	4358.60009765625
971.001870624169	4368.39990234375
971.702050245491	4352.60009765625
972.402141571249	4344.2001953125
973.102144609245	4353.7998046875
973.802059367267	4381.60009765625
974.501885853103	4421.2001953125
975.201624074541	4444.7998046875
975.901274039379	4482.2001953125
976.600835755399	4500
977.3003092304	4479.60009765625
977.999694472158	4478.7998046875
978.698991488473	4481.60009765625
979.39820028713	4480.39990234375
980.097320875915	4464.60009765625
980.796353262618	4518.7998046875
981.495297455024	4562
982.194153460919	4586
982.892921288093	4582.39990234375
983.591600944331	4557
984.290192437419	4552.39990234375
984.98869577514	4512.2001953125
985.687110965282	4514.2001953125
986.385438015629	4506
987.083676933961	4460
987.781827728069	4432.7998046875
988.479890405732	4437.2001953125
989.177864974732	4447.60009765625
989.875751442857	4457.7998046875
990.573549817888	4501
991.271260107602	4522.60009765625
991.968882319786	4541.39990234375
992.666416462217	4532.7998046875
993.363862542681	4455
994.061220568959	4406
994.758490548823	4382
995.455672490061	4374.60009765625
996.152766400451	4408.60009765625
996.849772287773	4443.39990234375
997.5466901598	4451.2001953125
998.243520024317	4478.39990234375
998.940261889097	4425.2001953125
999.636915761923	4387.60009765625
1000.33348165057	4349.39990234375
1001.02995956281	4314.39990234375
1001.72634950643	4339
1002.42265148919	4338.2001953125
1003.11886551889	4395.39990234375
1003.81499160328	4434.39990234375
1004.51102975015	4481
1005.20697996727	4527.60009765625
1005.90284226242	4496.2001953125
1006.59861664337	4485.39990234375
1007.2943031179	4486.2001953125
1007.98990169377	4522.2001953125
1008.68541237876	4562.39990234375
1009.38083518064	4614
1010.07617010719	4640.60009765625
1010.77141716617	4623.2001953125
1011.46657636536	4620.7998046875
1012.16164771253	4554.39990234375
1012.85663121546	4536.2001953125
1013.5515268819	4479.7998046875
1014.24633471963	4444.2001953125
1014.94105473642	4451.2001953125
1015.63568694004	4470.7998046875
1016.33023133826	4484
1017.02468793885	4513.60009765625
1017.71905674957	4546.2001953125
1018.41333777819	4510
1019.10753103249	4498.7998046875
1019.80163652022	4487.2001953125
1020.49565424916	4544
1021.18958422707	4503.7998046875
1021.88342646171	4498.2001953125
1022.57718096085	4475.60009765625
1023.27084773227	4522.39990234375
1023.96442678371	4502.39990234375
1024.65791812296	4462.7998046875
1025.35132175776	4384.39990234375
1026.04463769589	4340
1026.73786594511	4299.7998046875
1027.43100651318	4320.7998046875
1028.12405940786	4318.7998046875
1028.81702463692	4315.60009765625
1029.50990220812	4364.39990234375
1030.20269212921	4371
1030.89539440798	4371
1031.58800905216	4337.2001953125
1032.28053606952	4273
1032.97297546784	4252.39990234375
1033.66532725485	4307.2001953125
1034.35759143832	4331
1035.04976802602	4332
1035.7418570257	4364
1036.43385844511	4347.60009765625
1037.12577229202	4342.2001953125
1037.81759857419	4354.39990234375
1038.50933729937	4390.2001953125
1039.20098847531	4409.60009765625
1039.89255210978	4475.7998046875
1040.58402821053	4471.2001953125
1041.27541678532	4457.2001953125
1041.96671784191	4370.39990234375
1042.65793138804	4375
1043.34905743147	4411.39990234375
1044.04009597996	4454.7998046875
1044.73104704125	4503.7998046875
1045.42191062312	4505.2001953125
1046.1126867333	4486.7998046875
1046.80337537955	4530.60009765625
1047.49397656962	4502.2001953125
1048.18449031127	4474.60009765625
1048.87491661225	4460.7998046875
1049.5652554803	4404.60009765625
1050.25550692319	4353.2001953125
1050.94567094865	4315.7998046875
1051.63574756444	4309.2001953125
1052.32573677832	4411
1053.01563859803	4386.60009765625
1053.70545303131	4407.7998046875
1054.39518008592	4354.7998046875
1055.08481976961	4405.60009765625
1055.77437209013	4384.2001953125
1056.46383705522	4389.7998046875
1057.15321467262	4393.39990234375
1057.8425049501	4396
1058.53170789539	4323.2001953125
1059.22082351624	4321.7998046875
1059.9098518204	4268.2001953125
1060.59879281561	4278.39990234375
1061.28764650962	4299.39990234375
1061.97641291016	4301.60009765625
1062.665092025	4322.7998046875
1063.35368386187	4345.60009765625
1064.04218842851	4285
1064.73060573268	4226.60009765625
1065.4189357821	4238.2001953125
1066.10717858452	4234.7998046875
1066.7953341477	4241.7998046875
1067.48340247936	4204.60009765625
1068.17138358725	4214.60009765625
1068.85927747912	4231.39990234375
1069.5470841627	4309.2001953125
1070.23480364573	4320.2001953125
1070.92243593595	4365.2001953125
1071.60998104111	4365
1072.29743896894	4371.39990234375
1072.98480972718	4361.39990234375
1073.67209332357	4371.2001953125
1074.35928976585	4347.7998046875
1075.04639906176	4368.39990234375
1075.73342121903	4406.7998046875
1076.42035624541	4394.39990234375
1077.10720414862	4433.39990234375
1077.79396493641	4436.2001953125
1078.48063861651	4425.7998046875
1079.16722519666	4415.60009765625
1079.85372468459	4384.7998046875
1080.54013708804	4366.39990234375
1081.22646241474	4352.39990234375
1081.91270067243	4318.7998046875
1082.59885186884	4369.2001953125
1083.28491601171	4389.2001953125
1083.97089310877	4428.7998046875
1084.65678316774	4447.2001953125
1085.34258619637	4461.7998046875
1086.02830220239	4493.39990234375
1086.71393119352	4459.60009765625
1087.39947317751	4454
1088.08492816207	4475.7998046875
1088.77029615495	4487.60009765625
1089.45557716387	4505
1090.14077119656	4498.7998046875
1090.82587826075	4469
1091.51089836417	4442.7998046875
1092.19583151456	4428.7998046875
1092.88067771963	4425.60009765625
1093.56543698712	4393.7998046875
1094.25010932475	4384.2001953125
1094.93469474026	4364.39990234375
1095.61919324137	4366.39990234375
1096.3036048358	4352
1096.98792953129	4344.7998046875
1097.67216733555	4381.39990234375
1098.35631825632	4365.39990234375
1099.04038230132	4357.2001953125
1099.72435947828	4367.7998046875
1100.40824979492	4324.2001953125
1101.09205325895	4248.2001953125
1101.77576987812	4204.39990234375
1102.45939966014	4154.7998046875
1103.14294261273	4136.7998046875
1103.82639874362	4109
1104.50976806054	4124.2001953125
1105.19305057119	4193
1105.87624628331	4257.39990234375
1106.55935520461	4313
1107.24237734283	4371.39990234375
1107.92531270566	4389
1108.60816130085	4401
1109.2909231361	4414.39990234375
1109.97359821914	4446.2001953125
1110.65618655768	4496.60009765625
1111.33868815946	4526.2001953125
1112.02110303217	4551.7998046875
1112.70343118355	4540
1113.3856726213	4532
1114.06782735316	4470.60009765625
1114.74989538683	4438.39990234375
1115.43187673002	4388
1116.11377139047	4334.39990234375
1116.79557937588	4327.2001953125
1117.47730069397	4369.60009765625
1118.15893535245	4440.39990234375
1118.84048335904	4444.7998046875
1119.52194472146	4456
1120.20331944741	4460
1120.88460754462	4486.2001953125
1121.56580902079	4453.60009765625
1122.24692388364	4497.60009765625
1122.92795214088	4495.2001953125
1123.60889380022	4565.39990234375
1124.28974886938	4611
1124.97051735606	4638.39990234375
1125.65119926799	4648.39990234375
1126.33179461286	4613.7998046875
1127.0123033984	4618.2001953125
1127.6927256323	4608.39990234375
1128.37306132229	4589.39990234375
1129.05331047606	4587.2001953125
1129.73347310134	4584
1130.41354920582	4577.39990234375
1131.09353879722	4531.60009765625
1131.77344188324	4483.39990234375
1132.45325847159	4488.2001953125
1133.13298856999	4495.39990234375
1133.81263218612	4495.2001953125
1134.49218932772	4507
1135.17166000247	4488.60009765625
1135.85104421809	4450.60009765625
1136.53034198227	4424.39990234375
1137.20955330274	4378
1137.88867818718	4348.7998046875
1138.56771664331	4350.2001953125
1139.24666867883	4387.2001953125
1139.92553430144	4402
1140.60431351885	4469.2001953125
1141.28300633876	4443.2001953125
1141.96161276887	4498.2001953125
1142.64013281689	4505.39990234375
1143.31856649051	4502.39990234375
1143.99691379744	4498
1144.67517474538	4444.60009765625
1145.35334934203	4404.39990234375
1146.03143759509	4392.2001953125
1146.70943951226	4354.39990234375
1147.38735510125	4304.39990234375
1148.06518436974	4261
1148.74292732545	4274.60009765625
1149.42058397606	4289.39990234375
1150.09815432928	4281.7998046875
1150.7756383928	4300.60009765625
1151.45303617432	4342
1152.13034768155	4431.7998046875
1152.80757292217	4488.7998046875
1153.48471190389	4489.60009765625
1154.16176463439	4487
1154.83873112138	4458.60009765625
1155.51561137255	4446.60009765625
1156.1924053956	4433.2001953125
1156.86911319822	4474.60009765625
1157.5457347881	4470.60009765625
1158.22227017294	4478.60009765625
1158.89871936044	4435.2001953125
1159.57508235828	4416.60009765625
1160.25135917416	4416.60009765625
1160.92754981578	4408.2001953125
1161.60365429081	4427.2001953125
1162.27967260697	4428.2001953125
1162.95560477193	4391
1163.63145079339	4390
1164.30721067904	4410.39990234375
1164.98288443657	4363.2001953125
1165.65847207367	4392.39990234375
1166.33397359803	4400
1167.00938901735	4392.39990234375
1167.6847183393	4436.60009765625
1168.35996157157	4469.39990234375
1169.03511872187	4508.2001953125
1169.71018979787	4489.39990234375
1170.38517480726	4473.2001953125
1171.06007375773	4446.2001953125
1171.73488665696	4412
1172.40961351265	4389.39990234375
1173.08425433247	4342.60009765625
1173.75880912412	4383.60009765625
1174.43327789528	4423.2001953125
1175.10766065364	4481.60009765625
1175.78195740687	4532.7998046875
1176.45616816267	4589.39990234375
1177.13029292871	4562.7998046875
1177.80433171269	4561.2001953125
1178.47828452229	4524
1179.15215136518	4528.2001953125
1179.82593224905	4552.39990234375
1180.49962718159	4565.7998046875
1181.17323617047	4594.7998046875
1181.84675922337	4589.2001953125
1182.52019634799	4630.39990234375
1183.193547552	4660.60009765625
1183.86681284307	4663.7998046875
1184.53999222889	4670.7998046875
1185.21308571714	4667.2001953125
1185.8860933155	4673.7998046875
1186.55901503165	4644.2001953125
1187.23185087326	4625.7998046875
1187.90460084802	4637.7998046875
1188.5772649636	4643
1189.24984322768	4608.39990234375
1189.92233564794	4597
1190.59474223206	4671.2001953125
1191.2670629877	4689.39990234375
1191.93929792255	4718.2001953125
1192.61144704428	4726.2001953125
1193.28351036058	4683.39990234375
1193.9554878791	4651
1194.62737960754	4618.39990234375
1195.29918555356	4596
1195.97090572483	4626.60009765625
1196.64254012903	4643.7998046875
1197.31408877384	4644.2001953125
1197.98555166693	4631.7998046875
1198.65692881596	4630.2001953125
1199.32822022862	4589.39990234375
1199.99942591256	4568.7998046875
1200.67054587548	4568
1201.34158012503	4530.39990234375
1202.01252866889	4492
1202.68339151473	4479.7998046875
1203.35416867021	4463.60009765625
1204.02486014301	4448
1204.6954659408	4463
1205.36598607124	4499.7998046875
1206.03642054201	4504
1206.70676936078	4538
1207.3770325352	4514.7998046875
1208.04721007295	4501.2001953125
1208.7173019817	4508.2001953125
1209.38730826911	4469.39990234375
1210.05722894285	4435
1210.72706401059	4390.39990234375
1211.39681347999	4387.2001953125
1212.06647735872	4360.60009765625
1212.73605565444	4356.2001953125
1213.40554837481	4358.2001953125
1214.07495552751	4350.7998046875
1214.74427712019	4384
1215.41351316052	4376.7998046875
1216.08266365617	4414.7998046875
1216.75172861479	4357.39990234375
1217.42070804405	4326.2001953125
1218.0896019516	4359.39990234375
1218.75841034513	4346.60009765625
1219.42713323227	4405.2001953125
1220.0957706207	4445
1220.76432251808	4421
1221.43278893207	4424.39990234375
1222.10116987032	4468
1222.7694653405	4505
1223.43767535026	4488.39990234375
1224.10579990727	4455.2001953125
1224.77383901918	4426.7998046875
1225.44179269366	4399.2001953125
1226.10966093835	4391.2001953125
1226.77744376093	4382.2001953125
1227.44514116904	4409.39990234375
1228.11275317034	4402.39990234375
1228.78027977249	4416.39990234375
1229.44772098315	4374.7998046875
1230.11507680996	4327.2001953125
1230.7823472606	4322
1231.44953234271	4321.2001953125
1232.11663206394	4300.2001953125
1232.78364643195	4307.60009765625
1233.4505754544	4290.7998046875
1234.11741913894	4278.39990234375
1234.78417749322	4254.39990234375
1235.45085052489	4258.7998046875
1236.11743824162	4266.39990234375
1236.78394065104	4221.39990234375
1237.45035776082	4272.39990234375
1238.1166895786	4343.39990234375
1238.78293611204	4353.39990234375
1239.44909736878	4367.7998046875
1240.11517335648	4333.39990234375
1240.78116408279	4364
1241.44706955535	4377.7998046875
1242.11288978182	4364.7998046875
1242.77862476985	4316.60009765625
1243.44427452708	4281
1244.10983906116	4253.60009765625
1244.77531837974	4267.2001953125
1245.44071249047	4284.39990234375
1246.106021401	4280.2001953125
1246.77124511898	4259.7998046875
1247.43638365204	4295.60009765625
1248.10143700783	4321
1248.76640519401	4295.39990234375
1249.43128821822	4258.60009765625
1250.0960860881	4289
1250.76079881129	4300
1251.42542639545	4269.39990234375
1252.08996884822	4251.2001953125
1252.75442617723	4220
1253.41879839014	4259.2001953125
1254.08308549458	4287
1254.74728749821	4327.60009765625
1255.41140440866	4313.2001953125
1256.07543623357	4301.7998046875
1256.73938298059	4278
1257.40324465735	4229
1258.0670212715	4226
1258.73071283068	4220.60009765625
1259.39431934253	4256.2001953125
1260.05784081468	4263.7998046875
1260.72127725479	4252
1261.38462867049	4190.2001953125
1262.0478950694	4199.39990234375
1262.71107645919	4166.7998046875
1263.37417284748	4233
1264.03718424191	4274.7998046875
1264.70011065011	4282.39990234375
1265.36295207974	4300.7998046875
1266.02570853841	4297.2001953125
1266.68838003378	4277
1267.35096657346	4225.7998046875
1268.01346816511	4226.39990234375
1268.67588481636	4170.39990234375
1269.33821653483	4156.39990234375
1270.00046332817	4217.2001953125
1270.66262520401	4301.60009765625
1271.32470216998	4276.60009765625
1271.98669423372	4242.60009765625
1272.64860140285	4222.39990234375
1273.31042368503	4184.7998046875
1273.97216108786	4198
1274.633813619	4256.60009765625
1275.29538128606	4315.39990234375
1275.95686409669	4352.60009765625
1276.6182620585	4336.60009765625
1277.27957517914	4289.2001953125
1277.94080346624	4265.60009765625
1278.60194692741	4272.7998046875
1279.2630055703	4333.39990234375
1279.92397940253	4332.39990234375
1280.58486843173	4350.7998046875
1281.24567266552	4332
1281.90639211155	4260
1282.56702677743	4250.7998046875
1283.2275766708	4261.2001953125
1283.88804179927	4256.7998046875
1284.54842217049	4196.7998046875
1285.20871779206	4198.2001953125
1285.86892867163	4215
1286.52905481681	4266
1287.18909623523	4299.60009765625
1287.84905293452	4331.60009765625
1288.5089249223	4355.39990234375
1289.16871220619	4397
1289.82841479383	4426.7998046875
1290.48803269282	4429.39990234375
1291.1475659108	4380.60009765625
1291.80701445539	4319
1292.46637833421	4250
1293.12565755489	4237.39990234375
1293.78485212504	4222.60009765625
1294.44396205229	4185.2001953125
1295.10298734425	4222
1295.76192800856	4186.60009765625
1296.42078405283	4198.60009765625
1297.07955548467	4216.7998046875
1297.73824231171	4258.2001953125
1298.39684454158	4257.2001953125
1299.05536218188	4282
1299.71379524023	4318
1300.37214372427	4325
1301.03040764159	4310.7998046875
1301.68858699983	4297.7998046875
1302.34668180659	4334
1303.0046920695	4314.7998046875
1303.66261779617	4368.2001953125
1304.32045899422	4388.60009765625
1304.97821567126	4419.60009765625
1305.63588783492	4456
1306.29347549279	4418.60009765625
1306.95097865251	4431
1307.60839732168	4409.60009765625
1308.26573150791	4458.7998046875
1308.92298121883	4464.39990234375
1309.58014646204	4429
1310.23722724517	4407
1310.89422357581	4409.39990234375
1311.55113546158	4407.60009765625
1312.2079629101	4352.60009765625
1312.86470592898	4443
1313.52136452582	4430.7998046875
1314.17793870824	4502.2001953125
1314.83442848386	4485.2001953125
1315.49083386027	4475.2001953125
1316.14715484509	4449.2001953125
1316.80339144594	4469.60009765625
1317.45954367041	4499
1318.11561152611	4514.39990234375
1318.77159502067	4475.2001953125
1319.42749416168	4497.39990234375
1320.08330895674	4497.2001953125
1320.73903941348	4446.7998046875
1321.3946855395	4427.7998046875
1322.0502473424	4397.2001953125
1322.70572482978	4374.60009765625
1323.36111800926	4335.39990234375
1324.01642688845	4367.7998046875
1324.67165147494	4365
1325.32679177634	4377.7998046875
1325.98184780025	4385
1326.63681955429	4388
1327.29170704605	4372.7998046875
1327.94651028314	4321.39990234375
1328.60122927316	4333
1329.25586402371	4302.39990234375
1329.9104145424	4265
1330.56488083683	4249.60009765625
1331.2192629146	4231.7998046875
1331.87356078331	4294
1332.52777445056	4265
1333.18190392395	4302.7998046875
1333.83594921109	4285.39990234375
1334.48991031958	4259.2001953125
1335.143787257	4233.2001953125
1335.79758003097	4245.39990234375
1336.45128864908	4229
1337.10491311893	4248.7998046875
1337.75845344813	4229
1338.41190964425	4234.7998046875
1339.06528171491	4234.2001953125
1339.71856966771	4207
1340.37177351023	4188.2001953125
1341.02489325007	4142.60009765625
1341.67792889484	4100.39990234375
1342.33088045212	4049.80004882813
1342.98374792952	4098.39990234375
1343.63653133462	4146.7998046875
1344.28923067503	4192.7998046875
1344.94184595833	4179.7998046875
1345.59437719212	4257.2001953125
1346.246824384	4296.60009765625
1346.89918754155	4337.60009765625
1347.55146667238	4344.7998046875
1348.20366178407	4339.2001953125
1348.85577288421	4370.7998046875
1349.50779998041	4340.2001953125
1350.15974308024	4311
1350.8116021913	4347.7998046875
1351.46337732119	4394
1352.11506847748	4378.2001953125
1352.76667566778	4390.60009765625
1353.41819889967	4433
1354.06963818074	4456.60009765625
1354.72099351858	4492.60009765625
1355.37226492079	4501.60009765625
1356.02345239494	4558.60009765625
1356.67455594862	4612.60009765625
1357.32557558943	4728.7998046875
1357.97651132496	4778.7998046875
1358.62736316277	4835.60009765625
1359.27813111048	4867
1359.92881517565	4907.39990234375
1360.57941536589	4901.2001953125
1361.22993168876	4942.39990234375
1361.88036415186	4968.2001953125
1362.53071276278	5005.39990234375
1363.1809775291	5044
1363.8311584584	5061
1364.48125555826	5045.7998046875
1365.13126883627	4914.7998046875
1365.78119830001	4750
1366.43104395707	4668.2001953125
1367.08080581503	4589.7998046875
1367.73048388147	4535.39990234375
1368.38007816397	4477.39990234375
1369.02958867011	4503.39990234375
1369.67901540748	4479.7998046875
1370.32835838365	4472.60009765625
1370.9776176062	4471.60009765625
1371.62679308273	4411.2001953125
1372.27588482079	4450.60009765625
1372.92489282798	4478.60009765625
1373.57381711188	4475
1374.22265768006	4383.2001953125
1374.87141454009	4345.60009765625
1375.52008769957	4328.60009765625
1376.16867716606	4299
1376.81718294715	4295.60009765625
1377.4656050504	4271.7998046875
1378.1139434834	4254.39990234375
1378.76219825373	4301.7998046875
1379.41036936895	4292
1380.05845683664	4285
1380.70646066439	4295.2001953125
1381.35438085976	4290.2001953125
1382.00221743032	4249
1382.64997038366	4252
1383.29763972735	4249.2001953125
1383.94522546895	4257
1384.59272761605	4262.7998046875
1385.24014617621	4249.39990234375
1385.88748115701	4258.39990234375
1386.53473256602	4260
1387.18190041081	4199.2001953125
1387.82898469895	4177.39990234375
1388.47598543802	4154.7998046875
1389.12290263558	4166.60009765625
1389.7697362992	4084.19995117188
1390.41648643646	4071.60009765625
1391.06315305492	4040.80004882813
1391.70973616215	3986
1392.35623576573	3949.60009765625
1393.00265187321	3961.39990234375
1393.64898449217	3986
1394.29523363018	4022.39990234375
1394.94139929481	4060
1395.58748149361	4009.60009765625
1396.23348023415	3975.80004882813
1396.87939552402	3969.39990234375
1397.52522737076	3915.39990234375
1398.17097578195	3862.39990234375
1398.81664076514	3814.60009765625
1399.46222232792	3801.19995117188
1400.10772047783	3803.60009765625
1400.75313522245	3811.80004882813
1401.39846656934	3870.80004882813
1402.04371452605	3909.39990234375
1402.68887910016	3949.39990234375
1403.33396029924	3927.19995117188
1403.97895813083	3935.60009765625
1404.6238726025	3959.60009765625
1405.26870372182	3966.19995117188
1405.91345149634	3979.39990234375
1406.55811593363	3931.60009765625
1407.20269704125	3910.39990234375
1407.84719482676	3933.60009765625
1408.49160929772	3899.39990234375
1409.13594046168	3908.60009765625
1409.78018832622	3907.80004882813
1410.42435289887	3927.19995117188
1411.06843418722	3934.80004882813
1411.7124321988	3916.60009765625
1412.3563469412	3966.60009765625
1413.00017842194	4001.60009765625
1413.64392664861	4047.39990234375
1414.28759162875	4084
1414.93117336992	4043.19995117188
1415.57467187967	4049.39990234375
1416.21808716557	4043.60009765625
1416.86141923516	4018.60009765625
1417.50466809601	4091.80004882813
1418.14783375567	4127.7998046875
1418.79091622169	4098.7998046875
1419.43391550162	4062.80004882813
1420.07683160303	4070.39990234375
1420.71966453346	4076
1421.36241430046	4075.39990234375
1422.0050809116	4082.60009765625
1422.64766437442	4096.7998046875
1423.29016469647	4095.39990234375
1423.93258188531	4110
1424.57491594848	4119.60009765625
1425.21716689354	4131
1425.85933472805	4085.60009765625
1426.50141945954	4065.60009765625
1427.14342109557	4046
1427.78533964369	4042
1428.42717511144	4044
1429.06892750639	4012
1429.71059683607	4006.60009765625
1430.35218310803	3995.39990234375
1430.99368632983	3982
1431.635106509	4038.80004882813
1432.2764436531	4041.80004882813
1432.91769776967	4024.60009765625
1433.55886886627	4071.80004882813
1434.19995695043	4062
1434.84096202969	4042
1435.48188411162	4048.19995117188
1436.12272320375	3978.60009765625
1436.76347931363	3993.39990234375
1437.40415244879	3996
1438.0447426168	4027
1438.68524982518	3976.39990234375
1439.32567408148	3976.80004882813
1439.96601539325	3982.60009765625
1440.60627376803	3968.60009765625
1441.24644921336	3954.80004882813
1441.88654173678	3942
1442.52655134583	3934.39990234375
1443.16647804806	3904.60009765625
1443.806321851	3954.19995117188
1444.4460827622	3958
1445.0857607892	3965.19995117188
1445.72535593953	3921.80004882813
1446.36486822074	3904
1447.00429764037	3881.39990234375
1447.64364420595	3879.19995117188
1448.28290792502	3903.39990234375
1448.92208880512	3896.39990234375
1449.56118685379	3874.80004882813
1450.20020207857	3873.80004882813
1450.83913448699	3883
1451.47798408659	3911.19995117188
1452.1167508849	3912
1452.75543488947	3891
1453.39403610782	3913.39990234375
1454.0325545475	3897.80004882813
1454.67099021603	3936
1455.30934312097	3936.39990234375
1455.94761326982	3928.80004882813
1456.58580067014	3913
1457.22390532945	3884.19995117188
1457.86192725529	3868
1458.49986645519	3887.80004882813
1459.13772293668	3902.80004882813
1459.7754967073	3851.39990234375
1460.41318777457	3823
1461.05079614604	3795.19995117188
1461.68832182922	3819
1462.32576483166	3809
1462.96312516087	3812.60009765625
1463.6004028244	3845.60009765625
1464.23759782977	3886
1464.8747101845	3904.19995117188
1465.51173989614	3967.39990234375
1466.14868697221	3942.80004882813
1466.78555142024	3942.39990234375
1467.42233324774	3958.39990234375
1468.05903246227	3922.19995117188
1468.69564907133	3916
1469.33218308246	3898.60009765625
1469.96863450317	3880
1470.60500334102	3923
1471.2412896035	3960.80004882813
1471.87749329816	3966.19995117188
1472.51361443251	3972.60009765625
1473.14965301409	3972.19995117188
1473.78560905041	3957.39990234375
1474.421482549	3982.60009765625
1475.05727351739	3966
1475.69298196309	3967.39990234375
1476.32860789364	3989.60009765625
1476.96415131654	3956
1477.59961223934	3902
1478.23499066954	3898.39990234375
1478.87028661467	3890.39990234375
1479.50550008226	3917.80004882813
1480.14063107981	3910.19995117188
1480.77567961486	3884.60009765625
1481.41064569492	3841.19995117188
1482.04552932752	3847.80004882813
1482.68033052017	3861.80004882813
1483.31504928039	3870.60009765625
1483.9496856157	3872.39990234375
1484.58423953363	3899.60009765625
1485.21871104168	3898.39990234375
1485.85310014738	3919.39990234375
1486.48740685824	3942.39990234375
1487.12163118178	3891.80004882813
1487.75577312553	3931.60009765625
1488.38983269698	3912.39990234375
1489.02380990367	3931.19995117188
1489.65770475311	3911.60009765625
1490.29151725281	3985.19995117188
1490.92524741029	3985.39990234375
1491.55889523306	3950.19995117188
1492.19246072863	3971.39990234375
1492.82594390453	4012.80004882813
1493.45934476826	3998.19995117188
1494.09266332734	4037.60009765625
1494.72589958928	4039.60009765625
1495.3590535616	4072.60009765625
1495.99212525181	4112.60009765625
1496.62511466741	4088.60009765625
1497.25802181592	4067.80004882813
1497.89084670485	4085.80004882813
1498.52358934172	4141.60009765625
1499.15624973403	4179.60009765625
1499.7888278893	4193.39990234375
1500.42132381503	4217
1501.05373751873	4272
1501.68606900792	4334.2001953125
1502.31831829009	4361.2001953125
1502.95048537277	4383.2001953125
1503.58257026346	4407.7998046875
1504.21457296966	4445.7998046875
1504.84649349889	4502.7998046875
1505.47833185864	4532
1506.11008805644	4470.2001953125
1506.74176209978	4462.7998046875
1507.37335399617	4431
1508.00486375312	4380.7998046875
1508.63629137813	4349.60009765625
1509.2676368787	4355.39990234375
1509.89890026235	4392.2001953125
1510.53008153658	4392.39990234375
1511.16118070889	4420.39990234375
1511.79219778677	4426
1512.42313277775	4406.39990234375
1513.05398568932	4352
1513.68475652898	4340.7998046875
1514.31544530424	4334.39990234375
1514.9460520226	4259.60009765625
1515.57657669155	4207.2001953125
1516.20701931861	4137.2001953125
1516.83737991127	4101.7998046875
1517.46765847702	4093.39990234375
1518.09785502339	4092.60009765625
1518.72796955785	4106.2001953125
1519.35800208792	4126.60009765625
1519.98795262109	4121.60009765625
1520.61782116486	4075.19995117188
1521.24760772673	4098.39990234375
1521.87731231419	4078.80004882813
1522.50693493475	4045.80004882813
1523.1364755959	4020.19995117188
1523.76593430514	3991.60009765625
1524.39531106997	3984
1525.02460589788	3966.60009765625
1525.65381879637	3978
1526.28294977293	3964.60009765625
1526.91199883507	3918.60009765625
1527.54096599027	3949.19995117188
1528.16985124603	3892.39990234375
1528.79865460984	3898.39990234375
1529.4273760892	3913.80004882813
1530.05601569161	3956.39990234375
1530.68457342455	3963.60009765625
1531.31304929552	3974.60009765625
1531.94144331201	3984.39990234375
1532.56975548151	3992.19995117188
1533.19798581152	4028.60009765625
1533.82613430953	4027.60009765625
1534.45420098302	4043.60009765625
1535.08218583949	4033.39990234375
1535.71008888643	4018.39990234375
1536.33791013134	4006.60009765625
1536.96564958169	4006.39990234375
1537.59330724498	3979.60009765625
1538.22088312871	4003
1538.84837724034	3937.80004882813
1539.47578958739	3912.39990234375
1540.10312017733	3924.80004882813
1540.73036901765	3904.80004882813
1541.35753611584	3894.19995117188
1541.98462147939	3880.19995117188
1542.61162511578	3867.60009765625
1543.2385470325	3879.19995117188
1543.86538723704	3896.80004882813
1544.49214573688	3894.19995117188
1545.11882253951	3941.39990234375
1545.74541765241	3937.39990234375
1546.37193108306	3933.39990234375
1546.99836283896	3935.80004882813
1547.62471292758	3931.39990234375
1548.25098135641	3921.60009765625
1548.87716813294	3839.60009765625
1549.50327326464	3880.39990234375
1550.12929675899	3866
1550.75523862349	3855
1551.38109886561	3889.60009765625
1552.00687749284	3838.80004882813
1552.63257451264	3831.60009765625
1553.25818993252	3816
1553.88372375994	3809.80004882813
1554.50917600239	3775.39990234375
1555.13454666734	3757.19995117188
1555.75983576228	3762.80004882813
1556.38504329469	3787
1557.01016927204	3773
1557.63521370181	3748
1558.26017659149	3760.60009765625
1558.88505794854	3768.19995117188
1559.50985778045	3805.19995117188
1560.13457609469	3785
1560.75921289874	3791.19995117188
1561.38376820008	3779.80004882813
1562.00824200618	3808.39990234375
1562.63263432452	3818.60009765625
1563.25694516257	3819.19995117188
1563.88117452781	3820.19995117188
1564.50532242772	3834.60009765625
1565.12938886976	3792.80004882813
1565.75337386141	3787.60009765625
1566.37727741015	3819.19995117188
1567.00109952345	3869.60009765625
1567.62484020878	3889.60009765625
1568.24849947361	3889.19995117188
1568.87207732542	3949.60009765625
1569.49557377168	3927.39990234375
1570.11898881986	3960
1570.74232247743	3965
1571.36557475186	3951
1571.98874565062	3976.19995117188
1572.61183518119	4049
1573.23484335103	4073.19995117188
1573.85777016761	4104
1574.4806156384	4150.7998046875
1575.10337977088	4114.7998046875
1575.7260625725	4101.39990234375
1576.34866405074	4095.19995117188
1576.97118421306	4060.60009765625
1577.59362306694	4051.39990234375
1578.21598061984	4072.39990234375
1578.83825687922	4043.19995117188
1579.46045185255	4018.80004882813
1580.08256554731	3997.80004882813
1580.70459797094	3988.19995117188
1581.32654913093	3977
1581.94841903473	3926.39990234375
1582.57020768981	3908.60009765625
1583.19191510364	3845.80004882813
1583.81354128367	3845.60009765625
1584.43508623737	3835.19995117188
1585.05654997221	3801.80004882813
1585.67793249564	3752.39990234375
1586.29923381514	3726.39990234375
1586.92045393815	3693.19995117188
1587.54159287216	3736.60009765625
1588.1626506246	3743
1588.78362720296	3741
1589.40452261468	3730.39990234375
1590.02533686724	3720.80004882813
1590.64606996808	3696.60009765625
1591.26672192467	3650.39990234375
1591.88729274447	3645
1592.50778243493	3628.80004882813
1593.12819100352	3602.60009765625
1593.7485184577	3604
1594.36876480492	3553.80004882813
1594.98893005264	3571.19995117188
1595.60901420832	3567
1596.22901727941	3570.39990234375
1596.84893927338	3585.80004882813
1597.46878019767	3608.80004882813
1598.08854005975	3613.80004882813
1598.70821886707	3644.80004882813
1599.32781662708	3647.19995117188
1599.94733334725	3656.39990234375
1600.56676903502	3658.19995117188
1601.18612369785	3631.19995117188
1601.8053973432	3597
1602.42458997851	3575
1603.04370161124	3537.60009765625
1603.66273224884	3516.60009765625
1604.28168189878	3513.60009765625
1604.90055056849	3484.80004882813
1605.51933826543	3480
1606.13804499705	3471.39990234375
1606.75667077081	3500.19995117188
1607.37521559415	3532.19995117188
1607.99367947452	3528.80004882813
1608.61206241938	3527.19995117188
1609.23036443618	3520.39990234375
1609.84858553236	3463
1610.46672571537	3447
1611.08478499267	3490.80004882813
1611.7027633717	3517.39990234375
1612.3206608599	3492.19995117188
1612.93847746473	3483.80004882813
1613.55621319364	3458.60009765625
1614.17386805407	3434
1614.79144205347	3386.19995117188
1615.40893519928	3412.19995117188
1616.02634749895	3425.60009765625
1616.64367895993	3385.60009765625
1617.26092958966	3372.39990234375
1617.87809939559	3365.80004882813
1618.49518838516	3368.60009765625
1619.11219656582	3410
1619.729123945	3393.60009765625
1620.34597053016	3412.19995117188
1620.96273632874	3396
1621.57942134818	3372.19995117188
1622.19602559592	3387
1622.8125490794	3376.19995117188
1623.42899180607	3358.39990234375
1624.04535378337	3380
1624.66163501874	3362
1625.27783551963	3387.60009765625
1625.89395529346	3359.80004882813
1626.50999434768	3347.19995117188
1627.12595268974	3333
1627.74183032707	3316
1628.3576272671	3324.80004882813
1628.97334351729	3254.60009765625
1629.58897908506	3262.80004882813
1630.20453397786	3242.80004882813
1630.82000820313	3267.19995117188
1631.43540176829	3262.80004882813
1632.05071468079	3295.60009765625
1632.66594694807	3273.39990234375
1633.28109857756	3308.60009765625
1633.8961695767	3301
1634.51115995292	3283.80004882813
1635.12606971366	3281.19995117188
1635.74089886636	3295
1636.35564741844	3328.39990234375
1636.97031537734	3368
1637.58490275051	3364
1638.19940954536	3374.39990234375
1638.81383576934	3403.60009765625
1639.42818142987	3447.60009765625
1640.0424465344	3467.19995117188
1640.65663109034	3490.39990234375
1641.27073510515	3520.39990234375
1641.88475858623	3510.80004882813
1642.49870154104	3517.60009765625
1643.11256397699	3507.60009765625
1643.72634590152	3512.80004882813
1644.34004732206	3524.39990234375
1644.95366824604	3557.80004882813
1645.56720868089	3571.60009765625
1646.18066863404	3592.19995117188
1646.79404811291	3614.39990234375
1647.40734712494	3615.80004882813
1648.02056567755	3601.19995117188
1648.63370377817	3644.19995117188
1649.24676143423	3625.60009765625
1649.85973865316	3641.80004882813
1650.47263544238	3625.39990234375
1651.08545180932	3641.39990234375
1651.6981877614	3646.39990234375
1652.31084330606	3604.80004882813
1652.92341845071	3577.80004882813
1653.53591320278	3500
1654.1483275697	3472
1654.7606615589	3480.39990234375
1655.37291517778	3412.19995117188
1655.98508843379	3384.80004882813
1656.59718133434	3364.80004882813
1657.20919388685	3363.80004882813
1657.82112609875	3361.19995117188
1658.43297797747	3334
1659.04474953041	3336.80004882813
1659.65644076501	3319.60009765625
1660.26805168869	3295.80004882813
1660.87958230886	3252.19995117188
1661.49103263294	3245.60009765625
1662.10240266837	3232.60009765625
1662.71369242255	3209
1663.32490190291	3214.60009765625
1663.93603111687	3175.19995117188
1664.54708007184	3181.39990234375
1665.15804877524	3190.19995117188
1665.7689372345	3199.19995117188
1666.37974545703	3178.60009765625
1666.99047345024	3148.19995117188
1667.60112122156	3170.19995117188
1668.2116887784	3105.60009765625
1668.82217612818	3043.19995117188
1669.43258327831	3007.19995117188
1670.04291023622	2970.19995117188
1670.65315700931	2968.19995117188
1671.263323605	2946.60009765625
1671.8734100307	2885.60009765625
1672.48341629384	2871.19995117188
1673.09334240182	2867.60009765625
1673.70318836206	2846.39990234375
1674.31295418197	2816.60009765625
1674.92263986896	2852.19995117188
1675.53224543046	2861.60009765625
1676.14177087386	2858.19995117188
1676.75121620658	2855.60009765625
1677.36058143604	2876.39990234375
1677.96986656964	2921
1678.5790716148	2924.60009765625
1679.18819657892	2953.19995117188
1679.79724146943	3008.19995117188
1680.40620629372	3020.80004882813
1681.0150910592	3059.80004882813
1681.6238957733	3039.39990234375
1682.23262044341	3028.80004882813
1682.84126507694	3034
1683.4498296813	3034.60009765625
1684.0583142639	3019.80004882813
1684.66671883216	3025.39990234375
1685.27504339346	3019
1685.88328795523	2994.19995117188
1686.49145252487	2940.60009765625
1687.09953710978	2917.19995117188
1687.70754171737	2945
1688.31546635505	2957.80004882813
1688.92331103021	2944.80004882813
1689.53107575028	2951.80004882813
1690.13876052265	2972.19995117188
1690.74636535472	2955
1691.3538902539	2960
1691.96133522759	2919.80004882813
1692.5687002832	2913
1693.17598542812	2889.60009765625
1693.78319066977	2872.39990234375
1694.39031601554	2853.39990234375
1694.99736147283	2879.39990234375
1695.60432704905	2912
1696.2112127516	2973
1696.81801858788	3010
1697.42474456528	2989.19995117188
1698.03139069121	2990.39990234375
1698.63795697307	2968
1699.24444341826	2916
1699.85085003417	2913.60009765625
1700.45717682821	2932.19995117188
1701.06342380778	2899.19995117188
1701.66959098026	2905.39990234375
1702.27567835307	2884
1702.88168593359	2863.80004882813
1703.48761372922	2868.39990234375
1704.09346174737	2824.19995117188
1704.69922999542	2831.19995117188
1705.30491848077	2838.39990234375
1705.91052721083	2862.19995117188
1706.51605619297	2857.19995117188
1707.12150543461	2850
1707.72687494312	2840.19995117188
1708.33216472592	2797.60009765625
1708.93737479039	2782.19995117188
1709.54250514392	2752.60009765625
