634.977642221345	2898
635.719821695905	2922
636.461909203392	2953
637.203904751776	2946
637.945808349023	2922.19995117188
638.687620003102	2964.60009765625
639.42933972198	2977.19995117188
640.170967513616	2973.39990234375
640.912503385981	2964.60009765625
641.653947347041	2938.19995117188
642.395299404758	2909.39990234375
643.13655956709	2874
643.877727842014	2858
644.61880423748	2810
645.359788761455	2818
646.100681421905	2875
646.841482226789	2904
647.582191184074	2935.39990234375
648.322808301711	2924.39990234375
649.06333358767	2907.19995117188
649.803767049909	2919
650.544108696385	2946
651.28435853506	2982
652.024516573894	2993.39990234375
652.764582820849	3009.60009765625
653.504557283875	3048.39990234375
654.244439970937	3051.80004882813
654.984230889991	3021.80004882813
655.723930048995	3050.39990234375
656.463537455909	3062.19995117188
657.203053118683	3072.80004882813
657.942477045275	3054.80004882813
658.681809243647	3052.19995117188
659.421049721747	3055.39990234375
660.160198487535	3048.60009765625
660.899255548962	3062.80004882813
661.638220913985	3049.80004882813
662.377094590559	3067
663.115876586631	3081.39990234375
663.854566910165	3066.19995117188
664.593165569107	3063
665.331672571406	3057
666.07008792502	3020
666.808411637902	3017.80004882813
667.546643717996	2985.60009765625
668.284784173258	2974.39990234375
669.022833011641	2978.60009765625
669.760790241089	3016.19995117188
670.498655869554	2989
671.236429904987	2993.19995117188
671.97411235534	3016.80004882813
672.711703228551	3074.19995117188
673.449202532577	3090.39990234375
674.186610275364	3151
674.923926464857	3177.80004882813
675.661151109008	3202.19995117188
676.398284215759	3159.60009765625
677.135325793058	3155.39990234375
677.87227584885	3178.80004882813
678.609134391082	3218.60009765625
679.345901427696	3211.60009765625
680.082576966644	3178.39990234375
680.819161015861	3179
681.555653583298	3161.80004882813
682.292054676895	3133.80004882813
683.028364304594	3108
683.764582474344	3112.19995117188
684.500709194083	3065.80004882813
685.236744471752	3083.19995117188
685.972688315294	3070.39990234375
686.708540732652	3071.80004882813
687.444301731762	3083.39990234375
688.179971320572	3108.80004882813
688.915549507013	3090.80004882813
689.651036299034	3080.19995117188
690.386431704569	3002.80004882813
691.121735731559	3005.80004882813
691.85694838794	2978.60009765625
692.592069681652	2986.80004882813
693.327099620632	2994
694.062038212821	3022.39990234375
694.796885466149	3044
695.531641388561	3100.80004882813
696.266305987987	3153.80004882813
697.000879272367	3147.80004882813
697.735361249632	3182
698.469751927722	3166.60009765625
699.204051314568	3149
699.938259418107	3140.19995117188
700.672376246272	3091.39990234375
701.406401806997	3106
702.140336108212	3117.60009765625
702.874179157855	3080.39990234375
703.607930963856	3119.80004882813
704.341591534147	3132
705.07516087666	3146.39990234375
705.808638999324	3149.80004882813
706.542025910073	3163.19995117188
707.275321616841	3171.60009765625
708.008526127549	3134.80004882813
708.741639450132	3130.39990234375
709.474661592521	3132
710.207592562641	3149.39990234375
710.940432368424	3175.19995117188
711.673181017796	3167
712.405838518687	3169.39990234375
713.138404879025	3135
713.870880106731	3139.60009765625
714.603264209738	3126
715.335557195971	3155
716.067759073357	3145.19995117188
716.799869849816	3164.39990234375
717.531889533281	3201.80004882813
718.263818131673	3155.60009765625
718.995655652917	3129.19995117188
719.727402104934	3097.19995117188
720.45905749565	3117
721.19062183299	3102.39990234375
721.922095124877	3095
722.653477379231	3097
723.384768603973	3139
724.11596880703	3124.80004882813
724.847077996319	3137.39990234375
725.578096179762	3168.80004882813
726.309023365281	3168.39990234375
727.039859560792	3209.39990234375
727.770604774222	3200.60009765625
728.501259013484	3203.19995117188
729.231822286501	3217.60009765625
729.962294601191	3201.80004882813
730.692675965469	3171.60009765625
731.42296638726	3091.60009765625
732.153165874472	3101
732.883274435032	3138
733.613292076851	3190.39990234375
734.343218807843	3186.39990234375
735.07305463593	3209.60009765625
735.802799569028	3171.80004882813
736.532453615048	3135.19995117188
737.262016781904	3143.60009765625
737.991489077517	3151.60009765625
738.720870509794	3163.80004882813
739.450161086654	3143
740.179360816009	3179
740.908469705772	3209.39990234375
741.637487763854	3232
742.366414998168	3242
743.095251416623	3229.19995117188
743.823997027137	3236.39990234375
744.552651837618	3230.39990234375
745.281215855978	3210.80004882813
746.009689090124	3178.39990234375
746.738071547964	3201.80004882813
747.466363237419	3135.39990234375
748.194564166384	3157.60009765625
748.92267434278	3128.19995117188
749.650693774504	3142.39990234375
750.378622469476	3160.19995117188
751.106460435596	3173
751.834207680771	3176.19995117188
752.561864212909	3181.19995117188
753.289430039919	3205.60009765625
754.016905169707	3183
754.744289610175	3164
755.471583369231	3166
756.198786454782	3150.60009765625
756.925898874728	3185.39990234375
757.652920636979	3151.39990234375
758.379851749433	3153.80004882813
759.106692219996	3167
759.833442056572	3211.80004882813
760.560101267063	3240.80004882813
761.28666985937	3270
762.0131478414	3267.60009765625
762.739535221046	3279.80004882813
763.465832006219	3298.80004882813
764.192038204812	3329.60009765625
764.918153824731	3318.60009765625
765.644178873872	3301.80004882813
766.370113360138	3376.60009765625
767.095957291425	3453.60009765625
767.821710675635	3501.19995117188
768.547373520665	3567.80004882813
769.272945834415	3630.39990234375
769.998427624781	3637.19995117188
770.723818899658	3658.19995117188
771.449119666949	3655.80004882813
772.174329934546	3659.39990234375
772.899449710347	3664.80004882813
773.624479002248	3733.60009765625
774.349417818145	3732.19995117188
775.074266165934	3744
775.799024053505	3737.19995117188
776.523691488757	3700
777.248268479582	3607.19995117188
777.972755033877	3542.39990234375
778.69715115953	3473.80004882813
779.421456864441	3459.60009765625
780.145672156493	3400
780.869797043587	3363.60009765625
781.593831533611	3378.60009765625
782.317775634457	3361.60009765625
783.041629354012	3336.39990234375
783.765392700174	3281
784.489065680828	3255.60009765625
785.212648303866	3225.80004882813
785.936140577177	3210.19995117188
786.659542508652	3247.80004882813
787.382854106174	3248.60009765625
788.106075377639	3234.60009765625
788.829206330928	3237
789.552246973933	3281
790.275197314542	3306.80004882813
790.998057360638	3300
791.720827120108	3268.80004882813
792.443506600841	3275.80004882813
793.166095810722	3252
793.888594757635	3239.80004882813
794.611003449465	3195.60009765625
795.333321894098	3224
796.055550099417	3252.39990234375
796.777688073308	3258.19995117188
797.499735823654	3278.80004882813
798.221693358334	3249.60009765625
798.943560685235	3236.19995117188
799.665337812239	3220.19995117188
800.387024747226	3252.39990234375
801.108621498075	3238.60009765625
801.830128072674	3221
802.551544478902	3274.80004882813
803.272870724636	3252.39990234375
803.994106817761	3281.19995117188
804.715252766148	3280
805.436308577687	3284.80004882813
806.157274260251	3244.60009765625
806.878149821721	3234.19995117188
807.598935269973	3215.39990234375
808.319630612886	3179.80004882813
809.040235858336	3164
809.760751014202	3196
810.481176088361	3191.60009765625
811.201511088685	3202.39990234375
811.921756023059	3160.60009765625
812.641910899347	3160
813.361975725432	3224
814.081950509188	3192.60009765625
814.801835258489	3210.19995117188
815.521629981206	3189.80004882813
816.241334685218	3192.60009765625
816.960949378392	3191.80004882813
817.680474068606	3187.19995117188
818.399908763731	3215.19995117188
819.11925347164	3209.39990234375
819.838508200202	3196.60009765625
820.55767295729	3212.80004882813
821.276747750778	3202
821.995732588531	3169.60009765625
822.714627478425	3165
823.433432428327	3207.39990234375
824.152147446105	3167
824.870772539632	3220
825.589307716775	3238.19995117188
826.307752985404	3269.60009765625
827.026108353378	3262.39990234375
827.744373828579	3225.19995117188
828.462549418867	3250.60009765625
829.180635132107	3212.80004882813
829.898630976168	3232.39990234375
830.616536958915	3243.60009765625
831.334353088218	3274.60009765625
832.052079371938	3249.60009765625
832.769715817942	3253.80004882813
833.487262434092	3235.80004882813
834.204719228255	3253.60009765625
834.922086208293	3221.80004882813
835.639363382073	3236.60009765625
836.356550757456	3228.60009765625
837.073648342304	3257.80004882813
837.790656144484	3244
838.507574171847	3238.80004882813
839.22440243227	3218.60009765625
839.941140933601	3194
840.657789683706	3184.39990234375
841.374348690448	3196.39990234375
842.090817961686	3232.19995117188
842.807197505276	3241
843.523487329083	3248.19995117188
844.23968744096	3242.39990234375
844.955797848771	3236.80004882813
845.671818560374	3217.80004882813
846.387749583622	3218.60009765625
847.103590926378	3187.80004882813
847.819342596497	3144.19995117188
848.535004601833	3169.39990234375
849.25057695025	3142.39990234375
849.966059649598	3138
850.681452707735	3124
851.396756132513	3132
852.111969931789	3196.60009765625
852.827094113419	3175.39990234375
853.542128685257	3216
854.257073655158	3250
854.971929030969	3255.19995117188
855.686694820551	3247
856.40137103175	3227.80004882813
857.115957672423	3202.80004882813
857.830454750423	3216.19995117188
858.544862273597	3225.80004882813
859.259180249797	3212
859.97340868688	3231.60009765625
860.687547592688	3243
861.401596975075	3243.39990234375
862.115556841891	3255
862.829427200985	3271.80004882813
863.543208060205	3260.80004882813
864.256899427402	3222
864.970501310423	3202.80004882813
865.684013717114	3168
866.397436655325	3185
867.110770132901	3192
867.824014157691	3150.80004882813
868.537168737542	3167
869.250233880299	3178.39990234375
869.963209593803	3189.39990234375
870.676095885902	3167.39990234375
871.388892764445	3149.19995117188
872.101600237276	3170.60009765625
872.814218312233	3167.80004882813
873.526746997165	3185.39990234375
874.239186299914	3180.60009765625
874.951536228323	3162.19995117188
875.663796790231	3156.19995117188
876.375967993487	3163.60009765625
877.088049845928	3155.60009765625
877.8000423554	3170.19995117188
878.511945529739	3174.60009765625
879.22375937679	3140.19995117188
879.935483904388	3137.60009765625
880.64711912038	3159
881.358665032604	3158
882.070121648892	3117.60009765625
882.78148897709	3103.39990234375
883.492767025039	3123
884.203955800571	3148.60009765625
884.915055311525	3147.19995117188
885.626065565741	3156.80004882813
886.336986571053	3115.80004882813
887.047818335298	3081.39990234375
887.758560866315	3120.60009765625
888.469214171937	3130.80004882813
889.179778260005	3101.39990234375
889.890253138347	3108.80004882813
890.600638814803	3083.19995117188
891.310935297204	3069.80004882813
892.021142593385	3072.19995117188
892.731260711183	3107.39990234375
893.441289658429	3107.60009765625
894.15122944295	3113.39990234375
894.861080072591	3123
895.570841555173	3123.19995117188
896.280513898534	3156.60009765625
896.990097110503	3151.19995117188
897.699591198913	3172.60009765625
898.408996171595	3190
899.118312036375	3203
899.827538801089	3188.39990234375
900.536676473561	3186
901.245725061628	3169.60009765625
901.954684573109	3173.60009765625
902.663555015838	3176.19995117188
903.372336397644	3198
904.081028726351	3213
904.789632009793	3224
905.49814625579	3241
906.20657147217	3224.39990234375
906.914907666765	3213.19995117188
907.623154847391	3207.39990234375
908.331313021885	3190.60009765625
909.039382198064	3216.60009765625
909.747362383754	3241.39990234375
910.455253586782	3259
911.163055814972	3245.39990234375
911.870769076143	3226
912.578393378126	3223.60009765625
913.285928728738	3205.80004882813
913.993375135802	3183.19995117188
914.700732607145	3193.80004882813
915.408001150579	3220.39990234375
916.115180773937	3231.80004882813
916.822271485037	3235.80004882813
917.529273291693	3236
918.236186201733	3254.19995117188
918.943010222971	3242.80004882813
919.649745363234	3235
920.356391630333	3229.19995117188
921.062949032096	3209.39990234375
921.769417576333	3172.60009765625
922.475797270864	3200.60009765625
923.182088123512	3205.19995117188
923.888290142089	3221.60009765625
924.594403334414	3216.60009765625
925.300427708304	3237.39990234375
926.006363271572	3235
926.712210032039	3228
927.417967997522	3241.80004882813
928.123637175827	3232.19995117188
928.829217574776	3220.39990234375
929.534709202184	3199.60009765625
930.240112065859	3188
930.945426173621	3192.60009765625
931.650651533283	3178.60009765625
932.355788152653	3156
933.060836039547	3194.19995117188
933.765795201776	3181.80004882813
934.470665647153	3180.60009765625
935.175447383492	3179.80004882813
935.880140418599	3179
936.584744760286	3159
937.289260416366	3177.60009765625
937.993687394647	3237.19995117188
938.698025702939	3255
939.402275349051	3249.60009765625
940.106436340793	3257
940.810508685976	3255.60009765625
941.5144923924	3234.19995117188
942.21838746788	3234
942.922193920223	3210.60009765625
943.625911757231	3166.19995117188
944.329540986716	3153.19995117188
945.033081616484	3122.60009765625
945.736533654334	3109.39990234375
946.439897108083	3106.80004882813
947.143171985529	3077.39990234375
947.846358294477	3110
948.549456042732	3092.19995117188
949.2524652381	3110.60009765625
949.955385888382	3144.39990234375
950.658218001384	3144.80004882813
951.360961584907	3175.39990234375
952.063616646755	3175.60009765625
952.766183194733	3186
953.468661236636	3198.39990234375
954.171050780271	3164.80004882813
954.873351833437	3185.19995117188
955.575564403935	3175.80004882813
956.277688499565	3144.19995117188
956.97972412813	3177.80004882813
957.681671297424	3129.60009765625
958.383530015255	3147
959.085300289414	3123.80004882813
959.786982127703	3138.60009765625
960.488575537918	3124.80004882813
961.190080527859	3104.80004882813
961.891497105327	3078.19995117188
962.592825278111	3085.39990234375
963.294065054012	3076.80004882813
963.995216440829	3108.19995117188
964.696279446353	3128.19995117188
965.397254078383	3157.60009765625
966.098140344714	3146.39990234375
966.798938253139	3106.39990234375
967.499647811456	3114.19995117188
968.200269027458	3100.39990234375
968.900801908937	3097.39990234375
969.601246463685	3097
970.3016026995	3059.39990234375
971.001870624169	3068.60009765625
971.702050245491	3092.39990234375
972.402141571249	3060
973.102144609245	3076.39990234375
973.802059367267	3078
974.501885853103	3102.19995117188
975.201624074541	3114.60009765625
975.901274039379	3154.19995117188
976.600835755399	3138.19995117188
977.3003092304	3135.60009765625
977.999694472158	3124.60009765625
978.698991488473	3092.60009765625
979.39820028713	3124.60009765625
980.097320875915	3109.80004882813
980.796353262618	3154.80004882813
981.495297455024	3159.80004882813
982.194153460919	3159.39990234375
982.892921288093	3164
983.591600944331	3170.19995117188
984.290192437419	3142.60009765625
984.98869577514	3125.60009765625
985.687110965282	3134
986.385438015629	3097.19995117188
987.083676933961	3081.60009765625
987.781827728069	3069.39990234375
988.479890405732	3085.60009765625
989.177864974732	3094
989.875751442857	3099.80004882813
990.573549817888	3124.60009765625
991.271260107602	3126.39990234375
991.968882319786	3138.39990234375
992.666416462217	3160
993.363862542681	3135.60009765625
994.061220568959	3122.39990234375
994.758490548823	3085.19995117188
995.455672490061	3077.60009765625
996.152766400451	3113.60009765625
996.849772287773	3112.19995117188
997.5466901598	3098.60009765625
998.243520024317	3085.39990234375
998.940261889097	3080
999.636915761923	3057.19995117188
1000.33348165057	3001.19995117188
1001.02995956281	2995.19995117188
1001.72634950643	3006.39990234375
1002.42265148919	3022.60009765625
1003.11886551889	3058.60009765625
1003.81499160328	3108.80004882813
1004.51102975015	3132.39990234375
1005.20697996727	3163.60009765625
1005.90284226242	3156
1006.59861664337	3136.19995117188
1007.2943031179	3133.60009765625
1007.98990169377	3136
1008.68541237876	3150.19995117188
1009.38083518064	3163
1010.07617010719	3178.19995117188
1010.77141716617	3158
1011.46657636536	3144.60009765625
1012.16164771253	3130.60009765625
1012.85663121546	3124.39990234375
1013.5515268819	3106.19995117188
1014.24633471963	3104.19995117188
1014.94105473642	3097
1015.63568694004	3124.80004882813
1016.33023133826	3129.19995117188
1017.02468793885	3130
1017.71905674957	3129.19995117188
1018.41333777819	3115.39990234375
1019.10753103249	3120.19995117188
1019.80163652022	3106.60009765625
1020.49565424916	3092
1021.18958422707	3116
1021.88342646171	3100.60009765625
1022.57718096085	3105
1023.27084773227	3115.19995117188
1023.96442678371	3112
1024.65791812296	3122
1025.35132175776	3083.19995117188
1026.04463769589	3053.80004882813
1026.73786594511	3034.60009765625
1027.43100651318	3006.80004882813
1028.12405940786	3017.39990234375
1028.81702463692	2974.60009765625
1029.50990220812	2988.80004882813
1030.20269212921	2975.60009765625
1030.89539440798	2986.60009765625
1031.58800905216	2948.39990234375
1032.28053606952	2933.19995117188
1032.97297546784	2949.60009765625
1033.66532725485	2954.80004882813
1034.35759143832	2976
1035.04976802602	2984.39990234375
1035.7418570257	2990.19995117188
1036.43385844511	2961.80004882813
1037.12577229202	2952
1037.81759857419	2980.39990234375
1038.50933729937	3023.19995117188
1039.20098847531	3048.39990234375
1039.89255210978	3069.80004882813
1040.58402821053	3061
1041.27541678532	3059.60009765625
1041.96671784191	3051.19995117188
1042.65793138804	3017
1043.34905743147	3058.80004882813
1044.04009597996	3066.39990234375
1044.73104704125	3109
1045.42191062312	3090.80004882813
1046.1126867333	3085.39990234375
1046.80337537955	3091.60009765625
1047.49397656962	3099.80004882813
1048.18449031127	3097.39990234375
1048.87491661225	3066.80004882813
1049.5652554803	3059.80004882813
1050.25550692319	3002.60009765625
1050.94567094865	2996
1051.63574756444	2988.60009765625
1052.32573677832	3039.39990234375
1053.01563859803	3052.60009765625
1053.70545303131	3025
1054.39518008592	3037.19995117188
1055.08481976961	3027
1055.77437209013	3027.39990234375
1056.46383705522	3028.19995117188
1057.15321467262	3009.60009765625
1057.8425049501	2990
1058.53170789539	2975.80004882813
1059.22082351624	2962.60009765625
1059.9098518204	2961
1060.59879281561	2969.39990234375
1061.28764650962	2950.80004882813
1061.97641291016	2958.19995117188
1062.665092025	2973.19995117188
1063.35368386187	3001.60009765625
1064.04218842851	2973.80004882813
1064.73060573268	2918
1065.4189357821	2933.80004882813
1066.10717858452	2920
1066.7953341477	2924.80004882813
1067.48340247936	2895.39990234375
1068.17138358725	2887.80004882813
1068.85927747912	2907.60009765625
1069.5470841627	2940.39990234375
1070.23480364573	2966.80004882813
1070.92243593595	2972.19995117188
1071.60998104111	2975.39990234375
1072.29743896894	2985.19995117188
1072.98480972718	2987.60009765625
1073.67209332357	3016.60009765625
1074.35928976585	3008
1075.04639906176	3050.60009765625
1075.73342121903	3051.60009765625
1076.42035624541	3053.39990234375
1077.10720414862	3056
1077.79396493641	3052.19995117188
1078.48063861651	3033.80004882813
1079.16722519666	3013.80004882813
1079.85372468459	2976.19995117188
1080.54013708804	2966.80004882813
1081.22646241474	2967.80004882813
1081.91270067243	2981
1082.59885186884	2998
1083.28491601171	2995.80004882813
1083.97089310877	3040.39990234375
1084.65678316774	3037.80004882813
1085.34258619637	3060.80004882813
1086.02830220239	3067.19995117188
1086.71393119352	3044.19995117188
1087.39947317751	3053.39990234375
1088.08492816207	3061.39990234375
1088.77029615495	3070.60009765625
1089.45557716387	3070
1090.14077119656	3049.39990234375
1090.82587826075	3064.60009765625
1091.51089836417	3019.19995117188
1092.19583151456	3049.80004882813
1092.88067771963	3044.60009765625
1093.56543698712	3007.80004882813
1094.25010932475	2982.39990234375
1094.93469474026	3009.19995117188
1095.61919324137	2989.19995117188
1096.3036048358	3021.19995117188
1096.98792953129	3004.19995117188
1097.67216733555	3016.39990234375
1098.35631825632	3004.60009765625
1099.04038230132	2994
1099.72435947828	2990.39990234375
1100.40824979492	2966.60009765625
1101.09205325895	2940.80004882813
1101.77576987812	2934.39990234375
1102.45939966014	2903.80004882813
1103.14294261273	2891.60009765625
1103.82639874362	2856.80004882813
1104.50976806054	2871
1105.19305057119	2885.39990234375
1105.87624628331	2929.19995117188
1106.55935520461	2965.19995117188
1107.24237734283	2973
1107.92531270566	2994.80004882813
1108.60816130085	2986.60009765625
1109.2909231361	2963
1109.97359821914	3010.80004882813
1110.65618655768	3015.80004882813
1111.33868815946	3061.80004882813
1112.02110303217	3068
1112.70343118355	3075.80004882813
1113.3856726213	3057.39990234375
1114.06782735316	3015
1114.74989538683	3010.19995117188
1115.43187673002	2983.39990234375
1116.11377139047	2971.39990234375
1116.79557937588	2968.80004882813
1117.47730069397	3004.39990234375
1118.15893535245	3023.19995117188
1118.84048335904	3079.60009765625
1119.52194472146	3077.80004882813
1120.20331944741	3094.80004882813
1120.88460754462	3062.19995117188
1121.56580902079	3062.80004882813
1122.24692388364	3061.60009765625
1122.92795214088	3066.39990234375
1123.60889380022	3057.19995117188
1124.28974886938	3069.80004882813
1124.97051735606	3111
1125.65119926799	3124
1126.33179461286	3140.80004882813
1127.0123033984	3138.80004882813
1127.6927256323	3143.60009765625
1128.37306132229	3121.80004882813
1129.05331047606	3117.80004882813
1129.73347310134	3094
1130.41354920582	3103.39990234375
1131.09353879722	3114.60009765625
1131.77344188324	3096
1132.45325847159	3083.19995117188
1133.13298856999	3105.19995117188
1133.81263218612	3083.80004882813
1134.49218932772	3081
1135.17166000247	3072.60009765625
1135.85104421809	3060
1136.53034198227	3016.60009765625
1137.20955330274	2977.60009765625
1137.88867818718	2971.80004882813
1138.56771664331	2976.80004882813
1139.24666867883	2989.60009765625
1139.92553430144	3009.60009765625
1140.60431351885	3050.39990234375
1141.28300633876	3036.60009765625
1141.96161276887	3041.80004882813
1142.64013281689	3056.39990234375
1143.31856649051	3046
1143.99691379744	3043
1144.67517474538	3016.60009765625
1145.35334934203	3008
1146.03143759509	2987.19995117188
1146.70943951226	2950.60009765625
1147.38735510125	2907.19995117188
1148.06518436974	2905.80004882813
1148.74292732545	2946.60009765625
1149.42058397606	2895.39990234375
1150.09815432928	2891.60009765625
1150.7756383928	2942.39990234375
1151.45303617432	2946.19995117188
1152.13034768155	2939.80004882813
1152.80757292217	2983
1153.48471190389	2982
1154.16176463439	3016.19995117188
1154.83873112138	3028.80004882813
1155.51561137255	2990.39990234375
1156.1924053956	2983
1156.86911319822	2967.39990234375
1157.5457347881	3007
1158.22227017294	2997
1158.89871936044	2987
1159.57508235828	2971
1160.25135917416	2964.80004882813
1160.92754981578	2940.60009765625
1161.60365429081	2955.39990234375
1162.27967260697	2952.39990234375
1162.95560477193	2950.19995117188
1163.63145079339	2928.39990234375
1164.30721067904	2946.39990234375
1164.98288443657	2939
1165.65847207367	2953.39990234375
1166.33397359803	2952.39990234375
1167.00938901735	2928.39990234375
1167.6847183393	2969.39990234375
1168.35996157157	3004.60009765625
1169.03511872187	2991
1169.71018979787	3023
1170.38517480726	2998.39990234375
1171.06007375773	2972
1171.73488665696	2979.80004882813
1172.40961351265	2984.19995117188
1173.08425433247	2976
1173.75880912412	2972.19995117188
1174.43327789528	2992.39990234375
1175.10766065364	3049.39990234375
1175.78195740687	3044
1176.45616816267	3068.39990234375
1177.13029292871	3054
1177.80433171269	3086.60009765625
1178.47828452229	3064.39990234375
1179.15215136518	3054.60009765625
1179.82593224905	3034.19995117188
1180.49962718159	3035.60009765625
1181.17323617047	3077.19995117188
1181.84675922337	3086
1182.52019634799	3118.39990234375
1183.193547552	3111.80004882813
1183.86681284307	3125.60009765625
1184.53999222889	3144.80004882813
1185.21308571714	3132.19995117188
1185.8860933155	3115.39990234375
1186.55901503165	3126.80004882813
1187.23185087326	3125.60009765625
1187.90460084802	3120.19995117188
1188.5772649636	3121
1189.24984322768	3116.60009765625
1189.92233564794	3133
1190.59474223206	3125
1191.2670629877	3129.80004882813
1191.93929792255	3187.60009765625
1192.61144704428	3162.39990234375
1193.28351036058	3142
1193.9554878791	3097.60009765625
1194.62737960754	3120.60009765625
1195.29918555356	3135.80004882813
1195.97090572483	3122.60009765625
1196.64254012903	3104.80004882813
1197.31408877384	3114.19995117188
1197.98555166693	3110.80004882813
1198.65692881596	3077.39990234375
1199.32822022862	3096.39990234375
1199.99942591256	3047.80004882813
1200.67054587548	3039.39990234375
1201.34158012503	3043.80004882813
1202.01252866889	3030.39990234375
1202.68339151473	3038.80004882813
1203.35416867021	3013
1204.02486014301	2993.80004882813
1204.6954659408	3012.39990234375
1205.36598607124	3008
1206.03642054201	3016
1206.70676936078	3040.80004882813
1207.3770325352	3057
1208.04721007295	3019
1208.7173019817	3016.80004882813
1209.38730826911	2984
1210.05722894285	2958.60009765625
1210.72706401059	2946.19995117188
1211.39681347999	2921.60009765625
1212.06647735872	2920.80004882813
1212.73605565444	2934.80004882813
1213.40554837481	2917.80004882813
1214.07495552751	2929.19995117188
1214.74427712019	2927.60009765625
1215.41351316052	2920.80004882813
1216.08266365617	2919.60009765625
1216.75172861479	2927.60009765625
1217.42070804405	2937.19995117188
1218.0896019516	2966
1218.75841034513	2957.19995117188
1219.42713323227	2963.39990234375
1220.0957706207	2997
1220.76432251808	3004.19995117188
1221.43278893207	3002.60009765625
1222.10116987032	3009.60009765625
1222.7694653405	3005.60009765625
1223.43767535026	3007
1224.10579990727	2999.80004882813
1224.77383901918	2956.60009765625
1225.44179269366	2946.39990234375
1226.10966093835	2929
1226.77744376093	2926.80004882813
1227.44514116904	2931
1228.11275317034	2914
1228.78027977249	2919.19995117188
1229.44772098315	2919.19995117188
1230.11507680996	2900.39990234375
1230.7823472606	2890.60009765625
1231.44953234271	2919.80004882813
1232.11663206394	2900
1232.78364643195	2912.39990234375
1233.4505754544	2895.39990234375
1234.11741913894	2910
1234.78417749322	2917.39990234375
1235.45085052489	2890.19995117188
1236.11743824162	2864.19995117188
1236.78394065104	2869.80004882813
1237.45035776082	2860.60009765625
1238.1166895786	2881
1238.78293611204	2925.80004882813
1239.44909736878	2930.80004882813
1240.11517335648	2911.39990234375
1240.78116408279	2881.19995117188
1241.44706955535	2888.39990234375
1242.11288978182	2857.19995117188
1242.77862476985	2860.39990234375
1243.44427452708	2844.19995117188
1244.10983906116	2839.19995117188
1244.77531837974	2848
1245.44071249047	2863.19995117188
1246.106021401	2874.19995117188
1246.77124511898	2877
1247.43638365204	2860.19995117188
1248.10143700783	2889
1248.76640519401	2879.80004882813
1249.43128821822	2862
1250.0960860881	2858.39990234375
1250.76079881129	2853.60009765625
1251.42542639545	2829.60009765625
1252.08996884822	2835.80004882813
1252.75442617723	2837.39990234375
1253.41879839014	2842.19995117188
1254.08308549458	2875
1254.74728749821	2871.80004882813
1255.41140440866	2871.39990234375
1256.07543623357	2891.19995117188
1256.73938298059	2852.80004882813
1257.40324465735	2864
1258.0670212715	2831.60009765625
1258.73071283068	2848.60009765625
1259.39431934253	2855.80004882813
1260.05784081468	2871.19995117188
1260.72127725479	2870.60009765625
1261.38462867049	2853.80004882813
1262.0478950694	2854
1262.71107645919	2845.39990234375
1263.37417284748	2832
1264.03718424191	2865.19995117188
1264.70011065011	2872.60009765625
1265.36295207974	2889
1266.02570853841	2907.39990234375
1266.68838003378	2902.80004882813
1267.35096657346	2899.39990234375
1268.01346816511	2886.39990234375
1268.67588481636	2867.60009765625
1269.33821653483	2838.19995117188
1270.00046332817	2815.60009765625
1270.66262520401	2857.60009765625
1271.32470216998	2861.19995117188
1271.98669423372	2839.19995117188
1272.64860140285	2813.80004882813
1273.31042368503	2805.19995117188
1273.97216108786	2816.19995117188
1274.633813619	2847.39990234375
1275.29538128606	2879
1275.95686409669	2884.60009765625
1276.6182620585	2871.60009765625
1277.27957517914	2879
1277.94080346624	2850
1278.60194692741	2876.39990234375
1279.2630055703	2877.19995117188
1279.92397940253	2864.19995117188
1280.58486843173	2852.80004882813
1281.24567266552	2858.39990234375
1281.90639211155	2830.39990234375
1282.56702677743	2830.19995117188
1283.2275766708	2831.80004882813
1283.88804179927	2826
1284.54842217049	2806.80004882813
1285.20871779206	2795.19995117188
1285.86892867163	2800.80004882813
1286.52905481681	2843.60009765625
1287.18909623523	2840.80004882813
1287.84905293452	2839.80004882813
1288.5089249223	2845.80004882813
1289.16871220619	2857.60009765625
1289.82841479383	2880.80004882813
1290.48803269282	2912.39990234375
1291.1475659108	2916.19995117188
1291.80701445539	2876.39990234375
1292.46637833421	2855.80004882813
1293.12565755489	2842.80004882813
1293.78485212504	2826.80004882813
1294.44396205229	2803.60009765625
1295.10298734425	2790.80004882813
1295.76192800856	2849.80004882813
1296.42078405283	2839.60009765625
1297.07955548467	2868
1297.73824231171	2865.39990234375
1298.39684454158	2882.60009765625
1299.05536218188	2890.19995117188
1299.71379524023	2931.39990234375
1300.37214372427	2892.60009765625
1301.03040764159	2882
1301.68858699983	2884
1302.34668180659	2889.80004882813
1303.0046920695	2881.39990234375
1303.66261779617	2894.19995117188
1304.32045899422	2920.39990234375
1304.97821567126	2944.60009765625
1305.63588783492	2955.60009765625
1306.29347549279	2941.39990234375
1306.95097865251	2959
1307.60839732168	2943
1308.26573150791	2973.80004882813
1308.92298121883	2949.19995117188
1309.58014646204	2912.39990234375
1310.23722724517	2940.39990234375
1310.89422357581	2941
1311.55113546158	2953.60009765625
1312.2079629101	2942.60009765625
1312.86470592898	2947.19995117188
1313.52136452582	2972.19995117188
1314.17793870824	2973.39990234375
1314.83442848386	2965.80004882813
1315.49083386027	2983.80004882813
1316.14715484509	2980
1316.80339144594	2976.19995117188
1317.45954367041	2996.60009765625
1318.11561152611	2988.19995117188
1318.77159502067	3013.39990234375
1319.42749416168	2989
1320.08330895674	2978.19995117188
1320.73903941348	2970.19995117188
1321.3946855395	2945.80004882813
1322.0502473424	2944.19995117188
1322.70572482978	2905
1323.36111800926	2898.60009765625
1324.01642688845	2909.60009765625
1324.67165147494	2922
1325.32679177634	2945.39990234375
1325.98184780025	2931.39990234375
1326.63681955429	2917.80004882813
1327.29170704605	2885.19995117188
1327.94651028314	2884.60009765625
1328.60122927316	2839
1329.25586402371	2833.60009765625
1329.9104145424	2824.19995117188
1330.56488083683	2833.19995117188
1331.2192629146	2812.80004882813
1331.87356078331	2831.80004882813
1332.52777445056	2847.19995117188
1333.18190392395	2860.80004882813
1333.83594921109	2844.60009765625
1334.48991031958	2822.60009765625
1335.143787257	2817.80004882813
1335.79758003097	2823.60009765625
1336.45128864908	2819.39990234375
1337.10491311893	2827.80004882813
1337.75845344813	2830.60009765625
1338.41190964425	2827.39990234375
1339.06528171491	2831.80004882813
1339.71856966771	2792.80004882813
1340.37177351023	2798
1341.02489325007	2799.80004882813
1341.67792889484	2792.60009765625
1342.33088045212	2753
1342.98374792952	2744
1343.63653133462	2766.19995117188
1344.28923067503	2777.60009765625
1344.94184595833	2823
1345.59437719212	2847.19995117188
1346.246824384	2867
1346.89918754155	2888
1347.55146667238	2896.60009765625
1348.20366178407	2882.60009765625
1348.85577288421	2876
1349.50779998041	2884
1350.15974308024	2873
1350.8116021913	2889.60009765625
1351.46337732119	2908.60009765625
1352.11506847748	2928.80004882813
1352.76667566778	2942.39990234375
1353.41819889967	2956
1354.06963818074	2962
1354.72099351858	3002.19995117188
1355.37226492079	2997.39990234375
1356.02345239494	2989.19995117188
1356.67455594862	3023.60009765625
1357.32557558943	3073.19995117188
1357.97651132496	3112.19995117188
1358.62736316277	3139
1359.27813111048	3181
1359.92881517565	3221.39990234375
1360.57941536589	3245.39990234375
1361.22993168876	3289
1361.88036415186	3325.19995117188
1362.53071276278	3295.19995117188
1363.1809775291	3337.80004882813
1363.8311584584	3339.80004882813
1364.48125555826	3291.60009765625
1365.13126883627	3256.19995117188
1365.78119830001	3196.39990234375
1366.43104395707	3126.80004882813
1367.08080581503	3060.80004882813
1367.73048388147	3040.19995117188
1368.38007816397	3007.19995117188
1369.02958867011	2979.19995117188
1369.67901540748	2996.19995117188
1370.32835838365	2946
1370.9776176062	2933.80004882813
1371.62679308273	2925.39990234375
1372.27588482079	2936.60009765625
1372.92489282798	2959
1373.57381711188	2945.19995117188
1374.22265768006	2916
1374.87141454009	2888.80004882813
1375.52008769957	2854.60009765625
1376.16867716606	2809.39990234375
1376.81718294715	2833.80004882813
1377.4656050504	2802.60009765625
1378.1139434834	2781.39990234375
1378.76219825373	2802.80004882813
1379.41036936895	2815
1380.05845683664	2789.19995117188
1380.70646066439	2810.60009765625
1381.35438085976	2807.19995117188
1382.00221743032	2791.60009765625
1382.64997038366	2821.60009765625
1383.29763972735	2793
1383.94522546895	2833.80004882813
1384.59272761605	2818
1385.24014617621	2822
1385.88748115701	2803
1386.53473256602	2776
1387.18190041081	2785.80004882813
1387.82898469895	2778
1388.47598543802	2768.39990234375
1389.12290263558	2765.39990234375
1389.7697362992	2745.39990234375
1390.41648643646	2701.60009765625
1391.06315305492	2692.39990234375
1391.70973616215	2672.19995117188
1392.35623576573	2662.80004882813
1393.00265187321	2680.19995117188
1393.64898449217	2693.60009765625
1394.29523363018	2705.60009765625
1394.94139929481	2712.80004882813
1395.58748149361	2724.19995117188
1396.23348023415	2714.39990234375
1396.87939552402	2692.80004882813
1397.52522737076	2624.19995117188
1398.17097578195	2619
1398.81664076514	2587.60009765625
1399.46222232792	2585
1400.10772047783	2573.19995117188
1400.75313522245	2559.80004882813
1401.39846656934	2603.39990234375
1402.04371452605	2609.80004882813
1402.68887910016	2635.19995117188
1403.33396029924	2636.19995117188
1403.97895813083	2617.80004882813
1404.6238726025	2627
1405.26870372182	2623.60009765625
1405.91345149634	2621
1406.55811593363	2621.39990234375
1407.20269704125	2616.39990234375
1407.84719482676	2600.19995117188
1408.49160929772	2598.80004882813
1409.13594046168	2625.80004882813
1409.78018832622	2617.80004882813
1410.42435289887	2635.80004882813
1411.06843418722	2634.60009765625
1411.7124321988	2633.39990234375
1412.3563469412	2652.19995117188
1413.00017842194	2674.39990234375
1413.64392664861	2684.19995117188
1414.28759162875	2703
1414.93117336992	2695
1415.57467187967	2691.19995117188
1416.21808716557	2682
1416.86141923516	2695.19995117188
1417.50466809601	2702.19995117188
1418.14783375567	2702.19995117188
1418.79091622169	2693.60009765625
1419.43391550162	2696.39990234375
1420.07683160303	2702.39990234375
1420.71966453346	2682.19995117188
1421.36241430046	2671.80004882813
1422.0050809116	2665.19995117188
1422.64766437442	2689.19995117188
1423.29016469647	2694.39990234375
1423.93258188531	2722.39990234375
1424.57491594848	2718.19995117188
1425.21716689354	2732.60009765625
1425.85933472805	2759.19995117188
1426.50141945954	2732.19995117188
1427.14342109557	2729.39990234375
1427.78533964369	2700.19995117188
1428.42717511144	2703.60009765625
1429.06892750639	2667.80004882813
1429.71059683607	2659.60009765625
1430.35218310803	2649
1430.99368632983	2665.19995117188
1431.635106509	2663.19995117188
1432.2764436531	2672.39990234375
1432.91769776967	2658.19995117188
1433.55886886627	2672.80004882813
1434.19995695043	2664.19995117188
1434.84096202969	2691.80004882813
1435.48188411162	2670.19995117188
1436.12272320375	2680.19995117188
1436.76347931363	2658
1437.40415244879	2623
1438.0447426168	2635.39990234375
1438.68524982518	2645.19995117188
1439.32567408148	2637.19995117188
1439.96601539325	2619
1440.60627376803	2622.80004882813
1441.24644921336	2627.19995117188
1441.88654173678	2633.60009765625
1442.52655134583	2616.39990234375
1443.16647804806	2612.80004882813
1443.806321851	2608
1444.4460827622	2622.80004882813
1445.0857607892	2610.80004882813
1445.72535593953	2600.39990234375
1446.36486822074	2591.19995117188
1447.00429764037	2598.60009765625
1447.64364420595	2605
1448.28290792502	2597.19995117188
1448.92208880512	2589
1449.56118685379	2598.60009765625
1450.20020207857	2591.60009765625
1450.83913448699	2603.60009765625
1451.47798408659	2615.39990234375
1452.1167508849	2606.60009765625
1452.75543488947	2590.80004882813
1453.39403610782	2583
1454.0325545475	2580.39990234375
1454.67099021603	2583.60009765625
1455.30934312097	2617.19995117188
1455.94761326982	2633.39990234375
1456.58580067014	2614.19995117188
1457.22390532945	2621.60009765625
1457.86192725529	2591.60009765625
1458.49986645519	2606.19995117188
1459.13772293668	2591.19995117188
1459.7754967073	2578.19995117188
1460.41318777457	2568
1461.05079614604	2558
1461.68832182922	2555.39990234375
1462.32576483166	2538.19995117188
1462.96312516087	2546.60009765625
1463.6004028244	2549.39990234375
1464.23759782977	2573
1464.8747101845	2603
1465.51173989614	2634.19995117188
1466.14868697221	2644.19995117188
1466.78555142024	2617
1467.42233324774	2649.19995117188
1468.05903246227	2631.80004882813
1468.69564907133	2586
1469.33218308246	2598.39990234375
1469.96863450317	2596.19995117188
1470.60500334102	2588
1471.2412896035	2618
1471.87749329816	2628.60009765625
1472.51361443251	2628
1473.14965301409	2638.39990234375
1473.78560905041	2645.19995117188
1474.421482549	2628.39990234375
1475.05727351739	2631.60009765625
1475.69298196309	2629.19995117188
1476.32860789364	2613.19995117188
1476.96415131654	2599.19995117188
1477.59961223934	2574.39990234375
1478.23499066954	2569.80004882813
1478.87028661467	2563
1479.50550008226	2551
1480.14063107981	2581
1480.77567961486	2573
1481.41064569492	2572.80004882813
1482.04552932752	2580.60009765625
1482.68033052017	2574.39990234375
1483.31504928039	2574
1483.9496856157	2604
1484.58423953363	2595
1485.21871104168	2589.60009765625
1485.85310014738	2621.39990234375
1486.48740685824	2601.19995117188
1487.12163118178	2597.39990234375
1487.75577312553	2594.60009765625
1488.38983269698	2591.39990234375
1489.02380990367	2580.19995117188
1489.65770475311	2610.80004882813
1490.29151725281	2614.39990234375
1490.92524741029	2616.19995117188
1491.55889523306	2590.39990234375
1492.19246072863	2619.19995117188
1492.82594390453	2603
1493.45934476826	2615.19995117188
1494.09266332734	2641.39990234375
1494.72589958928	2671
1495.3590535616	2655.39990234375
1495.99212525181	2655.60009765625
1496.62511466741	2650.39990234375
1497.25802181592	2617.19995117188
1497.89084670485	2617.60009765625
1498.52358934172	2648.39990234375
1499.15624973403	2646.39990234375
1499.7888278893	2673.80004882813
1500.42132381503	2683.39990234375
1501.05373751873	2684.19995117188
1501.68606900792	2738.80004882813
1502.31831829009	2777.19995117188
1502.95048537277	2787.19995117188
1503.58257026346	2808.80004882813
1504.21457296966	2880
1504.84649349889	2909
1505.47833185864	2933
1506.11008805644	2955.19995117188
1506.74176209978	2950.39990234375
1507.37335399617	2936.39990234375
1508.00486375312	2924.60009765625
1508.63629137813	2915.19995117188
1509.2676368787	2879
1509.89890026235	2907.19995117188
1510.53008153658	2919.60009765625
1511.16118070889	2904.19995117188
1511.79219778677	2952.39990234375
1512.42313277775	2905.19995117188
1513.05398568932	2846.80004882813
1513.68475652898	2861.80004882813
1514.31544530424	2860.19995117188
1514.9460520226	2842.39990234375
1515.57657669155	2800.80004882813
1516.20701931861	2769.19995117188
1516.83737991127	2725
1517.46765847702	2688.19995117188
1518.09785502339	2698
1518.72796955785	2692.60009765625
1519.35800208792	2697.39990234375
1519.98795262109	2675.60009765625
1520.61782116486	2689
1521.24760772673	2684.60009765625
1521.87731231419	2662
1522.50693493475	2685
1523.1364755959	2664.80004882813
1523.76593430514	2641.19995117188
1524.39531106997	2653.60009765625
1525.02460589788	2647.19995117188
1525.65381879637	2665.60009765625
1526.28294977293	2658.39990234375
1526.91199883507	2606.60009765625
1527.54096599027	2573.19995117188
1528.16985124603	2577.60009765625
1528.79865460984	2595.19995117188
1529.4273760892	2593.39990234375
1530.05601569161	2587.19995117188
1530.68457342455	2625
1531.31304929552	2629.80004882813
1531.94144331201	2611.19995117188
1532.56975548151	2636
1533.19798581152	2633
1533.82613430953	2629.80004882813
1534.45420098302	2652.80004882813
1535.08218583949	2645.60009765625
1535.71008888643	2609.39990234375
1536.33791013134	2612.80004882813
1536.96564958169	2599
1537.59330724498	2627.39990234375
1538.22088312871	2618.39990234375
1538.84837724034	2582.19995117188
1539.47578958739	2596.80004882813
1540.10312017733	2583.60009765625
1540.73036901765	2570.60009765625
1541.35753611584	2558.80004882813
1541.98462147939	2541.39990234375
1542.61162511578	2539.80004882813
1543.2385470325	2558.19995117188
1543.86538723704	2566.80004882813
1544.49214573688	2559.39990234375
1545.11882253951	2566.39990234375
1545.74541765241	2587.60009765625
1546.37193108306	2607.80004882813
1546.99836283896	2599.60009765625
1547.62471292758	2584.60009765625
1548.25098135641	2537
1548.87716813294	2502
1549.50327326464	2499
1550.12929675899	2504.60009765625
1550.75523862349	2508
1551.38109886561	2514.60009765625
1552.00687749284	2536.39990234375
1552.63257451264	2541
1553.25818993252	2537.80004882813
1553.88372375994	2512.19995117188
1554.50917600239	2474.60009765625
1555.13454666734	2461.80004882813
1555.75983576228	2459.80004882813
1556.38504329469	2472.60009765625
1557.01016927204	2458.19995117188
1557.63521370181	2438
1558.26017659149	2461.60009765625
1558.88505794854	2501.80004882813
1559.50985778045	2516.39990234375
1560.13457609469	2511.60009765625
1560.75921289874	2497.80004882813
1561.38376820008	2507
1562.00824200618	2511.39990234375
1562.63263432452	2514.60009765625
1563.25694516257	2527.60009765625
1563.88117452781	2526.39990234375
1564.50532242772	2527.19995117188
1565.12938886976	2501
1565.75337386141	2501.80004882813
1566.37727741015	2504.60009765625
1567.00109952345	2523
1567.62484020878	2544
1568.24849947361	2529
1568.87207732542	2540.19995117188
1569.49557377168	2574.39990234375
1570.11898881986	2571.80004882813
1570.74232247743	2593.80004882813
1571.36557475186	2616.80004882813
1571.98874565062	2622.80004882813
1572.61183518119	2641
1573.23484335103	2643.80004882813
1573.85777016761	2690
1574.4806156384	2687.60009765625
1575.10337977088	2682.39990234375
1575.7260625725	2664.19995117188
1576.34866405074	2654.80004882813
1576.97118421306	2621.19995117188
1577.59362306694	2642.80004882813
1578.21598061984	2648
1578.83825687922	2634.80004882813
1579.46045185255	2617.19995117188
1580.08256554731	2587.39990234375
1580.70459797094	2583.39990234375
1581.32654913093	2560.60009765625
1581.94841903473	2562
1582.57020768981	2527.60009765625
1583.19191510364	2520.19995117188
1583.81354128367	2495.19995117188
1584.43508623737	2463.80004882813
1585.05654997221	2488.39990234375
1585.67793249564	2465
1586.29923381514	2456.39990234375
1586.92045393815	2449.39990234375
1587.54159287216	2447
1588.1626506246	2454.39990234375
1588.78362720296	2456.19995117188
1589.40452261468	2437.39990234375
1590.02533686724	2421.80004882813
1590.64606996808	2424.80004882813
1591.26672192467	2405.80004882813
1591.88729274447	2389.60009765625
1592.50778243493	2385.80004882813
1593.12819100352	2383.19995117188
1593.7485184577	2387.80004882813
1594.36876480492	2376.60009765625
1594.98893005264	2376.39990234375
1595.60901420832	2366.39990234375
1596.22901727941	2350.39990234375
1596.84893927338	2382.80004882813
1597.46878019767	2379
1598.08854005975	2380.60009765625
1598.70821886707	2397.80004882813
1599.32781662708	2450.19995117188
1599.94733334725	2413.39990234375
1600.56676903502	2399
1601.18612369785	2391
1601.8053973432	2380
1602.42458997851	2364.60009765625
1603.04370161124	2337
1603.66273224884	2312.60009765625
1604.28168189878	2296.60009765625
1604.90055056849	2275
1605.51933826543	2276.39990234375
1606.13804499705	2276.39990234375
1606.75667077081	2318.80004882813
1607.37521559415	2322.19995117188
1607.99367947452	2334.60009765625
1608.61206241938	2331.39990234375
1609.23036443618	2340.60009765625
1609.84858553236	2324.39990234375
1610.46672571537	2332.19995117188
1611.08478499267	2321.39990234375
1611.7027633717	2339.60009765625
1612.3206608599	2335.80004882813
1612.93847746473	2326.19995117188
1613.55621319364	2329
1614.17386805407	2307
1614.79144205347	2297.19995117188
1615.40893519928	2303.60009765625
1616.02634749895	2296.60009765625
1616.64367895993	2260.80004882813
1617.26092958966	2253.80004882813
1617.87809939559	2241.80004882813
1618.49518838516	2277.19995117188
1619.11219656582	2268
1619.729123945	2272.39990234375
1620.34597053016	2257.39990234375
1620.96273632874	2279.80004882813
1621.57942134818	2282.19995117188
1622.19602559592	2252.80004882813
1622.8125490794	2261.39990234375
1623.42899180607	2266.80004882813
1624.04535378337	2234.19995117188
1624.66163501874	2242.60009765625
1625.27783551963	2242.39990234375
1625.89395529346	2246.80004882813
1626.50999434768	2235.80004882813
1627.12595268974	2230.39990234375
1627.74183032707	2224
1628.3576272671	2205.39990234375
1628.97334351729	2197.19995117188
1629.58897908506	2182.19995117188
1630.20453397786	2179.80004882813
1630.82000820313	2226
1631.43540176829	2209
1632.05071468079	2226
1632.66594694807	2230.80004882813
1633.28109857756	2237.39990234375
1633.8961695767	2243.80004882813
1634.51115995292	2243
1635.12606971366	2218
1635.74089886636	2226.19995117188
1636.35564741844	2251.39990234375
1636.97031537734	2249
1637.58490275051	2253
1638.19940954536	2248.80004882813
1638.81383576934	2254.60009765625
1639.42818142987	2275.19995117188
1640.0424465344	2262.80004882813
1640.65663109034	2299.39990234375
1641.27073510515	2311.80004882813
1641.88475858623	2305.19995117188
1642.49870154104	2291.39990234375
1643.11256397699	2300
1643.72634590152	2293.39990234375
1644.34004732206	2333.60009765625
1644.95366824604	2356.19995117188
1645.56720868089	2377.80004882813
1646.18066863404	2384.60009765625
1646.79404811291	2396.60009765625
1647.40734712494	2428.19995117188
1648.02056567755	2459.80004882813
1648.63370377817	2455
1649.24676143423	2469.19995117188
1649.85973865316	2478.60009765625
1650.47263544238	2492.19995117188
1651.08545180932	2484.60009765625
1651.6981877614	2493.60009765625
1652.31084330606	2443.60009765625
1652.92341845071	2411.80004882813
1653.53591320278	2369.80004882813
1654.1483275697	2343
1654.7606615589	2355.80004882813
1655.37291517778	2319.19995117188
1655.98508843379	2301.19995117188
1656.59718133434	2293.39990234375
1657.20919388685	2253.60009765625
1657.82112609875	2253.19995117188
1658.43297797747	2239
1659.04474953041	2227
1659.65644076501	2211
1660.26805168869	2191.80004882813
1660.87958230886	2170
1661.49103263294	2156.80004882813
1662.10240266837	2154.60009765625
1662.71369242255	2144.60009765625
1663.32490190291	2152.39990234375
1663.93603111687	2154.19995117188
1664.54708007184	2156.80004882813
1665.15804877524	2149.19995117188
1665.7689372345	2138.80004882813
1666.37974545703	2153.39990234375
1666.99047345024	2166
1667.60112122156	2162
1668.2116887784	2123.19995117188
1668.82217612818	2102.19995117188
1669.43258327831	2103.60009765625
1670.04291023622	2070.60009765625
1670.65315700931	2051.39990234375
1671.263323605	2008.40002441406
1671.8734100307	1999.19995117188
1672.48341629384	1988.80004882813
1673.09334240182	1977.80004882813
1673.70318836206	1966.19995117188
1674.31295418197	1960.59997558594
1674.92263986896	1966.40002441406
1675.53224543046	1982.59997558594
1676.14177087386	1981.59997558594
1676.75121620658	1998.80004882813
1677.36058143604	1999.59997558594
1677.96986656964	2004.40002441406
1678.5790716148	2016
1679.18819657892	2012.40002441406
1679.79724146943	2021
1680.40620629372	2047
1681.0150910592	2081.19995117188
1681.6238957733	2108.39990234375
1682.23262044341	2081
1682.84126507694	2078.19995117188
1683.4498296813	2073.60009765625
1684.0583142639	2081.80004882813
1684.66671883216	2071.80004882813
1685.27504339346	2062.19995117188
1685.88328795523	2052.60009765625
1686.49145252487	2039.59997558594
1687.09953710978	2018.59997558594
1687.70754171737	2034
1688.31546635505	2042.80004882813
1688.92331103021	2042.80004882813
1689.53107575028	2061.60009765625
1690.13876052265	2078.60009765625
1690.74636535472	2061.19995117188
1691.3538902539	2047.59997558594
1691.96133522759	2037.19995117188
1692.5687002832	2000.80004882813
1693.17598542812	2002.40002441406
1693.78319066977	1964.19995117188
1694.39031601554	1967
1694.99736147283	1962.80004882813
1695.60432704905	1990
1696.2112127516	2016.19995117188
1696.81801858788	2032
1697.42474456528	2027.40002441406
1698.03139069121	2030.40002441406
1698.63795697307	2004.40002441406
1699.24444341826	2009
1699.85085003417	1983
1700.45717682821	1956.80004882813
1701.06342380778	1992.40002441406
1701.66959098026	1968.80004882813
1702.27567835307	1977.40002441406
1702.88168593359	1969.80004882813
1703.48761372922	1952.40002441406
1704.09346174737	1956
1704.69922999542	1956
1705.30491848077	1945.80004882813
1705.91052721083	1954.19995117188
1706.51605619297	1986
1707.12150543461	1992.80004882813
1707.72687494312	1957.80004882813
1708.33216472592	1924.80004882813
1708.93737479039	1910.19995117188
1709.54250514392	1904.59997558594
