634.977642221345	2266.80004882813
635.719821695905	2265.19995117188
636.461909203392	2276.39990234375
637.203904751776	2266.60009765625
637.945808349023	2288.39990234375
638.687620003102	2319.60009765625
639.42933972198	2298.80004882813
640.170967513616	2295.39990234375
640.912503385981	2272.39990234375
641.653947347041	2251.60009765625
642.395299404758	2259.19995117188
643.13655956709	2224.60009765625
643.877727842014	2213.19995117188
644.61880423748	2208.80004882813
645.359788761455	2189.60009765625
646.100681421905	2188.60009765625
646.841482226789	2228.60009765625
647.582191184074	2223.39990234375
648.322808301711	2233.39990234375
649.06333358767	2225.80004882813
649.803767049909	2221.19995117188
650.544108696385	2226.60009765625
651.28435853506	2272.19995117188
652.024516573894	2288.39990234375
652.764582820849	2271.80004882813
653.504557283875	2298.80004882813
654.244439970937	2324.60009765625
654.984230889991	2314.39990234375
655.723930048995	2322.80004882813
656.463537455909	2324.60009765625
657.203053118683	2334.39990234375
657.942477045275	2334.39990234375
658.681809243647	2336.39990234375
659.421049721747	2339.80004882813
660.160198487535	2328.19995117188
660.899255548962	2331.80004882813
661.638220913985	2375
662.377094590559	2367.39990234375
663.115876586631	2373.60009765625
663.854566910165	2365.80004882813
664.593165569107	2361.60009765625
665.331672571406	2328.19995117188
666.07008792502	2324.80004882813
666.808411637902	2300.39990234375
667.546643717996	2299.60009765625
668.284784173258	2283
669.022833011641	2291.39990234375
669.760790241089	2275.80004882813
670.498655869554	2291.80004882813
671.236429904987	2291.39990234375
671.97411235534	2302.19995117188
672.711703228551	2324.80004882813
673.449202532577	2352.39990234375
674.186610275364	2372.19995117188
674.923926464857	2385.39990234375
675.661151109008	2386
676.398284215759	2378.60009765625
677.135325793058	2390.19995117188
677.87227584885	2390.60009765625
678.609134391082	2424.39990234375
679.345901427696	2445.39990234375
680.082576966644	2438.60009765625
680.819161015861	2408.80004882813
681.555653583298	2389
682.292054676895	2396.39990234375
683.028364304594	2352.19995117188
683.764582474344	2329.80004882813
684.500709194083	2315.39990234375
685.236744471752	2319.80004882813
685.972688315294	2318.39990234375
686.708540732652	2327.39990234375
687.444301731762	2340.19995117188
688.179971320572	2333
688.915549507013	2338.39990234375
689.651036299034	2331
690.386431704569	2330
691.121735731559	2321
691.85694838794	2315.19995117188
692.592069681652	2305.39990234375
693.327099620632	2293
694.062038212821	2307.60009765625
694.796885466149	2301.39990234375
695.531641388561	2324
696.266305987987	2340.80004882813
697.000879272367	2363.60009765625
697.735361249632	2378.19995117188
698.469751927722	2375.19995117188
699.204051314568	2373
699.938259418107	2354.19995117188
700.672376246272	2372.60009765625
701.406401806997	2377.19995117188
702.140336108212	2380.39990234375
702.874179157855	2367.39990234375
703.607930963856	2359.19995117188
704.341591534147	2368.60009765625
705.07516087666	2356.19995117188
705.808638999324	2370.19995117188
706.542025910073	2377
707.275321616841	2405.39990234375
708.008526127549	2380.60009765625
708.741639450132	2403.80004882813
709.474661592521	2375.60009765625
710.207592562641	2376.19995117188
710.940432368424	2378.80004882813
711.673181017796	2388.60009765625
712.405838518687	2382.19995117188
713.138404879025	2363
713.870880106731	2353.80004882813
714.603264209738	2391.19995117188
715.335557195971	2403.80004882813
716.067759073357	2413.60009765625
716.799869849816	2438.19995117188
717.531889533281	2424.60009765625
718.263818131673	2409.39990234375
718.995655652917	2415.80004882813
719.727402104934	2373.80004882813
720.45905749565	2386.19995117188
721.19062183299	2378.39990234375
721.922095124877	2359.80004882813
722.653477379231	2352.80004882813
723.384768603973	2380.80004882813
724.11596880703	2377
724.847077996319	2391.80004882813
725.578096179762	2393.39990234375
726.309023365281	2365
727.039859560792	2400.80004882813
727.770604774222	2420.39990234375
728.501259013484	2391.60009765625
729.231822286501	2418.19995117188
729.962294601191	2439.19995117188
730.692675965469	2402
731.42296638726	2390.39990234375
732.153165874472	2376.19995117188
732.883274435032	2399.60009765625
733.613292076851	2403.80004882813
734.343218807843	2406.60009765625
735.07305463593	2428.19995117188
735.802799569028	2430.19995117188
736.532453615048	2394.80004882813
737.262016781904	2377.19995117188
737.991489077517	2383.60009765625
738.720870509794	2396.19995117188
739.450161086654	2397.80004882813
740.179360816009	2385
740.908469705772	2375
741.637487763854	2395.60009765625
742.366414998168	2410.60009765625
743.095251416623	2419.19995117188
743.823997027137	2436.80004882813
744.552651837618	2452.19995117188
745.281215855978	2438.19995117188
746.009689090124	2439
746.738071547964	2417.19995117188
747.466363237419	2368.19995117188
748.194564166384	2389.19995117188
748.92267434278	2379.80004882813
749.650693774504	2365
750.378622469476	2382
751.106460435596	2392.60009765625
751.834207680771	2401.80004882813
752.561864212909	2411.19995117188
753.289430039919	2416.80004882813
754.016905169707	2412.60009765625
754.744289610175	2409.60009765625
755.471583369231	2410.60009765625
756.198786454782	2434.19995117188
756.925898874728	2416.19995117188
757.652920636979	2410.39990234375
758.379851749433	2420.19995117188
759.106692219996	2426
759.833442056572	2452.80004882813
760.560101267063	2479.39990234375
761.28666985937	2510.39990234375
762.0131478414	2496.80004882813
762.739535221046	2492.60009765625
763.465832006219	2502.60009765625
764.192038204812	2524.80004882813
764.918153824731	2513.19995117188
765.644178873872	2510.19995117188
766.370113360138	2532.60009765625
767.095957291425	2525.19995117188
767.821710675635	2568
768.547373520665	2573.60009765625
769.272945834415	2609.60009765625
769.998427624781	2651.80004882813
770.723818899658	2679.39990234375
771.449119666949	2727.19995117188
772.174329934546	2723.60009765625
772.899449710347	2734
773.624479002248	2745.60009765625
774.349417818145	2742
775.074266165934	2739.19995117188
775.799024053505	2741
776.523691488757	2728.19995117188
777.248268479582	2711
777.972755033877	2649
778.69715115953	2603.80004882813
779.421456864441	2594.60009765625
780.145672156493	2553.80004882813
780.869797043587	2538.60009765625
781.593831533611	2536.60009765625
782.317775634457	2522
783.041629354012	2499.39990234375
783.765392700174	2502.60009765625
784.489065680828	2478.39990234375
785.212648303866	2456
785.936140577177	2447.60009765625
786.659542508652	2442.80004882813
787.382854106174	2454.80004882813
788.106075377639	2446.39990234375
788.829206330928	2459.39990234375
789.552246973933	2458.39990234375
790.275197314542	2459.39990234375
790.998057360638	2454.39990234375
791.720827120108	2456
792.443506600841	2454.39990234375
793.166095810722	2447.19995117188
793.888594757635	2440.19995117188
794.611003449465	2432.60009765625
795.333321894098	2458.60009765625
796.055550099417	2464.19995117188
796.777688073308	2470.80004882813
797.499735823654	2473.19995117188
798.221693358334	2447.19995117188
798.943560685235	2444
799.665337812239	2446.80004882813
800.387024747226	2449
801.108621498075	2445.80004882813
801.830128072674	2436.60009765625
802.551544478902	2466.19995117188
803.272870724636	2434.80004882813
803.994106817761	2467
804.715252766148	2443
805.436308577687	2457
806.157274260251	2432.39990234375
806.878149821721	2414.80004882813
807.598935269973	2392.39990234375
808.319630612886	2398.39990234375
809.040235858336	2401.39990234375
809.760751014202	2402.39990234375
810.481176088361	2409.19995117188
811.201511088685	2394.19995117188
811.921756023059	2399.39990234375
812.641910899347	2383.39990234375
813.361975725432	2392
814.081950509188	2389
814.801835258489	2393.60009765625
815.521629981206	2395
816.241334685218	2415.60009765625
816.960949378392	2399.39990234375
817.680474068606	2394.80004882813
818.399908763731	2383.19995117188
819.11925347164	2384.60009765625
819.838508200202	2359.39990234375
820.55767295729	2369.60009765625
821.276747750778	2347.60009765625
821.995732588531	2350.39990234375
822.714627478425	2370.80004882813
823.433432428327	2416.80004882813
824.152147446105	2406.80004882813
824.870772539632	2423
825.589307716775	2412
826.307752985404	2429.19995117188
827.026108353378	2446.39990234375
827.744373828579	2431.39990234375
828.462549418867	2402.60009765625
829.180635132107	2403.39990234375
829.898630976168	2420.19995117188
830.616536958915	2451.80004882813
831.334353088218	2447.39990234375
832.052079371938	2420.39990234375
832.769715817942	2413.19995117188
833.487262434092	2406.19995117188
834.204719228255	2419.60009765625
834.922086208293	2370.60009765625
835.639363382073	2381.80004882813
836.356550757456	2371.39990234375
837.073648342304	2390.60009765625
837.790656144484	2412
838.507574171847	2425.80004882813
839.22440243227	2409.19995117188
839.941140933601	2421.19995117188
840.657789683706	2404.80004882813
841.374348690448	2405.80004882813
842.090817961686	2414.80004882813
842.807197505276	2405.60009765625
843.523487329083	2424.19995117188
844.23968744096	2409.39990234375
844.955797848771	2385.80004882813
845.671818560374	2388.80004882813
846.387749583622	2376.60009765625
847.103590926378	2398.60009765625
847.819342596497	2379.80004882813
848.535004601833	2366.80004882813
849.25057695025	2360
849.966059649598	2351.80004882813
850.681452707735	2355.80004882813
851.396756132513	2380.80004882813
852.111969931789	2367.80004882813
852.827094113419	2388
853.542128685257	2377.60009765625
854.257073655158	2388.19995117188
854.971929030969	2424.39990234375
855.686694820551	2430
856.40137103175	2417
857.115957672423	2419
857.830454750423	2429.19995117188
858.544862273597	2405
859.259180249797	2396.60009765625
859.97340868688	2405
860.687547592688	2442
861.401596975075	2432.19995117188
862.115556841891	2416.80004882813
862.829427200985	2412
863.543208060205	2383
864.256899427402	2402.19995117188
864.970501310423	2361.60009765625
865.684013717114	2367.19995117188
866.397436655325	2388.19995117188
867.110770132901	2381.80004882813
867.824014157691	2366.39990234375
868.537168737542	2381.80004882813
869.250233880299	2397.39990234375
869.963209593803	2404.39990234375
870.676095885902	2395.60009765625
871.388892764445	2385.19995117188
872.101600237276	2380.60009765625
872.814218312233	2368.60009765625
873.526746997165	2361.60009765625
874.239186299914	2361.39990234375
874.951536228323	2349.60009765625
875.663796790231	2361
876.375967993487	2345
877.088049845928	2349.80004882813
877.8000423554	2342.80004882813
878.511945529739	2357.39990234375
879.22375937679	2353.19995117188
879.935483904388	2349.60009765625
880.64711912038	2364
881.358665032604	2380
882.070121648892	2365.60009765625
882.78148897709	2370.19995117188
883.492767025039	2369.80004882813
884.203955800571	2370.39990234375
884.915055311525	2357.60009765625
885.626065565741	2334.19995117188
886.336986571053	2343.19995117188
887.047818335298	2330
887.758560866315	2335.19995117188
888.469214171937	2323.80004882813
889.179778260005	2343.19995117188
889.890253138347	2321.19995117188
890.600638814803	2336.80004882813
891.310935297204	2312.19995117188
892.021142593385	2319
892.731260711183	2332.60009765625
893.441289658429	2345.39990234375
894.15122944295	2325
894.861080072591	2342.39990234375
895.570841555173	2319.60009765625
896.280513898534	2314.39990234375
896.990097110503	2335.39990234375
897.699591198913	2354.19995117188
898.408996171595	2395.80004882813
899.118312036375	2403.19995117188
899.827538801089	2412
900.536676473561	2385.39990234375
901.245725061628	2397.39990234375
901.954684573109	2378.39990234375
902.663555015838	2399.19995117188
903.372336397644	2406.80004882813
904.081028726351	2416
904.789632009793	2408.80004882813
905.49814625579	2396
906.20657147217	2402.80004882813
906.914907666765	2383.39990234375
907.623154847391	2371.19995117188
908.331313021885	2376.80004882813
909.039382198064	2373.19995117188
909.747362383754	2367.60009765625
910.455253586782	2371.80004882813
911.163055814972	2412.39990234375
911.870769076143	2386
912.578393378126	2399
913.285928728738	2389.19995117188
913.993375135802	2398.80004882813
914.700732607145	2385.60009765625
915.408001150579	2381
916.115180773937	2387.19995117188
916.822271485037	2393.80004882813
917.529273291693	2406.39990234375
918.236186201733	2404.19995117188
918.943010222971	2400.39990234375
919.649745363234	2414.19995117188
920.356391630333	2393.19995117188
921.062949032096	2374.80004882813
921.769417576333	2359.80004882813
922.475797270864	2354.39990234375
923.182088123512	2357.39990234375
923.888290142089	2344.19995117188
924.594403334414	2377.19995117188
925.300427708304	2380.80004882813
926.006363271572	2380.39990234375
926.712210032039	2363.80004882813
927.417967997522	2376.39990234375
928.123637175827	2373.39990234375
928.829217574776	2382
929.534709202184	2367.80004882813
930.240112065859	2364.19995117188
930.945426173621	2379
931.650651533283	2356
932.355788152653	2357.39990234375
933.060836039547	2330
933.765795201776	2354.19995117188
934.470665647153	2332
935.175447383492	2335.80004882813
935.880140418599	2340
936.584744760286	2345.19995117188
937.289260416366	2355.80004882813
937.993687394647	2374.60009765625
938.698025702939	2387.80004882813
939.402275349051	2423.39990234375
940.106436340793	2455.60009765625
940.810508685976	2427
941.5144923924	2388.80004882813
942.21838746788	2392.19995117188
942.922193920223	2371.19995117188
943.625911757231	2365.39990234375
944.329540986716	2344.19995117188
945.033081616484	2325.19995117188
945.736533654334	2304
946.439897108083	2302
947.143171985529	2296.80004882813
947.846358294477	2317.19995117188
948.549456042732	2319
949.2524652381	2326.60009765625
949.955385888382	2312.60009765625
950.658218001384	2332.60009765625
951.360961584907	2335.39990234375
952.063616646755	2337.19995117188
952.766183194733	2331.19995117188
953.468661236636	2341.39990234375
954.171050780271	2349.39990234375
954.873351833437	2339.19995117188
955.575564403935	2313
956.277688499565	2320.60009765625
956.97972412813	2329
957.681671297424	2315.80004882813
958.383530015255	2328.39990234375
959.085300289414	2339.39990234375
959.786982127703	2321
960.488575537918	2314.39990234375
961.190080527859	2335.39990234375
961.891497105327	2322.39990234375
962.592825278111	2292
963.294065054012	2293.39990234375
963.995216440829	2301.19995117188
964.696279446353	2329.80004882813
965.397254078383	2331.60009765625
966.098140344714	2341.80004882813
966.798938253139	2321.19995117188
967.499647811456	2308
968.200269027458	2308.80004882813
968.900801908937	2309.60009765625
969.601246463685	2307
970.3016026995	2290.80004882813
971.001870624169	2279.80004882813
971.702050245491	2267.60009765625
972.402141571249	2268.19995117188
973.102144609245	2261.39990234375
973.802059367267	2277
974.501885853103	2280.80004882813
975.201624074541	2307.19995117188
975.901274039379	2308.80004882813
976.600835755399	2294
977.3003092304	2301.39990234375
977.999694472158	2308.19995117188
978.698991488473	2290.39990234375
979.39820028713	2300.39990234375
980.097320875915	2311.39990234375
980.796353262618	2331.19995117188
981.495297455024	2329.60009765625
982.194153460919	2315.60009765625
982.892921288093	2320
983.591600944331	2324.80004882813
984.290192437419	2348
984.98869577514	2327
985.687110965282	2321.39990234375
986.385438015629	2315
987.083676933961	2288
987.781827728069	2271.80004882813
988.479890405732	2265
989.177864974732	2282
989.875751442857	2270.19995117188
990.573549817888	2308.60009765625
991.271260107602	2321.19995117188
991.968882319786	2312.39990234375
992.666416462217	2300.19995117188
993.363862542681	2288.39990234375
994.061220568959	2259
994.758490548823	2261.19995117188
995.455672490061	2249.19995117188
996.152766400451	2279.19995117188
996.849772287773	2272
997.5466901598	2292.19995117188
998.243520024317	2294
998.940261889097	2280.39990234375
999.636915761923	2279
1000.33348165057	2250.19995117188
1001.02995956281	2241
1001.72634950643	2241.39990234375
1002.42265148919	2231.60009765625
1003.11886551889	2249.80004882813
1003.81499160328	2290.60009765625
1004.51102975015	2276.60009765625
1005.20697996727	2297
1005.90284226242	2304.39990234375
1006.59861664337	2297.60009765625
1007.2943031179	2316
1007.98990169377	2311.19995117188
1008.68541237876	2334.19995117188
1009.38083518064	2347.39990234375
1010.07617010719	2348.60009765625
1010.77141716617	2360
1011.46657636536	2371.60009765625
1012.16164771253	2341.80004882813
1012.85663121546	2323.60009765625
1013.5515268819	2292
1014.24633471963	2293.80004882813
1014.94105473642	2274.19995117188
1015.63568694004	2287.19995117188
1016.33023133826	2306
1017.02468793885	2320.19995117188
1017.71905674957	2315.19995117188
1018.41333777819	2314
1019.10753103249	2302.39990234375
1019.80163652022	2279.39990234375
1020.49565424916	2286
1021.18958422707	2297.60009765625
1021.88342646171	2308.60009765625
1022.57718096085	2310.80004882813
1023.27084773227	2314.19995117188
1023.96442678371	2310.19995117188
1024.65791812296	2293.19995117188
1025.35132175776	2279.80004882813
1026.04463769589	2240.80004882813
1026.73786594511	2241.19995117188
1027.43100651318	2242.39990234375
1028.12405940786	2251.60009765625
1028.81702463692	2251.39990234375
1029.50990220812	2252.80004882813
1030.20269212921	2269.80004882813
1030.89539440798	2259.39990234375
1031.58800905216	2248.80004882813
1032.28053606952	2232.80004882813
1032.97297546784	2236.39990234375
1033.66532725485	2247.19995117188
1034.35759143832	2245
1035.04976802602	2255.60009765625
1035.7418570257	2255.19995117188
1036.43385844511	2244.39990234375
1037.12577229202	2255
1037.81759857419	2243
1038.50933729937	2255.39990234375
1039.20098847531	2270
1039.89255210978	2266.19995117188
1040.58402821053	2265.60009765625
1041.27541678532	2244.80004882813
1041.96671784191	2222.19995117188
1042.65793138804	2223.39990234375
1043.34905743147	2228.39990234375
1044.04009597996	2233
1044.73104704125	2248.19995117188
1045.42191062312	2262.60009765625
1046.1126867333	2267.60009765625
1046.80337537955	2269.39990234375
1047.49397656962	2272.19995117188
1048.18449031127	2269.39990234375
1048.87491661225	2268.39990234375
1049.5652554803	2253.60009765625
1050.25550692319	2236
1050.94567094865	2233.80004882813
1051.63574756444	2237.39990234375
1052.32573677832	2265.80004882813
1053.01563859803	2255.39990234375
1053.70545303131	2250.60009765625
1054.39518008592	2261.39990234375
1055.08481976961	2236.80004882813
1055.77437209013	2238.80004882813
1056.46383705522	2240.60009765625
1057.15321467262	2255.39990234375
1057.8425049501	2225.60009765625
1058.53170789539	2214.19995117188
1059.22082351624	2215.39990234375
1059.9098518204	2208
1060.59879281561	2175
1061.28764650962	2189.80004882813
1061.97641291016	2205.80004882813
1062.665092025	2210.19995117188
1063.35368386187	2208.39990234375
1064.04218842851	2211
1064.73060573268	2209.39990234375
1065.4189357821	2194.80004882813
1066.10717858452	2178.80004882813
1066.7953341477	2184.60009765625
1067.48340247936	2164.80004882813
1068.17138358725	2174
1068.85927747912	2167.80004882813
1069.5470841627	2202.60009765625
1070.23480364573	2208.60009765625
1070.92243593595	2220.80004882813
1071.60998104111	2245
1072.29743896894	2216.19995117188
1072.98480972718	2232.60009765625
1073.67209332357	2220.80004882813
1074.35928976585	2221
1075.04639906176	2222.80004882813
1075.73342121903	2242.60009765625
1076.42035624541	2230.39990234375
1077.10720414862	2232.60009765625
1077.79396493641	2275.60009765625
1078.48063861651	2269.39990234375
1079.16722519666	2229.19995117188
1079.85372468459	2236
1080.54013708804	2213.60009765625
1081.22646241474	2187.39990234375
1081.91270067243	2175.60009765625
1082.59885186884	2187
1083.28491601171	2200.19995117188
1083.97089310877	2249.39990234375
1084.65678316774	2253.80004882813
1085.34258619637	2254.39990234375
1086.02830220239	2229.80004882813
1086.71393119352	2256
1087.39947317751	2267
1088.08492816207	2246
1088.77029615495	2264.39990234375
1089.45557716387	2245.19995117188
1090.14077119656	2239.19995117188
1090.82587826075	2231.19995117188
1091.51089836417	2241
1092.19583151456	2217.80004882813
1092.88067771963	2202.80004882813
1093.56543698712	2205.19995117188
1094.25010932475	2194.60009765625
1094.93469474026	2182.19995117188
1095.61919324137	2191.60009765625
1096.3036048358	2185.39990234375
1096.98792953129	2178.19995117188
1097.67216733555	2215.39990234375
1098.35631825632	2204.39990234375
1099.04038230132	2246.80004882813
1099.72435947828	2229.19995117188
1100.40824979492	2212.39990234375
1101.09205325895	2198.19995117188
1101.77576987812	2166.39990234375
1102.45939966014	2158
1103.14294261273	2137.19995117188
1103.82639874362	2116.39990234375
1104.50976806054	2142.60009765625
1105.19305057119	2154.39990234375
1105.87624628331	2173.80004882813
1106.55935520461	2185.80004882813
1107.24237734283	2195.60009765625
1107.92531270566	2208.19995117188
1108.60816130085	2204.19995117188
1109.2909231361	2222.60009765625
1109.97359821914	2213.39990234375
1110.65618655768	2246.60009765625
1111.33868815946	2274
1112.02110303217	2257.39990234375
1112.70343118355	2250.80004882813
1113.3856726213	2265
1114.06782735316	2250.60009765625
1114.74989538683	2220
1115.43187673002	2209.80004882813
1116.11377139047	2197.39990234375
1116.79557937588	2200.39990234375
1117.47730069397	2208.80004882813
1118.15893535245	2244.80004882813
1118.84048335904	2256.39990234375
1119.52194472146	2259.80004882813
1120.20331944741	2235.39990234375
1120.88460754462	2236.80004882813
1121.56580902079	2235
1122.24692388364	2241.39990234375
1122.92795214088	2256.39990234375
1123.60889380022	2290.80004882813
1124.28974886938	2299.60009765625
1124.97051735606	2328.39990234375
1125.65119926799	2330.80004882813
1126.33179461286	2337.80004882813
1127.0123033984	2313.60009765625
1127.6927256323	2288
1128.37306132229	2282.60009765625
1129.05331047606	2264.60009765625
1129.73347310134	2275
1130.41354920582	2251.80004882813
1131.09353879722	2250.80004882813
1131.77344188324	2241.80004882813
1132.45325847159	2238.39990234375
1133.13298856999	2243.60009765625
1133.81263218612	2257.39990234375
1134.49218932772	2242.19995117188
1135.17166000247	2212
1135.85104421809	2236.19995117188
1136.53034198227	2235.60009765625
1137.20955330274	2193.60009765625
1137.88867818718	2187.60009765625
1138.56771664331	2172
1139.24666867883	2187.60009765625
1139.92553430144	2211
1140.60431351885	2216.39990234375
1141.28300633876	2209.60009765625
1141.96161276887	2215.80004882813
1142.64013281689	2228.19995117188
1143.31856649051	2235.80004882813
1143.99691379744	2205
1144.67517474538	2203.60009765625
1145.35334934203	2213.80004882813
1146.03143759509	2210.19995117188
1146.70943951226	2189.80004882813
1147.38735510125	2172.19995117188
1148.06518436974	2145.60009765625
1148.74292732545	2163.80004882813
1149.42058397606	2142.80004882813
1150.09815432928	2158
1150.7756383928	2163.60009765625
1151.45303617432	2154.80004882813
1152.13034768155	2169.39990234375
1152.80757292217	2193.60009765625
1153.48471190389	2214.39990234375
1154.16176463439	2239.60009765625
1154.83873112138	2206.19995117188
1155.51561137255	2216.39990234375
1156.1924053956	2195.60009765625
1156.86911319822	2191.60009765625
1157.5457347881	2222.60009765625
1158.22227017294	2228.19995117188
1158.89871936044	2207.80004882813
1159.57508235828	2203
1160.25135917416	2210.19995117188
1160.92754981578	2187
1161.60365429081	2182.60009765625
1162.27967260697	2198
1162.95560477193	2206.39990234375
1163.63145079339	2209.19995117188
1164.30721067904	2193.19995117188
1164.98288443657	2180.39990234375
1165.65847207367	2166.39990234375
1166.33397359803	2186.60009765625
1167.00938901735	2214.80004882813
1167.6847183393	2237.80004882813
1168.35996157157	2246.19995117188
1169.03511872187	2237
1169.71018979787	2246.19995117188
1170.38517480726	2226.80004882813
1171.06007375773	2207
1171.73488665696	2173
1172.40961351265	2174.60009765625
1173.08425433247	2175.19995117188
1173.75880912412	2182
1174.43327789528	2217.19995117188
1175.10766065364	2226.39990234375
1175.78195740687	2251.60009765625
1176.45616816267	2238.60009765625
1177.13029292871	2244.39990234375
1177.80433171269	2252.60009765625
1178.47828452229	2247.39990234375
1179.15215136518	2256.19995117188
1179.82593224905	2272.39990234375
1180.49962718159	2266
1181.17323617047	2294.39990234375
1181.84675922337	2301.19995117188
1182.52019634799	2303.80004882813
1183.193547552	2289.39990234375
1183.86681284307	2315.80004882813
1184.53999222889	2346.80004882813
1185.21308571714	2333.80004882813
1185.8860933155	2330.80004882813
1186.55901503165	2338.19995117188
1187.23185087326	2331.39990234375
1187.90460084802	2317.39990234375
1188.5772649636	2307.80004882813
1189.24984322768	2317.19995117188
1189.92233564794	2318.39990234375
1190.59474223206	2323.60009765625
1191.2670629877	2362.19995117188
1191.93929792255	2365
1192.61144704428	2382
1193.28351036058	2374.19995117188
1193.9554878791	2343.60009765625
1194.62737960754	2304.39990234375
1195.29918555356	2308.80004882813
1195.97090572483	2320.39990234375
1196.64254012903	2339.60009765625
1197.31408877384	2352
1197.98555166693	2338.39990234375
1198.65692881596	2336.60009765625
1199.32822022862	2320
1199.99942591256	2297.80004882813
1200.67054587548	2273.19995117188
1201.34158012503	2267.60009765625
1202.01252866889	2241.80004882813
1202.68339151473	2246.60009765625
1203.35416867021	2244.39990234375
1204.02486014301	2247.19995117188
1204.6954659408	2247
1205.36598607124	2228.39990234375
1206.03642054201	2225.39990234375
1206.70676936078	2232.39990234375
1207.3770325352	2209
1208.04721007295	2216.19995117188
1208.7173019817	2203
1209.38730826911	2194.19995117188
1210.05722894285	2180.19995117188
1210.72706401059	2173.19995117188
1211.39681347999	2171.80004882813
1212.06647735872	2166.19995117188
1212.73605565444	2169.60009765625
1213.40554837481	2158.19995117188
1214.07495552751	2159.60009765625
1214.74427712019	2175.39990234375
1215.41351316052	2159.80004882813
1216.08266365617	2179.60009765625
1216.75172861479	2157.80004882813
1217.42070804405	2160.39990234375
1218.0896019516	2154.80004882813
1218.75841034513	2179.60009765625
1219.42713323227	2200.60009765625
1220.0957706207	2195.80004882813
1220.76432251808	2217.39990234375
1221.43278893207	2205.39990234375
1222.10116987032	2214.80004882813
1222.7694653405	2212.19995117188
1223.43767535026	2214.80004882813
1224.10579990727	2209.39990234375
1224.77383901918	2179.80004882813
1225.44179269366	2209.80004882813
1226.10966093835	2189.60009765625
1226.77744376093	2182.39990234375
1227.44514116904	2158.19995117188
1228.11275317034	2174.80004882813
1228.78027977249	2158.80004882813
1229.44772098315	2173
1230.11507680996	2151.19995117188
1230.7823472606	2150
1231.44953234271	2139.80004882813
1232.11663206394	2153.39990234375
1232.78364643195	2122.19995117188
1233.4505754544	2130.60009765625
1234.11741913894	2113.60009765625
1234.78417749322	2140.19995117188
1235.45085052489	2134.80004882813
1236.11743824162	2144.80004882813
1236.78394065104	2131.80004882813
1237.45035776082	2106.19995117188
1238.1166895786	2122.19995117188
1238.78293611204	2129.60009765625
1239.44909736878	2130.19995117188
1240.11517335648	2151.39990234375
1240.78116408279	2147.80004882813
1241.44706955535	2156.60009765625
1242.11288978182	2159.80004882813
1242.77862476985	2147.19995117188
1243.44427452708	2114.80004882813
1244.10983906116	2093.80004882813
1244.77531837974	2089.19995117188
1245.44071249047	2107.60009765625
1246.106021401	2096.60009765625
1246.77124511898	2113.60009765625
1247.43638365204	2110.39990234375
1248.10143700783	2156.19995117188
1248.76640519401	2125.60009765625
1249.43128821822	2124.60009765625
1250.0960860881	2098.60009765625
1250.76079881129	2097
1251.42542639545	2104.80004882813
1252.08996884822	2111
1252.75442617723	2089.60009765625
1253.41879839014	2105.60009765625
1254.08308549458	2135.60009765625
1254.74728749821	2132.19995117188
1255.41140440866	2137.80004882813
1256.07543623357	2131.80004882813
1256.73938298059	2130.80004882813
1257.40324465735	2099.39990234375
1258.0670212715	2108.80004882813
1258.73071283068	2098.39990234375
1259.39431934253	2118.19995117188
1260.05784081468	2119
1260.72127725479	2123
1261.38462867049	2108.60009765625
1262.0478950694	2124.60009765625
1262.71107645919	2121.60009765625
1263.37417284748	2109.80004882813
1264.03718424191	2116
1264.70011065011	2117.19995117188
1265.36295207974	2130.19995117188
1266.02570853841	2123.60009765625
1266.68838003378	2125
1267.35096657346	2117.80004882813
1268.01346816511	2105.19995117188
1268.67588481636	2111.80004882813
1269.33821653483	2113.60009765625
1270.00046332817	2114.80004882813
1270.66262520401	2130.80004882813
1271.32470216998	2122.80004882813
1271.98669423372	2128.80004882813
1272.64860140285	2092.19995117188
1273.31042368503	2098.39990234375
1273.97216108786	2091.19995117188
1274.633813619	2099.80004882813
1275.29538128606	2108.60009765625
1275.95686409669	2134
1276.6182620585	2117.39990234375
1277.27957517914	2111.60009765625
1277.94080346624	2096.19995117188
1278.60194692741	2118.80004882813
1279.2630055703	2116.39990234375
1279.92397940253	2106.60009765625
1280.58486843173	2132.19995117188
1281.24567266552	2116.60009765625
1281.90639211155	2113.39990234375
1282.56702677743	2059.19995117188
1283.2275766708	2086.19995117188
1283.88804179927	2088.39990234375
1284.54842217049	2078.39990234375
1285.20871779206	2082.39990234375
1285.86892867163	2096.80004882813
1286.52905481681	2108.19995117188
1287.18909623523	2129.19995117188
1287.84905293452	2121.60009765625
1288.5089249223	2126.80004882813
1289.16871220619	2143
1289.82841479383	2130.60009765625
1290.48803269282	2146.80004882813
1291.1475659108	2134.39990234375
1291.80701445539	2111.19995117188
1292.46637833421	2098.19995117188
1293.12565755489	2086
1293.78485212504	2090
1294.44396205229	2101
1295.10298734425	2079.39990234375
1295.76192800856	2084.39990234375
1296.42078405283	2064
1297.07955548467	2072
1297.73824231171	2096.19995117188
1298.39684454158	2109.39990234375
1299.05536218188	2115.39990234375
1299.71379524023	2127
1300.37214372427	2119.39990234375
1301.03040764159	2114.19995117188
1301.68858699983	2117.60009765625
1302.34668180659	2106.60009765625
1303.0046920695	2100.80004882813
1303.66261779617	2140.39990234375
1304.32045899422	2137.19995117188
1304.97821567126	2168.39990234375
1305.63588783492	2170.60009765625
1306.29347549279	2156.80004882813
1306.95097865251	2161
1307.60839732168	2137.19995117188
1308.26573150791	2162
1308.92298121883	2145.19995117188
1309.58014646204	2152.39990234375
1310.23722724517	2146.39990234375
1310.89422357581	2160.80004882813
1311.55113546158	2168.19995117188
1312.2079629101	2151.19995117188
1312.86470592898	2156.80004882813
1313.52136452582	2185.19995117188
1314.17793870824	2169.19995117188
1314.83442848386	2185.39990234375
1315.49083386027	2187
1316.14715484509	2188.39990234375
1316.80339144594	2175.60009765625
1317.45954367041	2195.80004882813
1318.11561152611	2189.80004882813
1318.77159502067	2192
1319.42749416168	2188.80004882813
1320.08330895674	2175.39990234375
1320.73903941348	2170
1321.3946855395	2173.60009765625
1322.0502473424	2155.39990234375
1322.70572482978	2157.80004882813
1323.36111800926	2164.39990234375
1324.01642688845	2156
1324.67165147494	2148.60009765625
1325.32679177634	2155.39990234375
1325.98184780025	2143.60009765625
1326.63681955429	2146
1327.29170704605	2124
1327.94651028314	2113.60009765625
1328.60122927316	2108.80004882813
1329.25586402371	2124.60009765625
1329.9104145424	2114.80004882813
1330.56488083683	2121.39990234375
1331.2192629146	2115.19995117188
1331.87356078331	2120.19995117188
1332.52777445056	2133
1333.18190392395	2132.39990234375
1333.83594921109	2133.80004882813
1334.48991031958	2124.80004882813
1335.143787257	2087
1335.79758003097	2091.19995117188
1336.45128864908	2112.60009765625
1337.10491311893	2111.80004882813
1337.75845344813	2122.39990234375
1338.41190964425	2125.60009765625
1339.06528171491	2115
1339.71856966771	2079.19995117188
1340.37177351023	2072.39990234375
1341.02489325007	2066
1341.67792889484	2047.19995117188
1342.33088045212	2051.19995117188
1342.98374792952	2033
1343.63653133462	2030.19995117188
1344.28923067503	2038.59997558594
1344.94184595833	2061.19995117188
1345.59437719212	2067
1346.246824384	2080.80004882813
1346.89918754155	2096.39990234375
1347.55146667238	2122.39990234375
1348.20366178407	2126.80004882813
1348.85577288421	2132.60009765625
1349.50779998041	2155.60009765625
1350.15974308024	2161.60009765625
1350.8116021913	2151.80004882813
1351.46337732119	2148.80004882813
1352.11506847748	2162.60009765625
1352.76667566778	2155
1353.41819889967	2170.19995117188
1354.06963818074	2174.80004882813
1354.72099351858	2187.60009765625
1355.37226492079	2179.39990234375
1356.02345239494	2194.60009765625
1356.67455594862	2231.19995117188
1357.32557558943	2271.19995117188
1357.97651132496	2276
1358.62736316277	2288.80004882813
1359.27813111048	2312.39990234375
1359.92881517565	2357.80004882813
1360.57941536589	2366.19995117188
1361.22993168876	2360
1361.88036415186	2364.60009765625
1362.53071276278	2353.60009765625
1363.1809775291	2376
1363.8311584584	2396.80004882813
1364.48125555826	2377.39990234375
1365.13126883627	2344
1365.78119830001	2318.39990234375
1366.43104395707	2279.19995117188
1367.08080581503	2241.80004882813
1367.73048388147	2242.19995117188
1368.38007816397	2227.60009765625
1369.02958867011	2216
1369.67901540748	2207.80004882813
1370.32835838365	2207
1370.9776176062	2192
1371.62679308273	2186.39990234375
1372.27588482079	2179.39990234375
1372.92489282798	2187.80004882813
1373.57381711188	2155.39990234375
1374.22265768006	2146.19995117188
1374.87141454009	2105.39990234375
1375.52008769957	2112.80004882813
1376.16867716606	2077.19995117188
1376.81718294715	2078
1377.4656050504	2076
1378.1139434834	2080
1378.76219825373	2096
1379.41036936895	2094.80004882813
1380.05845683664	2085.80004882813
1380.70646066439	2066.39990234375
1381.35438085976	2065.80004882813
1382.00221743032	2047.19995117188
1382.64997038366	2043.40002441406
1383.29763972735	2056
1383.94522546895	2049
1384.59272761605	2056.39990234375
1385.24014617621	2092
1385.88748115701	2069.60009765625
1386.53473256602	2060.60009765625
1387.18190041081	2051.19995117188
1387.82898469895	2062.60009765625
1388.47598543802	2036
1389.12290263558	2022.40002441406
1389.7697362992	2003.19995117188
1390.41648643646	2011
1391.06315305492	1982
1391.70973616215	1989.59997558594
1392.35623576573	1986.59997558594
1393.00265187321	1990.59997558594
1393.64898449217	1991.59997558594
1394.29523363018	1977.59997558594
1394.94139929481	1981.19995117188
1395.58748149361	1971
1396.23348023415	1949
1396.87939552402	1945.40002441406
1397.52522737076	1912.80004882813
1398.17097578195	1913.40002441406
1398.81664076514	1883.19995117188
1399.46222232792	1875.19995117188
1400.10772047783	1874
1400.75313522245	1878
1401.39846656934	1892.19995117188
1402.04371452605	1911
1402.68887910016	1908.40002441406
1403.33396029924	1920.40002441406
1403.97895813083	1923.19995117188
1404.6238726025	1941
1405.26870372182	1940
1405.91345149634	1946.80004882813
1406.55811593363	1945.19995117188
1407.20269704125	1932.59997558594
1407.84719482676	1915.80004882813
1408.49160929772	1934.80004882813
1409.13594046168	1945.59997558594
1409.78018832622	1966.40002441406
1410.42435289887	1972.59997558594
1411.06843418722	1966.40002441406
1411.7124321988	1965.80004882813
1412.3563469412	1967.59997558594
1413.00017842194	1968.80004882813
1413.64392664861	1992.40002441406
1414.28759162875	2005
1414.93117336992	1975.40002441406
1415.57467187967	1991.40002441406
1416.21808716557	1971.19995117188
1416.86141923516	1981.40002441406
1417.50466809601	1994.40002441406
1418.14783375567	1985.59997558594
1418.79091622169	2002.59997558594
1419.43391550162	2002.80004882813
1420.07683160303	1991.19995117188
1420.71966453346	1991.59997558594
1421.36241430046	2006.19995117188
1422.0050809116	1996.19995117188
1422.64766437442	1999
1423.29016469647	2005.59997558594
1423.93258188531	2030.40002441406
1424.57491594848	2014.80004882813
1425.21716689354	1997.19995117188
1425.85933472805	1991.40002441406
1426.50141945954	1970.59997558594
1427.14342109557	1986.19995117188
1427.78533964369	1977
1428.42717511144	1970.19995117188
1429.06892750639	1959.19995117188
1429.71059683607	1976.80004882813
1430.35218310803	1959.80004882813
1430.99368632983	1956.80004882813
1431.635106509	1962.19995117188
1432.2764436531	1946.40002441406
1432.91769776967	1967.19995117188
1433.55886886627	1969.59997558594
1434.19995695043	1986.40002441406
1434.84096202969	1961.40002441406
1435.48188411162	1956.80004882813
1436.12272320375	1940.59997558594
1436.76347931363	1952.40002441406
1437.40415244879	1958.40002441406
1438.0447426168	1972.40002441406
1438.68524982518	1956.40002441406
1439.32567408148	1951.59997558594
1439.96601539325	1938
1440.60627376803	1912.59997558594
1441.24644921336	1926.59997558594
1441.88654173678	1912.19995117188
1442.52655134583	1908.80004882813
1443.16647804806	1913.40002441406
1443.806321851	1935.19995117188
1444.4460827622	1939.59997558594
1445.0857607892	1935.19995117188
1445.72535593953	1934.19995117188
1446.36486822074	1919.19995117188
1447.00429764037	1918.40002441406
1447.64364420595	1912.40002441406
1448.28290792502	1909.40002441406
1448.92208880512	1902.19995117188
1449.56118685379	1899.80004882813
1450.20020207857	1920.40002441406
1450.83913448699	1927.40002441406
1451.47798408659	1943.40002441406
1452.1167508849	1941.59997558594
1452.75543488947	1939.40002441406
1453.39403610782	1932.19995117188
1454.0325545475	1909.19995117188
1454.67099021603	1935.59997558594
1455.30934312097	1941.59997558594
1455.94761326982	1952
1456.58580067014	1917
1457.22390532945	1922.19995117188
1457.86192725529	1917.59997558594
1458.49986645519	1929.80004882813
1459.13772293668	1937.40002441406
1459.7754967073	1915.59997558594
1460.41318777457	1910
1461.05079614604	1904.59997558594
1461.68832182922	1900.40002441406
1462.32576483166	1887.80004882813
1462.96312516087	1890.80004882813
1463.6004028244	1887.59997558594
1464.23759782977	1912.19995117188
1464.8747101845	1935.59997558594
1465.51173989614	1952.59997558594
1466.14868697221	1938.19995117188
1466.78555142024	1949.80004882813
1467.42233324774	1938.19995117188
1468.05903246227	1932.59997558594
1468.69564907133	1929.80004882813
1469.33218308246	1922.80004882813
1469.96863450317	1914
1470.60500334102	1915.19995117188
1471.2412896035	1930
1471.87749329816	1948.40002441406
1472.51361443251	1952.19995117188
1473.14965301409	1950.19995117188
1473.78560905041	1947.59997558594
1474.421482549	1960.40002441406
1475.05727351739	1945.40002441406
1475.69298196309	1955
1476.32860789364	1957.19995117188
1476.96415131654	1960.80004882813
1477.59961223934	1930.59997558594
1478.23499066954	1936
1478.87028661467	1922.19995117188
1479.50550008226	1924.59997558594
1480.14063107981	1936.19995117188
1480.77567961486	1919
1481.41064569492	1920.80004882813
1482.04552932752	1905.40002441406
1482.68033052017	1903.19995117188
1483.31504928039	1921.80004882813
1483.9496856157	1935.19995117188
1484.58423953363	1938.19995117188
1485.21871104168	1941.80004882813
1485.85310014738	1932.19995117188
1486.48740685824	1921.59997558594
1487.12163118178	1927.59997558594
1487.75577312553	1920.80004882813
1488.38983269698	1928.19995117188
1489.02380990367	1927
1489.65770475311	1907.19995117188
1490.29151725281	1910
1490.92524741029	1945.59997558594
1491.55889523306	1932.40002441406
1492.19246072863	1944.59997558594
1492.82594390453	1951
1493.45934476826	1960.40002441406
1494.09266332734	1975.59997558594
1494.72589958928	1957.80004882813
1495.3590535616	1983
1495.99212525181	2007.19995117188
1496.62511466741	2007.40002441406
1497.25802181592	2019.40002441406
1497.89084670485	2019.80004882813
1498.52358934172	2024.80004882813
1499.15624973403	2047.19995117188
1499.7888278893	2039.80004882813
1500.42132381503	2042.19995117188
1501.05373751873	2067.80004882813
1501.68606900792	2064.19995117188
1502.31831829009	2093.39990234375
1502.95048537277	2103
1503.58257026346	2100
1504.21457296966	2131
1504.84649349889	2148
1505.47833185864	2173.80004882813
1506.11008805644	2183.80004882813
1506.74176209978	2167.19995117188
1507.37335399617	2139.19995117188
1508.00486375312	2127.80004882813
1508.63629137813	2108.19995117188
1509.2676368787	2120.60009765625
1509.89890026235	2118.80004882813
1510.53008153658	2119.80004882813
1511.16118070889	2143.39990234375
1511.79219778677	2132.39990234375
1512.42313277775	2133.60009765625
1513.05398568932	2119.19995117188
1513.68475652898	2145.60009765625
1514.31544530424	2130.39990234375
1514.9460520226	2098.80004882813
1515.57657669155	2068.80004882813
1516.20701931861	2056
1516.83737991127	2036
1517.46765847702	2029.80004882813
1518.09785502339	2029.40002441406
1518.72796955785	2020.40002441406
1519.35800208792	2008.19995117188
1519.98795262109	2006.80004882813
1520.61782116486	2008
1521.24760772673	1999.40002441406
1521.87731231419	2007.40002441406
1522.50693493475	1986.59997558594
1523.1364755959	1971
1523.76593430514	1961.80004882813
1524.39531106997	1942.80004882813
1525.02460589788	1948.40002441406
1525.65381879637	1927
1526.28294977293	1943
1526.91199883507	1916.19995117188
1527.54096599027	1912.40002441406
1528.16985124603	1895
1528.79865460984	1905.19995117188
1529.4273760892	1910
1530.05601569161	1921.80004882813
1530.68457342455	1936.40002441406
1531.31304929552	1929.59997558594
1531.94144331201	1926.19995117188
1532.56975548151	1930
1533.19798581152	1947.40002441406
1533.82613430953	1948.59997558594
1534.45420098302	1960.19995117188
1535.08218583949	1969.80004882813
1535.71008888643	1967.40002441406
1536.33791013134	1962.40002441406
1536.96564958169	1948.59997558594
1537.59330724498	1938.19995117188
1538.22088312871	1938
1538.84837724034	1935.19995117188
1539.47578958739	1908
1540.10312017733	1920.40002441406
1540.73036901765	1908.80004882813
1541.35753611584	1929.59997558594
1541.98462147939	1908
1542.61162511578	1919.80004882813
1543.2385470325	1926
1543.86538723704	1927.40002441406
1544.49214573688	1931.59997558594
1545.11882253951	1906.40002441406
1545.74541765241	1926.19995117188
1546.37193108306	1921
1546.99836283896	1929.19995117188
1547.62471292758	1912.59997558594
1548.25098135641	1918.59997558594
1548.87716813294	1922.59997558594
1549.50327326464	1912.19995117188
1550.12929675899	1921
1550.75523862349	1906.59997558594
1551.38109886561	1892.19995117188
1552.00687749284	1896.19995117188
1552.63257451264	1894.19995117188
1553.25818993252	1894.59997558594
1553.88372375994	1902.19995117188
1554.50917600239	1879.59997558594
1555.13454666734	1875.40002441406
1555.75983576228	1896.40002441406
1556.38504329469	1883.40002441406
1557.01016927204	1867.80004882813
1557.63521370181	1864.59997558594
1558.26017659149	1865.19995117188
1558.88505794854	1877.80004882813
1559.50985778045	1874
1560.13457609469	1859.59997558594
1560.75921289874	1866.80004882813
1561.38376820008	1859.40002441406
1562.00824200618	1869.80004882813
1562.63263432452	1877.40002441406
1563.25694516257	1875
1563.88117452781	1866.19995117188
1564.50532242772	1872.40002441406
1565.12938886976	1872.59997558594
1565.75337386141	1867.59997558594
1566.37727741015	1889.59997558594
1567.00109952345	1896.59997558594
1567.62484020878	1889.59997558594
1568.24849947361	1889.80004882813
1568.87207732542	1907.40002441406
1569.49557377168	1924
1570.11898881986	1911.40002441406
1570.74232247743	1917.80004882813
1571.36557475186	1900
1571.98874565062	1938.59997558594
1572.61183518119	1940
1573.23484335103	1947.19995117188
1573.85777016761	1969
1574.4806156384	1963.80004882813
1575.10337977088	1969.19995117188
1575.7260625725	1986.19995117188
1576.34866405074	1980.80004882813
1576.97118421306	1971.59997558594
1577.59362306694	1973.59997558594
1578.21598061984	1985.80004882813
1578.83825687922	1986.40002441406
1579.46045185255	1971
1580.08256554731	1945.59997558594
1580.70459797094	1937.59997558594
1581.32654913093	1921.80004882813
1581.94841903473	1917.40002441406
1582.57020768981	1900.40002441406
1583.19191510364	1863.19995117188
1583.81354128367	1868.59997558594
1584.43508623737	1865
1585.05654997221	1871
1585.67793249564	1866.19995117188
1586.29923381514	1856
1586.92045393815	1823.19995117188
1587.54159287216	1821.19995117188
1588.1626506246	1838.40002441406
1588.78362720296	1838.80004882813
1589.40452261468	1836.19995117188
1590.02533686724	1831.40002441406
1590.64606996808	1835.19995117188
1591.26672192467	1812.40002441406
1591.88729274447	1818.80004882813
1592.50778243493	1811.40002441406
1593.12819100352	1807.80004882813
1593.7485184577	1814.40002441406
1594.36876480492	1796
1594.98893005264	1785.80004882813
1595.60901420832	1770.40002441406
1596.22901727941	1777
1596.84893927338	1804.80004882813
1597.46878019767	1803.40002441406
1598.08854005975	1823.40002441406
1598.70821886707	1836.19995117188
1599.32781662708	1817.19995117188
1599.94733334725	1825.19995117188
1600.56676903502	1831.40002441406
1601.18612369785	1796.19995117188
1601.8053973432	1788
1602.42458997851	1757.40002441406
1603.04370161124	1781
1603.66273224884	1782
1604.28168189878	1791.80004882813
1604.90055056849	1799.59997558594
1605.51933826543	1771.19995117188
1606.13804499705	1780
1606.75667077081	1773
1607.37521559415	1782.59997558594
1607.99367947452	1759
1608.61206241938	1758.59997558594
1609.23036443618	1742.19995117188
1609.84858553236	1730.80004882813
1610.46672571537	1731.59997558594
1611.08478499267	1739
1611.7027633717	1751
1612.3206608599	1749.40002441406
1612.93847746473	1748.40002441406
1613.55621319364	1768.80004882813
1614.17386805407	1740.59997558594
1614.79144205347	1734.59997558594
1615.40893519928	1749.40002441406
1616.02634749895	1749.19995117188
1616.64367895993	1732.80004882813
1617.26092958966	1728.80004882813
1617.87809939559	1725.59997558594
1618.49518838516	1732.19995117188
1619.11219656582	1748.19995117188
1619.729123945	1732.19995117188
1620.34597053016	1752.40002441406
1620.96273632874	1725.80004882813
1621.57942134818	1739.80004882813
1622.19602559592	1710.80004882813
1622.8125490794	1729.19995117188
1623.42899180607	1736.80004882813
1624.04535378337	1726.40002441406
1624.66163501874	1726.80004882813
1625.27783551963	1733
1625.89395529346	1726.40002441406
1626.50999434768	1713.19995117188
1627.12595268974	1709.40002441406
1627.74183032707	1701
1628.3576272671	1680.40002441406
1628.97334351729	1694.40002441406
1629.58897908506	1687.80004882813
1630.20453397786	1666.19995117188
1630.82000820313	1684.19995117188
1631.43540176829	1691.19995117188
1632.05071468079	1693.80004882813
1632.66594694807	1692.19995117188
1633.28109857756	1702.59997558594
1633.8961695767	1700.80004882813
1634.51115995292	1708.59997558594
1635.12606971366	1698.80004882813
1635.74089886636	1705.59997558594
1636.35564741844	1701.80004882813
1636.97031537734	1719.59997558594
1637.58490275051	1728
1638.19940954536	1734.19995117188
1638.81383576934	1741.19995117188
1639.42818142987	1747.59997558594
1640.0424465344	1748.40002441406
1640.65663109034	1767.80004882813
1641.27073510515	1745.40002441406
1641.88475858623	1760.19995117188
1642.49870154104	1769.19995117188
1643.11256397699	1761
1643.72634590152	1773.40002441406
1644.34004732206	1774
1644.95366824604	1786.59997558594
1645.56720868089	1806.19995117188
1646.18066863404	1798.80004882813
1646.79404811291	1786.19995117188
1647.40734712494	1810.19995117188
1648.02056567755	1802
1648.63370377817	1789.59997558594
1649.24676143423	1820.59997558594
1649.85973865316	1808.80004882813
1650.47263544238	1813.19995117188
1651.08545180932	1812.59997558594
1651.6981877614	1837.59997558594
1652.31084330606	1833.80004882813
1652.92341845071	1824
1653.53591320278	1810.19995117188
1654.1483275697	1797.19995117188
1654.7606615589	1791.40002441406
1655.37291517778	1782.19995117188
1655.98508843379	1775.19995117188
1656.59718133434	1752.59997558594
1657.20919388685	1775.80004882813
1657.82112609875	1767.19995117188
1658.43297797747	1752.19995117188
1659.04474953041	1749.59997558594
1659.65644076501	1734.40002441406
1660.26805168869	1722.59997558594
1660.87958230886	1702.80004882813
1661.49103263294	1698
1662.10240266837	1689.19995117188
1662.71369242255	1672.59997558594
1663.32490190291	1679.59997558594
1663.93603111687	1678
1664.54708007184	1666
1665.15804877524	1657.59997558594
1665.7689372345	1655.19995117188
1666.37974545703	1652
1666.99047345024	1676
1667.60112122156	1652
1668.2116887784	1653.80004882813
1668.82217612818	1628.40002441406
1669.43258327831	1595.19995117188
1670.04291023622	1580.40002441406
1670.65315700931	1581
1671.263323605	1560.59997558594
1671.8734100307	1559.59997558594
1672.48341629384	1540.19995117188
1673.09334240182	1521.40002441406
1673.70318836206	1537.19995117188
1674.31295418197	1534.40002441406
1674.92263986896	1540.19995117188
1675.53224543046	1538.40002441406
1676.14177087386	1547
1676.75121620658	1555.80004882813
1677.36058143604	1560.19995117188
1677.96986656964	1563.19995117188
1678.5790716148	1575.40002441406
1679.18819657892	1570.40002441406
1679.79724146943	1567.40002441406
1680.40620629372	1595.80004882813
1681.0150910592	1596.59997558594
1681.6238957733	1613.19995117188
1682.23262044341	1601.59997558594
1682.84126507694	1601.19995117188
1683.4498296813	1592.40002441406
1684.0583142639	1593
1684.66671883216	1588.59997558594
1685.27504339346	1577.80004882813
1685.88328795523	1572.59997558594
1686.49145252487	1578.59997558594
1687.09953710978	1546.59997558594
1687.70754171737	1568.80004882813
1688.31546635505	1573
1688.92331103021	1559.80004882813
1689.53107575028	1570.40002441406
1690.13876052265	1587
1690.74636535472	1568.80004882813
1691.3538902539	1568.80004882813
1691.96133522759	1553.80004882813
1692.5687002832	1545.59997558594
1693.17598542812	1543.40002441406
1693.78319066977	1533
1694.39031601554	1529
1694.99736147283	1539.80004882813
1695.60432704905	1544.40002441406
1696.2112127516	1559.80004882813
1696.81801858788	1569
1697.42474456528	1565
1698.03139069121	1577.40002441406
1698.63795697307	1568.40002441406
1699.24444341826	1562
1699.85085003417	1570
1700.45717682821	1553
1701.06342380778	1542.59997558594
1701.66959098026	1539.19995117188
1702.27567835307	1534.80004882813
1702.88168593359	1519.80004882813
1703.48761372922	1515
1704.09346174737	1513.59997558594
1704.69922999542	1515.59997558594
1705.30491848077	1500.59997558594
1705.91052721083	1513
1706.51605619297	1522.80004882813
1707.12150543461	1515.19995117188
1707.72687494312	1516
1708.33216472592	1504.19995117188
1708.93737479039	1496
1709.54250514392	1488.19995117188
