634.977642221345	1904.19995117188
635.719821695905	1906.80004882813
636.461909203392	1894.80004882813
637.203904751776	1887.80004882813
637.945808349023	1902.59997558594
638.687620003102	1893.19995117188
639.42933972198	1914.80004882813
640.170967513616	1907
640.912503385981	1889.40002441406
641.653947347041	1872
642.395299404758	1885.40002441406
643.13655956709	1863.80004882813
643.877727842014	1845
644.61880423748	1868.40002441406
645.359788761455	1877
646.100681421905	1867.59997558594
646.841482226789	1892
647.582191184074	1888.59997558594
648.322808301711	1883.80004882813
649.06333358767	1886.80004882813
649.803767049909	1886.40002441406
650.544108696385	1910.19995117188
651.28435853506	1926
652.024516573894	1923
652.764582820849	1930
653.504557283875	1932.80004882813
654.244439970937	1914.59997558594
654.984230889991	1924.40002441406
655.723930048995	1923.19995117188
656.463537455909	1931.40002441406
657.203053118683	1946.40002441406
657.942477045275	1960.59997558594
658.681809243647	1920.80004882813
659.421049721747	1924.80004882813
660.160198487535	1906
660.899255548962	1924.59997558594
661.638220913985	1906
662.377094590559	1923.40002441406
663.115876586631	1924
663.854566910165	1932.19995117188
664.593165569107	1929.40002441406
665.331672571406	1925.19995117188
666.07008792502	1920.59997558594
666.808411637902	1908.59997558594
667.546643717996	1892.19995117188
668.284784173258	1877.40002441406
669.022833011641	1874.19995117188
669.760790241089	1886.59997558594
670.498655869554	1862.40002441406
671.236429904987	1870.40002441406
671.97411235534	1874
672.711703228551	1899
673.449202532577	1919
674.186610275364	1953.80004882813
674.923926464857	1960.19995117188
675.661151109008	1969
676.398284215759	1953
677.135325793058	1978.59997558594
677.87227584885	2006.80004882813
678.609134391082	2028
679.345901427696	2016.80004882813
680.082576966644	2012.80004882813
680.819161015861	2014.80004882813
681.555653583298	2007
682.292054676895	2010.80004882813
683.028364304594	1997.40002441406
683.764582474344	1998.40002441406
684.500709194083	1966.19995117188
685.236744471752	1985.59997558594
685.972688315294	1984
686.708540732652	1981.80004882813
687.444301731762	1976.40002441406
688.179971320572	1976.59997558594
688.915549507013	1959.19995117188
689.651036299034	1948.59997558594
690.386431704569	1932.80004882813
691.121735731559	1929.59997558594
691.85694838794	1924.40002441406
692.592069681652	1933.80004882813
693.327099620632	1914.19995117188
694.062038212821	1906
694.796885466149	1937.59997558594
695.531641388561	1947.59997558594
696.266305987987	1962.80004882813
697.000879272367	1988.80004882813
697.735361249632	2005.19995117188
698.469751927722	2006
699.204051314568	2003.59997558594
699.938259418107	2004.19995117188
700.672376246272	2012.80004882813
701.406401806997	2003.80004882813
702.140336108212	2015.40002441406
702.874179157855	2022.19995117188
703.607930963856	2014
704.341591534147	2001.59997558594
705.07516087666	2005.19995117188
705.808638999324	1994.80004882813
706.542025910073	2000.59997558594
707.275321616841	2023.19995117188
708.008526127549	2008.19995117188
708.741639450132	2017.59997558594
709.474661592521	2016.80004882813
710.207592562641	2019.80004882813
710.940432368424	2007.80004882813
711.673181017796	2004
712.405838518687	2011.80004882813
713.138404879025	1967.80004882813
713.870880106731	1980
714.603264209738	2002.80004882813
715.335557195971	2036.80004882813
716.067759073357	2040.80004882813
716.799869849816	2037.19995117188
717.531889533281	2030.59997558594
718.263818131673	2021.40002441406
718.995655652917	2010
719.727402104934	2032.19995117188
720.45905749565	2019.80004882813
721.19062183299	2021.80004882813
721.922095124877	1992
722.653477379231	2001.19995117188
723.384768603973	2000.40002441406
724.11596880703	2016.80004882813
724.847077996319	2015
725.578096179762	2030.80004882813
726.309023365281	2042.40002441406
727.039859560792	2040
727.770604774222	2032.19995117188
728.501259013484	2015.40002441406
729.231822286501	2036.80004882813
729.962294601191	2049.60009765625
730.692675965469	2030.59997558594
731.42296638726	2016.80004882813
732.153165874472	2004.19995117188
732.883274435032	2017.80004882813
733.613292076851	2019.40002441406
734.343218807843	2029.19995117188
735.07305463593	2014.40002441406
735.802799569028	2031.80004882813
736.532453615048	2026.80004882813
737.262016781904	2018.19995117188
737.991489077517	2022
738.720870509794	2020.59997558594
739.450161086654	2029.80004882813
740.179360816009	2027.80004882813
740.908469705772	2018.19995117188
741.637487763854	2045.59997558594
742.366414998168	2048
743.095251416623	2052.19995117188
743.823997027137	2048.39990234375
744.552651837618	2074.39990234375
745.281215855978	2071.39990234375
746.009689090124	2085
746.738071547964	2035.40002441406
747.466363237419	2021.80004882813
748.194564166384	2025.59997558594
748.92267434278	2016
749.650693774504	2042.19995117188
750.378622469476	2029.19995117188
751.106460435596	2046.80004882813
751.834207680771	2058.80004882813
752.561864212909	2043.80004882813
753.289430039919	2038.59997558594
754.016905169707	2043.40002441406
754.744289610175	2030.80004882813
755.471583369231	2041.80004882813
756.198786454782	2045.19995117188
756.925898874728	2013
757.652920636979	1999.80004882813
758.379851749433	1993.19995117188
759.106692219996	2020.19995117188
759.833442056572	2023
760.560101267063	2046.80004882813
761.28666985937	2052.60009765625
762.0131478414	2061.19995117188
762.739535221046	2068.80004882813
763.465832006219	2078
764.192038204812	2096.39990234375
764.918153824731	2115.80004882813
765.644178873872	2123.39990234375
766.370113360138	2126.80004882813
767.095957291425	2138.19995117188
767.821710675635	2137.60009765625
768.547373520665	2160.39990234375
769.272945834415	2155.80004882813
769.998427624781	2170.80004882813
770.723818899658	2172.19995117188
771.449119666949	2178.80004882813
772.174329934546	2193
772.899449710347	2203.60009765625
773.624479002248	2192.80004882813
774.349417818145	2213.19995117188
775.074266165934	2190.80004882813
775.799024053505	2212.60009765625
776.523691488757	2216.39990234375
777.248268479582	2180.60009765625
777.972755033877	2140.60009765625
778.69715115953	2131.19995117188
779.421456864441	2120.39990234375
780.145672156493	2117.80004882813
780.869797043587	2101.19995117188
781.593831533611	2104.19995117188
782.317775634457	2115.60009765625
783.041629354012	2099.39990234375
783.765392700174	2106.39990234375
784.489065680828	2099
785.212648303866	2094.19995117188
785.936140577177	2093.39990234375
786.659542508652	2107
787.382854106174	2112.60009765625
788.106075377639	2109
788.829206330928	2121.39990234375
789.552246973933	2106.19995117188
790.275197314542	2100.60009765625
790.998057360638	2090.19995117188
791.720827120108	2089.80004882813
792.443506600841	2091.80004882813
793.166095810722	2079.60009765625
793.888594757635	2085.60009765625
794.611003449465	2070.80004882813
795.333321894098	2084
796.055550099417	2097.60009765625
796.777688073308	2114.80004882813
797.499735823654	2109
798.221693358334	2086.80004882813
798.943560685235	2094.19995117188
799.665337812239	2084.80004882813
800.387024747226	2086
801.108621498075	2088.19995117188
801.830128072674	2100
802.551544478902	2114.80004882813
803.272870724636	2097
803.994106817761	2107.19995117188
804.715252766148	2102.19995117188
805.436308577687	2081.60009765625
806.157274260251	2059
806.878149821721	2059.39990234375
807.598935269973	2055.60009765625
808.319630612886	2050.19995117188
809.040235858336	2065.80004882813
809.760751014202	2082.39990234375
810.481176088361	2109.19995117188
811.201511088685	2079.60009765625
811.921756023059	2068.60009765625
812.641910899347	2056.60009765625
813.361975725432	2044.59997558594
814.081950509188	2044.80004882813
814.801835258489	2020.80004882813
815.521629981206	2030.80004882813
816.241334685218	2035.19995117188
816.960949378392	2045
817.680474068606	2048.60009765625
818.399908763731	2063.60009765625
819.11925347164	2080.80004882813
819.838508200202	2059.60009765625
820.55767295729	2074.60009765625
821.276747750778	2076
821.995732588531	2066.60009765625
822.714627478425	2074.19995117188
823.433432428327	2100.19995117188
824.152147446105	2099.19995117188
824.870772539632	2103.60009765625
825.589307716775	2129.19995117188
826.307752985404	2140.80004882813
827.026108353378	2132.39990234375
827.744373828579	2107.60009765625
828.462549418867	2104.39990234375
829.180635132107	2108.60009765625
829.898630976168	2118.39990234375
830.616536958915	2119.80004882813
831.334353088218	2124.80004882813
832.052079371938	2108.39990234375
832.769715817942	2109.60009765625
833.487262434092	2115.19995117188
834.204719228255	2114.80004882813
834.922086208293	2098.60009765625
835.639363382073	2106.19995117188
836.356550757456	2106.60009765625
837.073648342304	2114.80004882813
837.790656144484	2098.80004882813
838.507574171847	2103.80004882813
839.22440243227	2105.80004882813
839.941140933601	2108.39990234375
840.657789683706	2107.60009765625
841.374348690448	2117
842.090817961686	2122.80004882813
842.807197505276	2129.19995117188
843.523487329083	2124
844.23968744096	2108.19995117188
844.955797848771	2093.60009765625
845.671818560374	2105
846.387749583622	2098.19995117188
847.103590926378	2088.80004882813
847.819342596497	2078.39990234375
848.535004601833	2075
849.25057695025	2066.80004882813
849.966059649598	2054.80004882813
850.681452707735	2064
851.396756132513	2081.80004882813
852.111969931789	2081.60009765625
852.827094113419	2094.39990234375
853.542128685257	2087.39990234375
854.257073655158	2095
854.971929030969	2098
855.686694820551	2089.19995117188
856.40137103175	2109.80004882813
857.115957672423	2094.80004882813
857.830454750423	2091.60009765625
858.544862273597	2075.60009765625
859.259180249797	2098.80004882813
859.97340868688	2119.19995117188
860.687547592688	2121
861.401596975075	2105.39990234375
862.115556841891	2128.39990234375
862.829427200985	2149.60009765625
863.543208060205	2143.60009765625
864.256899427402	2128.60009765625
864.970501310423	2121.80004882813
865.684013717114	2105.80004882813
866.397436655325	2104.19995117188
867.110770132901	2101.60009765625
867.824014157691	2090.19995117188
868.537168737542	2072.80004882813
869.250233880299	2080.80004882813
869.963209593803	2083.39990234375
870.676095885902	2068.39990234375
871.388892764445	2092
872.101600237276	2079.19995117188
872.814218312233	2086
873.526746997165	2078.80004882813
874.239186299914	2088.60009765625
874.951536228323	2103
875.663796790231	2086.80004882813
876.375967993487	2100.80004882813
877.088049845928	2081.80004882813
877.8000423554	2083.60009765625
878.511945529739	2082.80004882813
879.22375937679	2064
879.935483904388	2061.39990234375
880.64711912038	2081.60009765625
881.358665032604	2064.39990234375
882.070121648892	2050.19995117188
882.78148897709	2051.19995117188
883.492767025039	2051
884.203955800571	2055.60009765625
884.915055311525	2084.60009765625
885.626065565741	2075
886.336986571053	2074.60009765625
887.047818335298	2059.39990234375
887.758560866315	2080.60009765625
888.469214171937	2069.39990234375
889.179778260005	2061.60009765625
889.890253138347	2046.40002441406
890.600638814803	2057.39990234375
891.310935297204	2045.19995117188
892.021142593385	2046.80004882813
892.731260711183	2080.39990234375
893.441289658429	2097.80004882813
894.15122944295	2104
894.861080072591	2105.80004882813
895.570841555173	2074.39990234375
896.280513898534	2093.39990234375
896.990097110503	2098.80004882813
897.699591198913	2114
898.408996171595	2117.60009765625
899.118312036375	2116.60009765625
899.827538801089	2106.60009765625
900.536676473561	2105.60009765625
901.245725061628	2094.60009765625
901.954684573109	2106.80004882813
902.663555015838	2119
903.372336397644	2139.19995117188
904.081028726351	2144.19995117188
904.789632009793	2141
905.49814625579	2132.60009765625
906.20657147217	2138.60009765625
906.914907666765	2136.60009765625
907.623154847391	2115.39990234375
908.331313021885	2094.80004882813
909.039382198064	2114.19995117188
909.747362383754	2127.19995117188
910.455253586782	2111
911.163055814972	2109.60009765625
911.870769076143	2104.60009765625
912.578393378126	2112.19995117188
913.285928728738	2116.39990234375
913.993375135802	2108
914.700732607145	2121.60009765625
915.408001150579	2118.19995117188
916.115180773937	2118.19995117188
916.822271485037	2136
917.529273291693	2126
918.236186201733	2145.80004882813
918.943010222971	2152
919.649745363234	2130.60009765625
920.356391630333	2140.80004882813
921.062949032096	2130.80004882813
921.769417576333	2123.80004882813
922.475797270864	2121.60009765625
923.182088123512	2125.60009765625
923.888290142089	2103
924.594403334414	2121.60009765625
925.300427708304	2141.80004882813
926.006363271572	2137.60009765625
926.712210032039	2132.80004882813
927.417967997522	2125.39990234375
928.123637175827	2108.80004882813
928.829217574776	2133.19995117188
929.534709202184	2105.60009765625
930.240112065859	2127
930.945426173621	2120.39990234375
931.650651533283	2101.80004882813
932.355788152653	2101.80004882813
933.060836039547	2081.60009765625
933.765795201776	2092.60009765625
934.470665647153	2072
935.175447383492	2061.19995117188
935.880140418599	2062.60009765625
936.584744760286	2064.80004882813
937.289260416366	2087.19995117188
937.993687394647	2092.80004882813
938.698025702939	2109.60009765625
939.402275349051	2119.39990234375
940.106436340793	2141.60009765625
940.810508685976	2138.80004882813
941.5144923924	2136.60009765625
942.21838746788	2139.19995117188
942.922193920223	2123.19995117188
943.625911757231	2120.80004882813
944.329540986716	2110
945.033081616484	2104.80004882813
945.736533654334	2086.19995117188
946.439897108083	2066.39990234375
947.143171985529	2080.60009765625
947.846358294477	2077.39990234375
948.549456042732	2090.19995117188
949.2524652381	2079.80004882813
949.955385888382	2096.80004882813
950.658218001384	2113.39990234375
951.360961584907	2104.39990234375
952.063616646755	2127
952.766183194733	2118.60009765625
953.468661236636	2125.60009765625
954.171050780271	2124
954.873351833437	2143.60009765625
955.575564403935	2119
956.277688499565	2097.19995117188
956.97972412813	2090
957.681671297424	2092.39990234375
958.383530015255	2083.60009765625
959.085300289414	2079.19995117188
959.786982127703	2094
960.488575537918	2088.80004882813
961.190080527859	2108.39990234375
961.891497105327	2074.60009765625
962.592825278111	2074
963.294065054012	2088.19995117188
963.995216440829	2081.80004882813
964.696279446353	2084.39990234375
965.397254078383	2083
966.098140344714	2097.19995117188
966.798938253139	2076.60009765625
967.499647811456	2092
968.200269027458	2085
968.900801908937	2079.19995117188
969.601246463685	2063.60009765625
970.3016026995	2052.19995117188
971.001870624169	2042.40002441406
971.702050245491	2051.80004882813
972.402141571249	2050.80004882813
973.102144609245	2063.19995117188
973.802059367267	2057.19995117188
974.501885853103	2075.39990234375
975.201624074541	2072.39990234375
975.901274039379	2106.80004882813
976.600835755399	2110.19995117188
977.3003092304	2108.19995117188
977.999694472158	2128.19995117188
978.698991488473	2107.60009765625
979.39820028713	2098.60009765625
980.097320875915	2094.80004882813
980.796353262618	2095.60009765625
981.495297455024	2096.19995117188
982.194153460919	2112.60009765625
982.892921288093	2106.60009765625
983.591600944331	2102.39990234375
984.290192437419	2089.80004882813
984.98869577514	2092.60009765625
985.687110965282	2070.80004882813
986.385438015629	2071.60009765625
987.083676933961	2060.39990234375
987.781827728069	2047.80004882813
988.479890405732	2051
989.177864974732	2064.60009765625
989.875751442857	2070.39990234375
990.573549817888	2082.39990234375
991.271260107602	2105.60009765625
991.968882319786	2102.80004882813
992.666416462217	2083.80004882813
993.363862542681	2086.19995117188
994.061220568959	2056
994.758490548823	2059.39990234375
995.455672490061	2056.60009765625
996.152766400451	2058.80004882813
996.849772287773	2086
997.5466901598	2105.80004882813
998.243520024317	2121.80004882813
998.940261889097	2084.39990234375
999.636915761923	2086.80004882813
1000.33348165057	2081.19995117188
1001.02995956281	2065
1001.72634950643	2047.80004882813
1002.42265148919	2048
1003.11886551889	2064.60009765625
1003.81499160328	2080.39990234375
1004.51102975015	2119.19995117188
1005.20697996727	2122.19995117188
1005.90284226242	2110.19995117188
1006.59861664337	2116.39990234375
1007.2943031179	2129.39990234375
1007.98990169377	2126.80004882813
1008.68541237876	2126.39990234375
1009.38083518064	2131
1010.07617010719	2141
1010.77141716617	2134.19995117188
1011.46657636536	2133.39990234375
1012.16164771253	2120.39990234375
1012.85663121546	2086.60009765625
1013.5515268819	2098.19995117188
1014.24633471963	2077.60009765625
1014.94105473642	2097.39990234375
1015.63568694004	2082.19995117188
1016.33023133826	2093
1017.02468793885	2102.60009765625
1017.71905674957	2087.80004882813
1018.41333777819	2099.39990234375
1019.10753103249	2101
1019.80163652022	2102.80004882813
1020.49565424916	2114
1021.18958422707	2101.19995117188
1021.88342646171	2111.60009765625
1022.57718096085	2105.80004882813
1023.27084773227	2104.80004882813
1023.96442678371	2083.80004882813
1024.65791812296	2086.19995117188
1025.35132175776	2089
1026.04463769589	2062.19995117188
1026.73786594511	2058.80004882813
1027.43100651318	2053.19995117188
1028.12405940786	2063.39990234375
1028.81702463692	2074.60009765625
1029.50990220812	2084
1030.20269212921	2074.80004882813
1030.89539440798	2100
1031.58800905216	2084.19995117188
1032.28053606952	2083.39990234375
1032.97297546784	2080.39990234375
1033.66532725485	2078.60009765625
1034.35759143832	2086.60009765625
1035.04976802602	2084.60009765625
1035.7418570257	2071.80004882813
1036.43385844511	2053
1037.12577229202	2049.60009765625
1037.81759857419	2071.80004882813
1038.50933729937	2061
1039.20098847531	2078.39990234375
1039.89255210978	2084
1040.58402821053	2066.19995117188
1041.27541678532	2065.39990234375
1041.96671784191	2085.80004882813
1042.65793138804	2054.80004882813
1043.34905743147	2064
1044.04009597996	2058.80004882813
1044.73104704125	2091.19995117188
1045.42191062312	2106.60009765625
1046.1126867333	2101
1046.80337537955	2111
1047.49397656962	2092.19995117188
1048.18449031127	2100.60009765625
1048.87491661225	2091.60009765625
1049.5652554803	2105.39990234375
1050.25550692319	2075.60009765625
1050.94567094865	2065.19995117188
1051.63574756444	2074
1052.32573677832	2075.19995117188
1053.01563859803	2090.39990234375
1053.70545303131	2083.80004882813
1054.39518008592	2085.60009765625
1055.08481976961	2073.60009765625
1055.77437209013	2072.60009765625
1056.46383705522	2088.60009765625
1057.15321467262	2088.19995117188
1057.8425049501	2080
1058.53170789539	2068.60009765625
1059.22082351624	2067.60009765625
1059.9098518204	2039.59997558594
1060.59879281561	2058.19995117188
1061.28764650962	2044.40002441406
1061.97641291016	2049.19995117188
1062.665092025	2048.19995117188
1063.35368386187	2067.19995117188
1064.04218842851	2050.80004882813
1064.73060573268	2050.80004882813
1065.4189357821	2044.40002441406
1066.10717858452	2046.40002441406
1066.7953341477	2046.40002441406
1067.48340247936	2017.40002441406
1068.17138358725	2032.40002441406
1068.85927747912	2029.59997558594
1069.5470841627	2044.40002441406
1070.23480364573	2064
1070.92243593595	2072
1071.60998104111	2067.19995117188
1072.29743896894	2067.60009765625
1072.98480972718	2082
1073.67209332357	2087.19995117188
1074.35928976585	2099
1075.04639906176	2086.19995117188
1075.73342121903	2088
1076.42035624541	2088
1077.10720414862	2093
1077.79396493641	2121.19995117188
1078.48063861651	2101.80004882813
1079.16722519666	2103
1079.85372468459	2088.60009765625
1080.54013708804	2075.60009765625
1081.22646241474	2049.60009765625
1081.91270067243	2020.59997558594
1082.59885186884	2046.80004882813
1083.28491601171	2060
1083.97089310877	2073
1084.65678316774	2080
1085.34258619637	2098.39990234375
1086.02830220239	2106.39990234375
1086.71393119352	2092.39990234375
1087.39947317751	2097.80004882813
1088.08492816207	2098.80004882813
1088.77029615495	2106
1089.45557716387	2109.60009765625
1090.14077119656	2084.19995117188
1090.82587826075	2074.19995117188
1091.51089836417	2059
1092.19583151456	2068.39990234375
1092.88067771963	2057.60009765625
1093.56543698712	2047
1094.25010932475	2067.39990234375
1094.93469474026	2061.39990234375
1095.61919324137	2062
1096.3036048358	2065.60009765625
1096.98792953129	2070.39990234375
1097.67216733555	2065.19995117188
1098.35631825632	2067.39990234375
1099.04038230132	2071
1099.72435947828	2069.19995117188
1100.40824979492	2061.80004882813
1101.09205325895	2066.80004882813
1101.77576987812	2045.80004882813
1102.45939966014	2033.19995117188
1103.14294261273	2017.59997558594
1103.82639874362	2005.59997558594
1104.50976806054	2004.40002441406
1105.19305057119	2022.59997558594
1105.87624628331	2045.59997558594
1106.55935520461	2064.19995117188
1107.24237734283	2079.19995117188
1107.92531270566	2081.60009765625
1108.60816130085	2091.19995117188
1109.2909231361	2084.19995117188
1109.97359821914	2090.19995117188
1110.65618655768	2093.19995117188
1111.33868815946	2106.39990234375
1112.02110303217	2113.80004882813
1112.70343118355	2116
1113.3856726213	2126.60009765625
1114.06782735316	2137.19995117188
1114.74989538683	2126.19995117188
1115.43187673002	2099.60009765625
1116.11377139047	2067.39990234375
1116.79557937588	2058
1117.47730069397	2070
1118.15893535245	2094
1118.84048335904	2089
1119.52194472146	2100.80004882813
1120.20331944741	2107.39990234375
1120.88460754462	2087.80004882813
1121.56580902079	2098.60009765625
1122.24692388364	2109
1122.92795214088	2091
1123.60889380022	2092.60009765625
1124.28974886938	2119.19995117188
1124.97051735606	2130
1125.65119926799	2154.19995117188
1126.33179461286	2143.60009765625
1127.0123033984	2137.39990234375
1127.6927256323	2128.80004882813
1128.37306132229	2119.19995117188
1129.05331047606	2120.80004882813
1129.73347310134	2118.39990234375
1130.41354920582	2120.19995117188
1131.09353879722	2131.60009765625
1131.77344188324	2132.80004882813
1132.45325847159	2128.80004882813
1133.13298856999	2134.80004882813
1133.81263218612	2151.19995117188
1134.49218932772	2120.60009765625
1135.17166000247	2120.39990234375
1135.85104421809	2103.19995117188
1136.53034198227	2082.80004882813
1137.20955330274	2072.39990234375
1137.88867818718	2059.80004882813
1138.56771664331	2058.80004882813
1139.24666867883	2088.60009765625
1139.92553430144	2100.19995117188
1140.60431351885	2092.80004882813
1141.28300633876	2111.60009765625
1141.96161276887	2121.19995117188
1142.64013281689	2112.60009765625
1143.31856649051	2122.19995117188
1143.99691379744	2114.19995117188
1144.67517474538	2105.39990234375
1145.35334934203	2124.19995117188
1146.03143759509	2096.19995117188
1146.70943951226	2100.80004882813
1147.38735510125	2077.39990234375
1148.06518436974	2057.19995117188
1148.74292732545	2059.39990234375
1149.42058397606	2062.60009765625
1150.09815432928	2051.39990234375
1150.7756383928	2058.60009765625
1151.45303617432	2071.19995117188
1152.13034768155	2080.19995117188
1152.80757292217	2101.19995117188
1153.48471190389	2135.80004882813
1154.16176463439	2133
1154.83873112138	2115.19995117188
1155.51561137255	2103.60009765625
1156.1924053956	2083.19995117188
1156.86911319822	2098.80004882813
1157.5457347881	2103.80004882813
1158.22227017294	2097
1158.89871936044	2093
1159.57508235828	2103.39990234375
1160.25135917416	2092.80004882813
1160.92754981578	2097.60009765625
1161.60365429081	2081.80004882813
1162.27967260697	2072.19995117188
1162.95560477193	2083.39990234375
1163.63145079339	2096
1164.30721067904	2078.80004882813
1164.98288443657	2071.39990234375
1165.65847207367	2091.19995117188
1166.33397359803	2097.19995117188
1167.00938901735	2125
1167.6847183393	2106
1168.35996157157	2107.80004882813
1169.03511872187	2107.80004882813
1169.71018979787	2124
1170.38517480726	2118.19995117188
1171.06007375773	2119.80004882813
1171.73488665696	2097.39990234375
1172.40961351265	2082.80004882813
1173.08425433247	2085.80004882813
1173.75880912412	2064.39990234375
1174.43327789528	2071.60009765625
1175.10766065364	2074.39990234375
1175.78195740687	2086.80004882813
1176.45616816267	2104
1177.13029292871	2098
1177.80433171269	2115.60009765625
1178.47828452229	2116.80004882813
1179.15215136518	2112.39990234375
1179.82593224905	2138
1180.49962718159	2128.39990234375
1181.17323617047	2143.19995117188
1181.84675922337	2156.80004882813
1182.52019634799	2162.19995117188
1183.193547552	2161
1183.86681284307	2156.19995117188
1184.53999222889	2162.19995117188
1185.21308571714	2161.80004882813
1185.8860933155	2150
1186.55901503165	2141.39990234375
1187.23185087326	2134.19995117188
1187.90460084802	2154
1188.5772649636	2146
1189.24984322768	2143.39990234375
1189.92233564794	2167
1190.59474223206	2162
1191.2670629877	2162.60009765625
1191.93929792255	2156.39990234375
1192.61144704428	2150.39990234375
1193.28351036058	2143
1193.9554878791	2136.19995117188
1194.62737960754	2120.19995117188
1195.29918555356	2140.19995117188
1195.97090572483	2148.39990234375
1196.64254012903	2160.39990234375
1197.31408877384	2156.39990234375
1197.98555166693	2177.60009765625
1198.65692881596	2173
1199.32822022862	2148.80004882813
1199.99942591256	2159.39990234375
1200.67054587548	2163
1201.34158012503	2143.80004882813
1202.01252866889	2144.60009765625
1202.68339151473	2112.80004882813
1203.35416867021	2098.39990234375
1204.02486014301	2104.19995117188
1204.6954659408	2107.19995117188
1205.36598607124	2121.39990234375
1206.03642054201	2127.60009765625
1206.70676936078	2132.39990234375
1207.3770325352	2116.19995117188
1208.04721007295	2085.80004882813
1208.7173019817	2112
1209.38730826911	2090.60009765625
1210.05722894285	2092.39990234375
1210.72706401059	2081.60009765625
1211.39681347999	2055.60009765625
1212.06647735872	2070.60009765625
1212.73605565444	2053.39990234375
1213.40554837481	2070.19995117188
1214.07495552751	2080
1214.74427712019	2091.19995117188
1215.41351316052	2118
1216.08266365617	2122.39990234375
1216.75172861479	2118.60009765625
1217.42070804405	2115
1218.0896019516	2107.60009765625
1218.75841034513	2075.60009765625
1219.42713323227	2095.39990234375
1220.0957706207	2105.19995117188
1220.76432251808	2114.60009765625
1221.43278893207	2099
1222.10116987032	2123
1222.7694653405	2123
1223.43767535026	2123.19995117188
1224.10579990727	2113.39990234375
1224.77383901918	2118.19995117188
1225.44179269366	2123.39990234375
1226.10966093835	2093.60009765625
1226.77744376093	2107.19995117188
1227.44514116904	2115
1228.11275317034	2135.19995117188
1228.78027977249	2111.39990234375
1229.44772098315	2121
1230.11507680996	2115.60009765625
1230.7823472606	2088.39990234375
1231.44953234271	2075
1232.11663206394	2060
1232.78364643195	2031
1233.4505754544	2041.19995117188
1234.11741913894	2017.59997558594
1234.78417749322	2025.40002441406
1235.45085052489	2034.59997558594
1236.11743824162	2049.80004882813
1236.78394065104	2058.39990234375
1237.45035776082	2065.19995117188
1238.1166895786	2062.39990234375
1238.78293611204	2086.60009765625
1239.44909736878	2100.80004882813
1240.11517335648	2069.19995117188
1240.78116408279	2087
1241.44706955535	2092.80004882813
1242.11288978182	2075.39990234375
1242.77862476985	2080.80004882813
1243.44427452708	2061.80004882813
1244.10983906116	2041.80004882813
1244.77531837974	2029
1245.44071249047	2051
1246.106021401	2066.80004882813
1246.77124511898	2048
1247.43638365204	2076.19995117188
1248.10143700783	2099.60009765625
1248.76640519401	2110.60009765625
1249.43128821822	2109.19995117188
1250.0960860881	2071
1250.76079881129	2084.39990234375
1251.42542639545	2070.60009765625
1252.08996884822	2055.80004882813
1252.75442617723	2056.60009765625
1253.41879839014	2039.59997558594
1254.08308549458	2069.60009765625
1254.74728749821	2050.39990234375
1255.41140440866	2065.60009765625
1256.07543623357	2056.80004882813
1256.73938298059	2070.80004882813
1257.40324465735	2043.19995117188
1258.0670212715	2060.19995117188
1258.73071283068	2042.80004882813
1259.39431934253	2059
1260.05784081468	2052.60009765625
1260.72127725479	2085.19995117188
1261.38462867049	2062.19995117188
1262.0478950694	2056.80004882813
1262.71107645919	2057.60009765625
1263.37417284748	2051
1264.03718424191	2049.80004882813
1264.70011065011	2047.59997558594
1265.36295207974	2068.19995117188
1266.02570853841	2079.19995117188
1266.68838003378	2091.39990234375
1267.35096657346	2081.19995117188
1268.01346816511	2068.80004882813
1268.67588481636	2048
1269.33821653483	2040
1270.00046332817	2039.40002441406
1270.66262520401	2059.39990234375
1271.32470216998	2094
1271.98669423372	2072.39990234375
1272.64860140285	2082.60009765625
1273.31042368503	2064.60009765625
1273.97216108786	2063
1274.633813619	2080
1275.29538128606	2097.39990234375
1275.95686409669	2093.39990234375
1276.6182620585	2091.39990234375
1277.27957517914	2058.39990234375
1277.94080346624	2050.80004882813
1278.60194692741	2062.19995117188
1279.2630055703	2073.19995117188
1279.92397940253	2078.60009765625
1280.58486843173	2073.19995117188
1281.24567266552	2049.80004882813
1281.90639211155	2041.59997558594
1282.56702677743	2038
1283.2275766708	2037.19995117188
1283.88804179927	2003.59997558594
1284.54842217049	2017.80004882813
1285.20871779206	2041.19995117188
1285.86892867163	2050.39990234375
1286.52905481681	2066.80004882813
1287.18909623523	2072.19995117188
1287.84905293452	2083
1288.5089249223	2081.80004882813
1289.16871220619	2088.19995117188
1289.82841479383	2068.39990234375
1290.48803269282	2090.19995117188
1291.1475659108	2081.80004882813
1291.80701445539	2061.80004882813
1292.46637833421	2047.80004882813
1293.12565755489	2057.80004882813
1293.78485212504	2059.39990234375
1294.44396205229	2074
1295.10298734425	2083.60009765625
1295.76192800856	2092.39990234375
1296.42078405283	2081.39990234375
1297.07955548467	2071
1297.73824231171	2083
1298.39684454158	2093.80004882813
1299.05536218188	2089
1299.71379524023	2114.60009765625
1300.37214372427	2126
1301.03040764159	2120
1301.68858699983	2100.19995117188
1302.34668180659	2100
1303.0046920695	2095.39990234375
1303.66261779617	2109
1304.32045899422	2097.39990234375
1304.97821567126	2111.80004882813
1305.63588783492	2123
1306.29347549279	2113.39990234375
1306.95097865251	2112.60009765625
1307.60839732168	2128.19995117188
1308.26573150791	2135.39990234375
1308.92298121883	2135.39990234375
1309.58014646204	2108.80004882813
1310.23722724517	2073.60009765625
1310.89422357581	2096.39990234375
1311.55113546158	2095
1312.2079629101	2111.19995117188
1312.86470592898	2122
1313.52136452582	2136.60009765625
1314.17793870824	2120.80004882813
1314.83442848386	2122.60009765625
1315.49083386027	2107.80004882813
1316.14715484509	2126.39990234375
1316.80339144594	2120.39990234375
1317.45954367041	2154.19995117188
1318.11561152611	2141
1318.77159502067	2127.39990234375
1319.42749416168	2153.39990234375
1320.08330895674	2133.19995117188
1320.73903941348	2116.80004882813
1321.3946855395	2106.19995117188
1322.0502473424	2095.39990234375
1322.70572482978	2090.80004882813
1323.36111800926	2087.60009765625
1324.01642688845	2097.39990234375
1324.67165147494	2111
1325.32679177634	2126
1325.98184780025	2132
1326.63681955429	2128.60009765625
1327.29170704605	2113.19995117188
1327.94651028314	2102.19995117188
1328.60122927316	2110.80004882813
1329.25586402371	2091.60009765625
1329.9104145424	2101.60009765625
1330.56488083683	2114.39990234375
1331.2192629146	2102.80004882813
1331.87356078331	2108.60009765625
1332.52777445056	2104.60009765625
1333.18190392395	2105.39990234375
1333.83594921109	2112.80004882813
1334.48991031958	2080.80004882813
1335.143787257	2063.19995117188
1335.79758003097	2095.60009765625
1336.45128864908	2089.19995117188
1337.10491311893	2107.39990234375
1337.75845344813	2114.19995117188
1338.41190964425	2107.19995117188
1339.06528171491	2107.39990234375
1339.71856966771	2090
1340.37177351023	2083.60009765625
1341.02489325007	2037
1341.67792889484	2033.59997558594
1342.33088045212	2042
1342.98374792952	2048.60009765625
1343.63653133462	2046
1344.28923067503	2078.80004882813
1344.94184595833	2070.80004882813
1345.59437719212	2070.60009765625
1346.246824384	2066
1346.89918754155	2075.60009765625
1347.55146667238	2073
1348.20366178407	2080
1348.85577288421	2072
1349.50779998041	2083.39990234375
1350.15974308024	2075.39990234375
1350.8116021913	2080.19995117188
1351.46337732119	2073.39990234375
1352.11506847748	2100
1352.76667566778	2081.19995117188
1353.41819889967	2110
1354.06963818074	2097.80004882813
1354.72099351858	2108.19995117188
1355.37226492079	2104
1356.02345239494	2128.39990234375
1356.67455594862	2133
1357.32557558943	2168.19995117188
1357.97651132496	2209.39990234375
1358.62736316277	2215.19995117188
1359.27813111048	2218.39990234375
1359.92881517565	2225.60009765625
1360.57941536589	2225.19995117188
1361.22993168876	2228.39990234375
1361.88036415186	2241.39990234375
1362.53071276278	2240.39990234375
1363.1809775291	2244.19995117188
1363.8311584584	2257
1364.48125555826	2232.39990234375
1365.13126883627	2188.80004882813
1365.78119830001	2164.19995117188
1366.43104395707	2145.60009765625
1367.08080581503	2156
1367.73048388147	2124.80004882813
1368.38007816397	2141.60009765625
1369.02958867011	2102.60009765625
1369.67901540748	2133
1370.32835838365	2110.39990234375
1370.9776176062	2112.19995117188
1371.62679308273	2115.39990234375
1372.27588482079	2116.19995117188
1372.92489282798	2110.39990234375
1373.57381711188	2108.60009765625
1374.22265768006	2097.19995117188
1374.87141454009	2070
1375.52008769957	2056.19995117188
1376.16867716606	2068
1376.81718294715	2061.19995117188
1377.4656050504	2031.40002441406
1378.1139434834	2025.80004882813
1378.76219825373	2043.80004882813
1379.41036936895	2039.80004882813
1380.05845683664	2050
1380.70646066439	2047.19995117188
1381.35438085976	2054.39990234375
1382.00221743032	2055.80004882813
1382.64997038366	2061
1383.29763972735	2067.80004882813
1383.94522546895	2065
1384.59272761605	2072.19995117188
1385.24014617621	2046
1385.88748115701	2085.39990234375
1386.53473256602	2067
1387.18190041081	2063.19995117188
1387.82898469895	2037.40002441406
1388.47598543802	2043.19995117188
1389.12290263558	2033.40002441406
1389.7697362992	2017
1390.41648643646	1996
1391.06315305492	1984.19995117188
1391.70973616215	2003
1392.35623576573	1975.40002441406
1393.00265187321	1987.40002441406
1393.64898449217	1999.40002441406
1394.29523363018	2004
1394.94139929481	2023.40002441406
1395.58748149361	2022.80004882813
1396.23348023415	2016.59997558594
1396.87939552402	1992.59997558594
1397.52522737076	1985.80004882813
1398.17097578195	1953.19995117188
1398.81664076514	1959.80004882813
1399.46222232792	1931.19995117188
1400.10772047783	1920.80004882813
1400.75313522245	1922
1401.39846656934	1932.59997558594
1402.04371452605	1949.19995117188
1402.68887910016	1971.59997558594
1403.33396029924	1973
1403.97895813083	1988.40002441406
1404.6238726025	2011
1405.26870372182	1998.80004882813
1405.91345149634	1994.40002441406
1406.55811593363	1974
1407.20269704125	1973.59997558594
1407.84719482676	1976
1408.49160929772	1974.59997558594
1409.13594046168	1998.40002441406
1409.78018832622	2002.59997558594
1410.42435289887	2017
1411.06843418722	2016.19995117188
1411.7124321988	2006
1412.3563469412	2032
1413.00017842194	2037
1413.64392664861	2035.80004882813
1414.28759162875	2045.19995117188
1414.93117336992	2036.19995117188
1415.57467187967	2034.80004882813
1416.21808716557	1990.40002441406
1416.86141923516	2014.59997558594
1417.50466809601	2005
1418.14783375567	2001.80004882813
1418.79091622169	2002.40002441406
1419.43391550162	1996
1420.07683160303	1977.59997558594
1420.71966453346	2002
1421.36241430046	2009.19995117188
1422.0050809116	2038.59997558594
1422.64766437442	2032.80004882813
1423.29016469647	2055.80004882813
1423.93258188531	2055.60009765625
1424.57491594848	2050.19995117188
1425.21716689354	2039.19995117188
1425.85933472805	2029.80004882813
1426.50141945954	2040.19995117188
1427.14342109557	2029.80004882813
1427.78533964369	2016.80004882813
1428.42717511144	2021.59997558594
1429.06892750639	2000.80004882813
1429.71059683607	1994.19995117188
1430.35218310803	1999.40002441406
1430.99368632983	1984.59997558594
1431.635106509	2007.40002441406
1432.2764436531	2012
1432.91769776967	2021
1433.55886886627	2052.19995117188
1434.19995695043	2047.59997558594
1434.84096202969	2024
1435.48188411162	2036.19995117188
1436.12272320375	2026
1436.76347931363	2008.40002441406
1437.40415244879	1998.80004882813
1438.0447426168	1986.19995117188
1438.68524982518	2004.19995117188
1439.32567408148	1994.19995117188
1439.96601539325	1988
1440.60627376803	1976.59997558594
1441.24644921336	1970.19995117188
1441.88654173678	1973.40002441406
1442.52655134583	1965.80004882813
1443.16647804806	1977
1443.806321851	1973.59997558594
1444.4460827622	1973.80004882813
1445.0857607892	1984
1445.72535593953	1967.59997558594
1446.36486822074	1934.59997558594
1447.00429764037	1925.40002441406
1447.64364420595	1934.40002441406
1448.28290792502	1929.59997558594
1448.92208880512	1950.40002441406
1449.56118685379	1960.40002441406
1450.20020207857	1963.80004882813
1450.83913448699	1968.80004882813
1451.47798408659	1967.40002441406
1452.1167508849	1963.80004882813
1452.75543488947	1966
1453.39403610782	1966.59997558594
1454.0325545475	1969.40002441406
1454.67099021603	1969.19995117188
1455.30934312097	2009.19995117188
1455.94761326982	1995.80004882813
1456.58580067014	1980.59997558594
1457.22390532945	1982.59997558594
1457.86192725529	1982.59997558594
1458.49986645519	1981.80004882813
1459.13772293668	1983.40002441406
1459.7754967073	1981.59997558594
1460.41318777457	1965.80004882813
1461.05079614604	1955.19995117188
1461.68832182922	1946.80004882813
1462.32576483166	1939.40002441406
1462.96312516087	1935.19995117188
1463.6004028244	1961.40002441406
1464.23759782977	1978
1464.8747101845	2007.19995117188
1465.51173989614	1990.80004882813
1466.14868697221	2000.19995117188
1466.78555142024	1992.80004882813
1467.42233324774	1973.80004882813
1468.05903246227	1968.80004882813
1468.69564907133	1967
1469.33218308246	1972.80004882813
1469.96863450317	1983.40002441406
1470.60500334102	1995
1471.2412896035	2003.19995117188
1471.87749329816	1998.80004882813
1472.51361443251	2001.80004882813
1473.14965301409	1995.80004882813
1473.78560905041	1979.59997558594
1474.421482549	2013.80004882813
1475.05727351739	1972.40002441406
1475.69298196309	1980.80004882813
1476.32860789364	1976.19995117188
1476.96415131654	1973.59997558594
1477.59961223934	1956.59997558594
1478.23499066954	1946.59997558594
1478.87028661467	1966.40002441406
1479.50550008226	1960.19995117188
1480.14063107981	1959
1480.77567961486	1954.59997558594
1481.41064569492	1949.40002441406
1482.04552932752	1934
1482.68033052017	1922
1483.31504928039	1953
1483.9496856157	1953.40002441406
1484.58423953363	1991.40002441406
1485.21871104168	1979.59997558594
1485.85310014738	1971.19995117188
1486.48740685824	1981.19995117188
1487.12163118178	1957.59997558594
1487.75577312553	1966.59997558594
1488.38983269698	1966.59997558594
1489.02380990367	1981.59997558594
1489.65770475311	1984
1490.29151725281	1995.40002441406
1490.92524741029	1989.19995117188
1491.55889523306	2008.40002441406
1492.19246072863	2004.59997558594
1492.82594390453	1986.40002441406
1493.45934476826	1968.40002441406
1494.09266332734	1982.80004882813
1494.72589958928	1965.59997558594
1495.3590535616	1992.19995117188
1495.99212525181	2002
1496.62511466741	2003.80004882813
1497.25802181592	2014.80004882813
1497.89084670485	2030.59997558594
1498.52358934172	2065.80004882813
1499.15624973403	2067.39990234375
1499.7888278893	2082.60009765625
1500.42132381503	2087.60009765625
1501.05373751873	2098.19995117188
1501.68606900792	2104.39990234375
1502.31831829009	2134.80004882813
1502.95048537277	2099.80004882813
1503.58257026346	2126.60009765625
1504.21457296966	2120.80004882813
1504.84649349889	2124
1505.47833185864	2133.80004882813
1506.11008805644	2117
1506.74176209978	2089.80004882813
1507.37335399617	2082.60009765625
1508.00486375312	2082.80004882813
1508.63629137813	2074.60009765625
1509.2676368787	2084.19995117188
1509.89890026235	2085.60009765625
1510.53008153658	2083.60009765625
1511.16118070889	2085.39990234375
1511.79219778677	2081
1512.42313277775	2072.80004882813
1513.05398568932	2071.19995117188
1513.68475652898	2089.19995117188
1514.31544530424	2081
1514.9460520226	2049.80004882813
1515.57657669155	2041.59997558594
1516.20701931861	2041.40002441406
1516.83737991127	2031.40002441406
1517.46765847702	2015
1518.09785502339	2027.59997558594
1518.72796955785	2026.59997558594
1519.35800208792	2034.80004882813
1519.98795262109	2020.80004882813
1520.61782116486	2048.19995117188
1521.24760772673	2033.19995117188
1521.87731231419	2035.40002441406
1522.50693493475	2044.59997558594
1523.1364755959	2033.80004882813
1523.76593430514	2040.19995117188
1524.39531106997	2037.40002441406
1525.02460589788	2034.40002441406
1525.65381879637	2043.80004882813
1526.28294977293	2016.80004882813
1526.91199883507	1996.19995117188
1527.54096599027	1987.80004882813
1528.16985124603	1992.80004882813
1528.79865460984	1979
1529.4273760892	1989.80004882813
1530.05601569161	1992.19995117188
1530.68457342455	1982.40002441406
1531.31304929552	1995.19995117188
1531.94144331201	2014.40002441406
1532.56975548151	2003.40002441406
1533.19798581152	1991.59997558594
1533.82613430953	1998
1534.45420098302	1985.40002441406
1535.08218583949	1998.59997558594
1535.71008888643	1998
1536.33791013134	1996.19995117188
1536.96564958169	2008.80004882813
1537.59330724498	2002.40002441406
1538.22088312871	1992
1538.84837724034	1984.40002441406
1539.47578958739	1978
1540.10312017733	1982.19995117188
1540.73036901765	1981.40002441406
1541.35753611584	1955
1541.98462147939	1956.80004882813
1542.61162511578	1966.59997558594
1543.2385470325	1981.40002441406
1543.86538723704	1970
1544.49214573688	1982
1545.11882253951	1968.59997558594
1545.74541765241	1981.19995117188
1546.37193108306	1965
1546.99836283896	1964.19995117188
1547.62471292758	1950.40002441406
1548.25098135641	1967.19995117188
1548.87716813294	1955.59997558594
1549.50327326464	1962.59997558594
1550.12929675899	1944.19995117188
1550.75523862349	1954.80004882813
1551.38109886561	1963.19995117188
1552.00687749284	1968.40002441406
1552.63257451264	1963.19995117188
1553.25818993252	1960.40002441406
1553.88372375994	1944.59997558594
1554.50917600239	1932.59997558594
1555.13454666734	1935.80004882813
1555.75983576228	1948.19995117188
1556.38504329469	1942.59997558594
1557.01016927204	1931.59997558594
1557.63521370181	1932
1558.26017659149	1918.19995117188
1558.88505794854	1938.80004882813
1559.50985778045	1949.59997558594
1560.13457609469	1941.19995117188
1560.75921289874	1951.59997558594
1561.38376820008	1946.59997558594
1562.00824200618	1923.80004882813
1562.63263432452	1937
1563.25694516257	1951.80004882813
1563.88117452781	1929.40002441406
1564.50532242772	1934.19995117188
1565.12938886976	1927.80004882813
1565.75337386141	1923.19995117188
1566.37727741015	1935.80004882813
1567.00109952345	1963
1567.62484020878	1969.59997558594
1568.24849947361	1968.59997558594
1568.87207732542	1980.59997558594
1569.49557377168	1988.40002441406
1570.11898881986	1991.80004882813
1570.74232247743	1988.19995117188
1571.36557475186	1968.80004882813
1571.98874565062	2004
1572.61183518119	2022.40002441406
1573.23484335103	2030.80004882813
1573.85777016761	2024.80004882813
1574.4806156384	2039.80004882813
1575.10337977088	2047.40002441406
1575.7260625725	2047.19995117188
1576.34866405074	2031.19995117188
1576.97118421306	2014
1577.59362306694	2012
1578.21598061984	2011.59997558594
1578.83825687922	2010.59997558594
1579.46045185255	1995
1580.08256554731	1980.19995117188
1580.70459797094	1954.59997558594
1581.32654913093	1962.59997558594
1581.94841903473	1940
1582.57020768981	1936.59997558594
1583.19191510364	1940.80004882813
1583.81354128367	1910.19995117188
1584.43508623737	1906
1585.05654997221	1910.59997558594
1585.67793249564	1923.80004882813
1586.29923381514	1904.59997558594
1586.92045393815	1911.59997558594
1587.54159287216	1885.19995117188
1588.1626506246	1884
1588.78362720296	1886
1589.40452261468	1893.80004882813
1590.02533686724	1880.19995117188
1590.64606996808	1878
1591.26672192467	1883
1591.88729274447	1872.59997558594
1592.50778243493	1870.80004882813
1593.12819100352	1870.40002441406
1593.7485184577	1897.40002441406
1594.36876480492	1892.19995117188
1594.98893005264	1897.19995117188
1595.60901420832	1884.19995117188
1596.22901727941	1854.80004882813
1596.84893927338	1869.59997558594
1597.46878019767	1882
1598.08854005975	1894.19995117188
1598.70821886707	1897
1599.32781662708	1912.59997558594
1599.94733334725	1912.59997558594
1600.56676903502	1919.40002441406
1601.18612369785	1898.40002441406
1601.8053973432	1894.19995117188
1602.42458997851	1852.19995117188
1603.04370161124	1850.19995117188
1603.66273224884	1849.40002441406
1604.28168189878	1838.80004882813
1604.90055056849	1826.19995117188
1605.51933826543	1845
1606.13804499705	1822.40002441406
1606.75667077081	1838.59997558594
1607.37521559415	1823.59997558594
1607.99367947452	1827.40002441406
1608.61206241938	1844.80004882813
1609.23036443618	1838.19995117188
1609.84858553236	1831.80004882813
1610.46672571537	1844.19995117188
1611.08478499267	1838.40002441406
1611.7027633717	1845.40002441406
1612.3206608599	1845.80004882813
1612.93847746473	1847.40002441406
1613.55621319364	1828.80004882813
1614.17386805407	1802.40002441406
1614.79144205347	1803.19995117188
1615.40893519928	1807
1616.02634749895	1809
1616.64367895993	1799.80004882813
1617.26092958966	1802.40002441406
1617.87809939559	1811.19995117188
1618.49518838516	1812.19995117188
1619.11219656582	1826.59997558594
1619.729123945	1810
1620.34597053016	1821.19995117188
1620.96273632874	1813.59997558594
1621.57942134818	1812
1622.19602559592	1802.80004882813
1622.8125490794	1812
1623.42899180607	1808.59997558594
1624.04535378337	1798.80004882813
1624.66163501874	1796.59997558594
1625.27783551963	1818
1625.89395529346	1812
1626.50999434768	1798.19995117188
1627.12595268974	1788.40002441406
1627.74183032707	1782.59997558594
1628.3576272671	1795
1628.97334351729	1776.80004882813
1629.58897908506	1768.59997558594
1630.20453397786	1778.80004882813
1630.82000820313	1772.80004882813
1631.43540176829	1781.80004882813
1632.05071468079	1791
1632.66594694807	1793.59997558594
1633.28109857756	1807.80004882813
1633.8961695767	1801.59997558594
1634.51115995292	1793.40002441406
1635.12606971366	1785
1635.74089886636	1785.40002441406
1636.35564741844	1797.59997558594
1636.97031537734	1804.59997558594
1637.58490275051	1819.19995117188
1638.19940954536	1827.59997558594
1638.81383576934	1825.19995117188
1639.42818142987	1849.40002441406
1640.0424465344	1843.40002441406
1640.65663109034	1856.19995117188
1641.27073510515	1863.40002441406
1641.88475858623	1857.19995117188
1642.49870154104	1849.59997558594
1643.11256397699	1861
1643.72634590152	1871.59997558594
1644.34004732206	1857.19995117188
1644.95366824604	1876.19995117188
1645.56720868089	1872.19995117188
1646.18066863404	1862.19995117188
1646.79404811291	1857
1647.40734712494	1857.19995117188
1648.02056567755	1853
1648.63370377817	1842.19995117188
1649.24676143423	1855
1649.85973865316	1844
1650.47263544238	1835.19995117188
1651.08545180932	1840.80004882813
1651.6981877614	1858.19995117188
1652.31084330606	1820.59997558594
1652.92341845071	1824.59997558594
1653.53591320278	1794.40002441406
1654.1483275697	1807.19995117188
1654.7606615589	1802.59997558594
1655.37291517778	1789.40002441406
1655.98508843379	1793.19995117188
1656.59718133434	1798.19995117188
1657.20919388685	1807.59997558594
1657.82112609875	1778
1658.43297797747	1794.59997558594
1659.04474953041	1779.19995117188
1659.65644076501	1790.40002441406
1660.26805168869	1768.59997558594
1660.87958230886	1761.19995117188
1661.49103263294	1769.40002441406
1662.10240266837	1752
1662.71369242255	1764.80004882813
1663.32490190291	1752
1663.93603111687	1748.80004882813
1664.54708007184	1728.59997558594
1665.15804877524	1740.59997558594
1665.7689372345	1716.59997558594
1666.37974545703	1740.80004882813
1666.99047345024	1735.80004882813
1667.60112122156	1734.40002441406
1668.2116887784	1713.40002441406
1668.82217612818	1693.59997558594
1669.43258327831	1677.40002441406
1670.04291023622	1644.80004882813
1670.65315700931	1651.40002441406
1671.263323605	1645.59997558594
1671.8734100307	1643.40002441406
1672.48341629384	1637.40002441406
1673.09334240182	1656.19995117188
1673.70318836206	1640.80004882813
1674.31295418197	1649.80004882813
1674.92263986896	1643.40002441406
1675.53224543046	1650.80004882813
1676.14177087386	1641
1676.75121620658	1654
1677.36058143604	1663.80004882813
1677.96986656964	1661.19995117188
1678.5790716148	1663.19995117188
1679.18819657892	1665.19995117188
1679.79724146943	1671.19995117188
1680.40620629372	1688.40002441406
1681.0150910592	1690.40002441406
1681.6238957733	1694.59997558594
1682.23262044341	1675.59997558594
1682.84126507694	1687.59997558594
1683.4498296813	1674.80004882813
1684.0583142639	1680.40002441406
1684.66671883216	1684
1685.27504339346	1678.40002441406
1685.88328795523	1667.19995117188
1686.49145252487	1670.19995117188
1687.09953710978	1664.59997558594
1687.70754171737	1667.80004882813
1688.31546635505	1662.19995117188
1688.92331103021	1662
1689.53107575028	1678.40002441406
1690.13876052265	1674.19995117188
1690.74636535472	1674.19995117188
1691.3538902539	1661.19995117188
1691.96133522759	1654
1692.5687002832	1631.19995117188
1693.17598542812	1636.19995117188
1693.78319066977	1628
1694.39031601554	1627.19995117188
1694.99736147283	1635.59997558594
1695.60432704905	1632.80004882813
1696.2112127516	1653.19995117188
1696.81801858788	1657
1697.42474456528	1657
1698.03139069121	1663
1698.63795697307	1646.80004882813
1699.24444341826	1650.19995117188
1699.85085003417	1655.19995117188
1700.45717682821	1658.80004882813
1701.06342380778	1657
1701.66959098026	1660
1702.27567835307	1662.59997558594
1702.88168593359	1650.59997558594
1703.48761372922	1646.40002441406
1704.09346174737	1623
1704.69922999542	1629.19995117188
1705.30491848077	1618.59997558594
1705.91052721083	1622.59997558594
1706.51605619297	1629
1707.12150543461	1611.80004882813
1707.72687494312	1609
1708.33216472592	1612.59997558594
1708.93737479039	1615.40002441406
1709.54250514392	1602.80004882813
