634.977642221345	2046.40002441406
635.719821695905	2032.59997558594
636.461909203392	2028.19995117188
637.203904751776	2058.80004882813
637.945808349023	2060.60009765625
638.687620003102	2089.39990234375
639.42933972198	2099.60009765625
640.170967513616	2075.60009765625
640.912503385981	2074
641.653947347041	2066.19995117188
642.395299404758	2066.19995117188
643.13655956709	2035
643.877727842014	2028
644.61880423748	2002.59997558594
645.359788761455	1998.80004882813
646.100681421905	2019.40002441406
646.841482226789	2053
647.582191184074	2058.39990234375
648.322808301711	2052.39990234375
649.06333358767	2037
649.803767049909	2053
650.544108696385	2053.60009765625
651.28435853506	2096.60009765625
652.024516573894	2097.60009765625
652.764582820849	2106.39990234375
653.504557283875	2108.19995117188
654.244439970937	2107.19995117188
654.984230889991	2115.19995117188
655.723930048995	2113
656.463537455909	2136.80004882813
657.203053118683	2135
657.942477045275	2131.80004882813
658.681809243647	2138.60009765625
659.421049721747	2138.19995117188
660.160198487535	2161.19995117188
660.899255548962	2162.39990234375
661.638220913985	2176.39990234375
662.377094590559	2180.39990234375
663.115876586631	2156.60009765625
663.854566910165	2133
664.593165569107	2126
665.331672571406	2121.39990234375
666.07008792502	2120.39990234375
666.808411637902	2111
667.546643717996	2090.80004882813
668.284784173258	2078.39990234375
669.022833011641	2071.39990234375
669.760790241089	2085.39990234375
670.498655869554	2088
671.236429904987	2078.19995117188
671.97411235534	2071.80004882813
672.711703228551	2093.39990234375
673.449202532577	2123
674.186610275364	2143.80004882813
674.923926464857	2150.39990234375
675.661151109008	2154.19995117188
676.398284215759	2157
677.135325793058	2151
677.87227584885	2147
678.609134391082	2166
679.345901427696	2183.19995117188
680.082576966644	2166.19995117188
680.819161015861	2171
681.555653583298	2143.39990234375
682.292054676895	2142.80004882813
683.028364304594	2114.80004882813
683.764582474344	2106.80004882813
684.500709194083	2090.39990234375
685.236744471752	2097.19995117188
685.972688315294	2102.80004882813
686.708540732652	2104.19995117188
687.444301731762	2119
688.179971320572	2144.39990234375
688.915549507013	2099.19995117188
689.651036299034	2082.39990234375
690.386431704569	2058
691.121735731559	2065.80004882813
691.85694838794	2063.19995117188
692.592069681652	2071.60009765625
693.327099620632	2073.39990234375
694.062038212821	2053.80004882813
694.796885466149	2086.60009765625
695.531641388561	2117.39990234375
696.266305987987	2125.19995117188
697.000879272367	2149.39990234375
697.735361249632	2164.80004882813
698.469751927722	2161.80004882813
699.204051314568	2192.80004882813
699.938259418107	2188.19995117188
700.672376246272	2190
701.406401806997	2193.60009765625
702.140336108212	2192.80004882813
702.874179157855	2149.60009765625
703.607930963856	2166.39990234375
704.341591534147	2148.19995117188
705.07516087666	2143.39990234375
705.808638999324	2164.80004882813
706.542025910073	2145.19995117188
707.275321616841	2142.60009765625
708.008526127549	2150.80004882813
708.741639450132	2153.19995117188
709.474661592521	2150.60009765625
710.207592562641	2173.39990234375
710.940432368424	2188.80004882813
711.673181017796	2187.39990234375
712.405838518687	2154.80004882813
713.138404879025	2160.60009765625
713.870880106731	2155.80004882813
714.603264209738	2135.60009765625
715.335557195971	2145.60009765625
716.067759073357	2167
716.799869849816	2170.60009765625
717.531889533281	2165.19995117188
718.263818131673	2156
718.995655652917	2140
719.727402104934	2149
720.45905749565	2151.60009765625
721.19062183299	2156.60009765625
721.922095124877	2138.19995117188
722.653477379231	2145.60009765625
723.384768603973	2173.19995117188
724.11596880703	2146.60009765625
724.847077996319	2142.19995117188
725.578096179762	2159.39990234375
726.309023365281	2156.80004882813
727.039859560792	2188.80004882813
727.770604774222	2187.80004882813
728.501259013484	2197.60009765625
729.231822286501	2195.60009765625
729.962294601191	2207.60009765625
730.692675965469	2184
731.42296638726	2138.39990234375
732.153165874472	2142
732.883274435032	2158.39990234375
733.613292076851	2174.60009765625
734.343218807843	2165.39990234375
735.07305463593	2190.19995117188
735.802799569028	2191.39990234375
736.532453615048	2178.19995117188
737.262016781904	2178.80004882813
737.991489077517	2196.80004882813
738.720870509794	2183.80004882813
739.450161086654	2168.80004882813
740.179360816009	2157.80004882813
740.908469705772	2162.80004882813
741.637487763854	2187.39990234375
742.366414998168	2177.19995117188
743.095251416623	2184.19995117188
743.823997027137	2187.80004882813
744.552651837618	2183.80004882813
745.281215855978	2159
746.009689090124	2162.19995117188
746.738071547964	2160.60009765625
747.466363237419	2122.80004882813
748.194564166384	2133.39990234375
748.92267434278	2130
749.650693774504	2157.60009765625
750.378622469476	2149.80004882813
751.106460435596	2150.39990234375
751.834207680771	2179
752.561864212909	2176.19995117188
753.289430039919	2171
754.016905169707	2178.19995117188
754.744289610175	2167.80004882813
755.471583369231	2181.60009765625
756.198786454782	2173.39990234375
756.925898874728	2154.80004882813
757.652920636979	2147.60009765625
758.379851749433	2174
759.106692219996	2158.60009765625
759.833442056572	2184.39990234375
760.560101267063	2207.60009765625
761.28666985937	2204.19995117188
762.0131478414	2219.60009765625
762.739535221046	2218.60009765625
763.465832006219	2252.19995117188
764.192038204812	2258.60009765625
764.918153824731	2251.19995117188
765.644178873872	2251.60009765625
766.370113360138	2274.80004882813
767.095957291425	2303.80004882813
767.821710675635	2322
768.547373520665	2345.80004882813
769.272945834415	2413.39990234375
769.998427624781	2436
770.723818899658	2472.80004882813
771.449119666949	2498.80004882813
772.174329934546	2498.39990234375
772.899449710347	2509.19995117188
773.624479002248	2534.39990234375
774.349417818145	2495.39990234375
775.074266165934	2485.19995117188
775.799024053505	2501.39990234375
776.523691488757	2455.80004882813
777.248268479582	2416
777.972755033877	2366.19995117188
778.69715115953	2327
779.421456864441	2321.39990234375
780.145672156493	2282
780.869797043587	2292.60009765625
781.593831533611	2277
782.317775634457	2270.19995117188
783.041629354012	2236
783.765392700174	2240.60009765625
784.489065680828	2228
785.212648303866	2213.60009765625
785.936140577177	2216.80004882813
786.659542508652	2232.19995117188
787.382854106174	2211
788.106075377639	2224.80004882813
788.829206330928	2200.80004882813
789.552246973933	2219.80004882813
790.275197314542	2228.80004882813
790.998057360638	2209.60009765625
791.720827120108	2219.60009765625
792.443506600841	2231
793.166095810722	2222.39990234375
793.888594757635	2198.60009765625
794.611003449465	2178.80004882813
795.333321894098	2209.19995117188
796.055550099417	2187
796.777688073308	2222.80004882813
797.499735823654	2187
798.221693358334	2179
798.943560685235	2195.60009765625
799.665337812239	2181.60009765625
800.387024747226	2200.60009765625
801.108621498075	2197.39990234375
801.830128072674	2188.19995117188
802.551544478902	2206.39990234375
803.272870724636	2195.39990234375
803.994106817761	2236.80004882813
804.715252766148	2236.60009765625
805.436308577687	2207.39990234375
806.157274260251	2188.19995117188
806.878149821721	2177.39990234375
807.598935269973	2160.60009765625
808.319630612886	2139
809.040235858336	2145.60009765625
809.760751014202	2156.80004882813
810.481176088361	2190
811.201511088685	2165
811.921756023059	2191.60009765625
812.641910899347	2186
813.361975725432	2178.60009765625
814.081950509188	2159.39990234375
814.801835258489	2189.39990234375
815.521629981206	2166.60009765625
816.241334685218	2179
816.960949378392	2169.19995117188
817.680474068606	2160
818.399908763731	2178.39990234375
819.11925347164	2155.39990234375
819.838508200202	2152.19995117188
820.55767295729	2155.60009765625
821.276747750778	2153
821.995732588531	2167
822.714627478425	2173.39990234375
823.433432428327	2179.39990234375
824.152147446105	2204
824.870772539632	2213.60009765625
825.589307716775	2221.19995117188
826.307752985404	2238.19995117188
827.026108353378	2225
827.744373828579	2214.80004882813
828.462549418867	2205.80004882813
829.180635132107	2207.39990234375
829.898630976168	2196.19995117188
830.616536958915	2201.39990234375
831.334353088218	2198
832.052079371938	2190.80004882813
832.769715817942	2197.19995117188
833.487262434092	2201.60009765625
834.204719228255	2196
834.922086208293	2159.19995117188
835.639363382073	2162.19995117188
836.356550757456	2172.19995117188
837.073648342304	2181.80004882813
837.790656144484	2192.60009765625
838.507574171847	2185.60009765625
839.22440243227	2172.19995117188
839.941140933601	2169.80004882813
840.657789683706	2164.60009765625
841.374348690448	2174
842.090817961686	2206.60009765625
842.807197505276	2196.80004882813
843.523487329083	2200.39990234375
844.23968744096	2186
844.955797848771	2199.39990234375
845.671818560374	2180.19995117188
846.387749583622	2176.39990234375
847.103590926378	2177.39990234375
847.819342596497	2157.19995117188
848.535004601833	2136.39990234375
849.25057695025	2136
849.966059649598	2112.19995117188
850.681452707735	2112.39990234375
851.396756132513	2117.60009765625
852.111969931789	2130.80004882813
852.827094113419	2147
853.542128685257	2154.80004882813
854.257073655158	2170.19995117188
854.971929030969	2187.39990234375
855.686694820551	2176
856.40137103175	2164.60009765625
857.115957672423	2137
857.830454750423	2165.19995117188
858.544862273597	2153.39990234375
859.259180249797	2158
859.97340868688	2173.60009765625
860.687547592688	2190
861.401596975075	2199
862.115556841891	2187.39990234375
862.829427200985	2182.19995117188
863.543208060205	2168
864.256899427402	2150.60009765625
864.970501310423	2157.39990234375
865.684013717114	2146.39990234375
866.397436655325	2152.80004882813
867.110770132901	2173
867.824014157691	2162
868.537168737542	2146
869.250233880299	2140.19995117188
869.963209593803	2143.60009765625
870.676095885902	2160
871.388892764445	2147.19995117188
872.101600237276	2124.60009765625
872.814218312233	2147.60009765625
873.526746997165	2144.60009765625
874.239186299914	2139.39990234375
874.951536228323	2159.39990234375
875.663796790231	2159.80004882813
876.375967993487	2136.60009765625
877.088049845928	2144.80004882813
877.8000423554	2165
878.511945529739	2147.80004882813
879.22375937679	2149
879.935483904388	2149.39990234375
880.64711912038	2131.60009765625
881.358665032604	2137.39990234375
882.070121648892	2134.80004882813
882.78148897709	2109.39990234375
883.492767025039	2104.60009765625
884.203955800571	2107.80004882813
884.915055311525	2097
885.626065565741	2102
886.336986571053	2123.39990234375
887.047818335298	2126.80004882813
887.758560866315	2117.80004882813
888.469214171937	2135.39990234375
889.179778260005	2118.60009765625
889.890253138347	2098.80004882813
890.600638814803	2100.39990234375
891.310935297204	2101.60009765625
892.021142593385	2101.60009765625
892.731260711183	2109.19995117188
893.441289658429	2120.19995117188
894.15122944295	2109.60009765625
894.861080072591	2111.39990234375
895.570841555173	2129.80004882813
896.280513898534	2119.19995117188
896.990097110503	2147
897.699591198913	2146.19995117188
898.408996171595	2163.80004882813
899.118312036375	2133.80004882813
899.827538801089	2183.60009765625
900.536676473561	2169.60009765625
901.245725061628	2173.80004882813
901.954684573109	2172.60009765625
902.663555015838	2177.60009765625
903.372336397644	2188.39990234375
904.081028726351	2188.60009765625
904.789632009793	2195.80004882813
905.49814625579	2196
906.20657147217	2181.39990234375
906.914907666765	2178.19995117188
907.623154847391	2171.80004882813
908.331313021885	2165.19995117188
909.039382198064	2175.60009765625
909.747362383754	2186
910.455253586782	2184.60009765625
911.163055814972	2173.80004882813
911.870769076143	2164.39990234375
912.578393378126	2185.60009765625
913.285928728738	2175.19995117188
913.993375135802	2168
914.700732607145	2168.19995117188
915.408001150579	2156.80004882813
916.115180773937	2186.39990234375
916.822271485037	2195.80004882813
917.529273291693	2187
918.236186201733	2209.60009765625
918.943010222971	2198
919.649745363234	2198.80004882813
920.356391630333	2187.19995117188
921.062949032096	2174.19995117188
921.769417576333	2172.19995117188
922.475797270864	2176
923.182088123512	2168.60009765625
923.888290142089	2171.60009765625
924.594403334414	2174
925.300427708304	2205
926.006363271572	2208
926.712210032039	2176
927.417967997522	2191.39990234375
928.123637175827	2193.80004882813
928.829217574776	2183
929.534709202184	2189
930.240112065859	2189
930.945426173621	2189.39990234375
931.650651533283	2166
932.355788152653	2153.19995117188
933.060836039547	2146
933.765795201776	2133
934.470665647153	2119.39990234375
935.175447383492	2104.39990234375
935.880140418599	2121.60009765625
936.584744760286	2131.39990234375
937.289260416366	2132.80004882813
937.993687394647	2160.80004882813
938.698025702939	2162.19995117188
939.402275349051	2202.60009765625
940.106436340793	2200.39990234375
940.810508685976	2201.80004882813
941.5144923924	2192.60009765625
942.21838746788	2184
942.922193920223	2168.39990234375
943.625911757231	2154.80004882813
944.329540986716	2136.39990234375
945.033081616484	2116.60009765625
945.736533654334	2085
946.439897108083	2092.60009765625
947.143171985529	2090.80004882813
947.846358294477	2068.19995117188
948.549456042732	2097.39990234375
949.2524652381	2105.19995117188
949.955385888382	2119.39990234375
950.658218001384	2123.80004882813
951.360961584907	2143
952.063616646755	2133.19995117188
952.766183194733	2149.19995117188
953.468661236636	2156.39990234375
954.171050780271	2139.60009765625
954.873351833437	2145.39990234375
955.575564403935	2142.39990234375
956.277688499565	2157
956.97972412813	2144
957.681671297424	2146.60009765625
958.383530015255	2120
959.085300289414	2104.19995117188
959.786982127703	2120.80004882813
960.488575537918	2113
961.190080527859	2092
961.891497105327	2119
962.592825278111	2106.19995117188
963.294065054012	2098.60009765625
963.995216440829	2125.80004882813
964.696279446353	2114.19995117188
965.397254078383	2108.80004882813
966.098140344714	2100.39990234375
966.798938253139	2092
967.499647811456	2095
968.200269027458	2083.19995117188
968.900801908937	2076.19995117188
969.601246463685	2079.80004882813
970.3016026995	2051.60009765625
971.001870624169	2075.19995117188
971.702050245491	2064.80004882813
972.402141571249	2085
973.102144609245	2080.80004882813
973.802059367267	2079.60009765625
974.501885853103	2068.39990234375
975.201624074541	2101.80004882813
975.901274039379	2110.80004882813
976.600835755399	2096.60009765625
977.3003092304	2101.19995117188
977.999694472158	2097
978.698991488473	2108.39990234375
979.39820028713	2113.39990234375
980.097320875915	2096.39990234375
980.796353262618	2124
981.495297455024	2138
982.194153460919	2127.19995117188
982.892921288093	2129.80004882813
983.591600944331	2129.19995117188
984.290192437419	2132.39990234375
984.98869577514	2112.60009765625
985.687110965282	2107.60009765625
986.385438015629	2097.60009765625
987.083676933961	2090.80004882813
987.781827728069	2079
988.479890405732	2075.39990234375
989.177864974732	2082.60009765625
989.875751442857	2081.19995117188
990.573549817888	2085.80004882813
991.271260107602	2100.80004882813
991.968882319786	2127.39990234375
992.666416462217	2118.19995117188
993.363862542681	2116
994.061220568959	2095.80004882813
994.758490548823	2076.60009765625
995.455672490061	2095
996.152766400451	2086.19995117188
996.849772287773	2106
997.5466901598	2080.60009765625
998.243520024317	2077.60009765625
998.940261889097	2091.80004882813
999.636915761923	2095.60009765625
1000.33348165057	2069
1001.02995956281	2078.39990234375
1001.72634950643	2069.60009765625
1002.42265148919	2054
1003.11886551889	2046.80004882813
1003.81499160328	2064.19995117188
1004.51102975015	2099.19995117188
1005.20697996727	2112.39990234375
1005.90284226242	2129.60009765625
1006.59861664337	2125.39990234375
1007.2943031179	2141.80004882813
1007.98990169377	2133
1008.68541237876	2131
1009.38083518064	2160
1010.07617010719	2161.39990234375
1010.77141716617	2161.39990234375
1011.46657636536	2147.39990234375
1012.16164771253	2147.19995117188
1012.85663121546	2134.19995117188
1013.5515268819	2125.39990234375
1014.24633471963	2102.19995117188
1014.94105473642	2084.80004882813
1015.63568694004	2097.39990234375
1016.33023133826	2085.19995117188
1017.02468793885	2101.80004882813
1017.71905674957	2096.60009765625
1018.41333777819	2087
1019.10753103249	2072.60009765625
1019.80163652022	2095.80004882813
1020.49565424916	2092.80004882813
1021.18958422707	2098.19995117188
1021.88342646171	2098.80004882813
1022.57718096085	2082.19995117188
1023.27084773227	2101.39990234375
1023.96442678371	2091.39990234375
1024.65791812296	2107.80004882813
1025.35132175776	2081.19995117188
1026.04463769589	2047.19995117188
1026.73786594511	2051
1027.43100651318	2061.60009765625
1028.12405940786	2056.80004882813
1028.81702463692	2067.19995117188
1029.50990220812	2063.60009765625
1030.20269212921	2068
1030.89539440798	2071
1031.58800905216	2042.19995117188
1032.28053606952	2038.19995117188
1032.97297546784	2006.19995117188
1033.66532725485	2029.80004882813
1034.35759143832	2069.39990234375
1035.04976802602	2089.60009765625
1035.7418570257	2058.19995117188
1036.43385844511	2066.80004882813
1037.12577229202	2059
1037.81759857419	2058
1038.50933729937	2060.80004882813
1039.20098847531	2044.59997558594
1039.89255210978	2041
1040.58402821053	2064.39990234375
1041.27541678532	2053
1041.96671784191	2036.19995117188
1042.65793138804	2032.59997558594
1043.34905743147	2024.80004882813
1044.04009597996	2032.40002441406
1044.73104704125	2072
1045.42191062312	2072.80004882813
1046.1126867333	2045.80004882813
1046.80337537955	2068.80004882813
1047.49397656962	2079.39990234375
1048.18449031127	2084
1048.87491661225	2072.19995117188
1049.5652554803	2056.19995117188
1050.25550692319	2031.40002441406
1050.94567094865	2042.80004882813
1051.63574756444	2035.19995117188
1052.32573677832	2043.59997558594
1053.01563859803	2049.80004882813
1053.70545303131	2043.19995117188
1054.39518008592	2048.39990234375
1055.08481976961	2053.60009765625
1055.77437209013	2037.40002441406
1056.46383705522	2030.19995117188
1057.15321467262	2034.40002441406
1057.8425049501	2033.80004882813
1058.53170789539	2034.40002441406
1059.22082351624	2027.80004882813
1059.9098518204	2028.80004882813
1060.59879281561	2028.80004882813
1061.28764650962	2032
1061.97641291016	2034.40002441406
1062.665092025	2026.80004882813
1063.35368386187	2017.19995117188
1064.04218842851	2007.59997558594
1064.73060573268	2013.59997558594
1065.4189357821	1990.80004882813
1066.10717858452	1966.19995117188
1066.7953341477	1981.59997558594
1067.48340247936	1961.80004882813
1068.17138358725	1959.40002441406
1068.85927747912	1961.59997558594
1069.5470841627	1972.80004882813
1070.23480364573	1997.80004882813
1070.92243593595	1999.80004882813
1071.60998104111	2010
1072.29743896894	2030.80004882813
1072.98480972718	2035.59997558594
1073.67209332357	2021.59997558594
1074.35928976585	2013.80004882813
1075.04639906176	2031.40002441406
1075.73342121903	2031.19995117188
1076.42035624541	2038.40002441406
1077.10720414862	2034.59997558594
1077.79396493641	2032.59997558594
1078.48063861651	2038
1079.16722519666	2021.19995117188
1079.85372468459	2014.59997558594
1080.54013708804	2015.80004882813
1081.22646241474	1997.40002441406
1081.91270067243	2007.19995117188
1082.59885186884	2012.80004882813
1083.28491601171	2018
1083.97089310877	2051.80004882813
1084.65678316774	2066.80004882813
1085.34258619637	2072.80004882813
1086.02830220239	2078.19995117188
1086.71393119352	2071
1087.39947317751	2071.19995117188
1088.08492816207	2064.39990234375
1088.77029615495	2060
1089.45557716387	2053.60009765625
1090.14077119656	2051.19995117188
1090.82587826075	2038.19995117188
1091.51089836417	2046
1092.19583151456	2038.40002441406
1092.88067771963	2056.80004882813
1093.56543698712	2024
1094.25010932475	2046.40002441406
1094.93469474026	2022.80004882813
1095.61919324137	2037
1096.3036048358	2064.39990234375
1096.98792953129	2041.40002441406
1097.67216733555	2030
1098.35631825632	2040.40002441406
1099.04038230132	2022.19995117188
1099.72435947828	2017.19995117188
1100.40824979492	2029.59997558594
1101.09205325895	1996.59997558594
1101.77576987812	1960
1102.45939966014	1961.80004882813
1103.14294261273	1963.19995117188
1103.82639874362	1955.19995117188
1104.50976806054	1952
1105.19305057119	1960
1105.87624628331	1988
1106.55935520461	2003.59997558594
1107.24237734283	2022.59997558594
1107.92531270566	2053.60009765625
1108.60816130085	2013.80004882813
1109.2909231361	2032
1109.97359821914	2056.39990234375
1110.65618655768	2041.59997558594
1111.33868815946	2065
1112.02110303217	2053.39990234375
1112.70343118355	2079
1113.3856726213	2093.80004882813
1114.06782735316	2082
1114.74989538683	2075.80004882813
1115.43187673002	2031.40002441406
1116.11377139047	2015.19995117188
1116.79557937588	2012.59997558594
1117.47730069397	2022.59997558594
1118.15893535245	2046
1118.84048335904	2050.19995117188
1119.52194472146	2055
1120.20331944741	2060.80004882813
1120.88460754462	2078.60009765625
1121.56580902079	2047.40002441406
1122.24692388364	2059.19995117188
1122.92795214088	2055.80004882813
1123.60889380022	2066.60009765625
1124.28974886938	2094.80004882813
1124.97051735606	2089.80004882813
1125.65119926799	2103.60009765625
1126.33179461286	2117.39990234375
1127.0123033984	2118.39990234375
1127.6927256323	2120.19995117188
1128.37306132229	2114.60009765625
1129.05331047606	2098.39990234375
1129.73347310134	2108.80004882813
1130.41354920582	2091.80004882813
1131.09353879722	2082.80004882813
1131.77344188324	2074
1132.45325847159	2086.80004882813
1133.13298856999	2096.60009765625
1133.81263218612	2075
1134.49218932772	2061.39990234375
1135.17166000247	2049.39990234375
1135.85104421809	2027
1136.53034198227	2000
1137.20955330274	2020.40002441406
1137.88867818718	2008.40002441406
1138.56771664331	1999
1139.24666867883	2006.80004882813
1139.92553430144	2026.80004882813
1140.60431351885	2027
1141.28300633876	2031
1141.96161276887	2029.80004882813
1142.64013281689	2058.80004882813
1143.31856649051	2056.19995117188
1143.99691379744	2040.19995117188
1144.67517474538	2046.59997558594
1145.35334934203	2027.59997558594
1146.03143759509	2032.80004882813
1146.70943951226	2014
1147.38735510125	1984.59997558594
1148.06518436974	1968.40002441406
1148.74292732545	1970
1149.42058397606	1978.19995117188
1150.09815432928	2006.80004882813
1150.7756383928	1996.40002441406
1151.45303617432	2006.19995117188
1152.13034768155	2010.19995117188
1152.80757292217	2025.59997558594
1153.48471190389	2020.80004882813
1154.16176463439	2037.19995117188
1154.83873112138	2033
1155.51561137255	2019.19995117188
1156.1924053956	2014.40002441406
1156.86911319822	2007.40002441406
1157.5457347881	2004.40002441406
1158.22227017294	2020.19995117188
1158.89871936044	1995.40002441406
1159.57508235828	2001.40002441406
1160.25135917416	2006.40002441406
1160.92754981578	2011.80004882813
1161.60365429081	2021.59997558594
1162.27967260697	2007.19995117188
1162.95560477193	2002.80004882813
1163.63145079339	1987
1164.30721067904	1984
1164.98288443657	1989.19995117188
1165.65847207367	2014
1166.33397359803	2018
1167.00938901735	2027.80004882813
1167.6847183393	2045.40002441406
1168.35996157157	2040
1169.03511872187	2048.39990234375
1169.71018979787	2036.19995117188
1170.38517480726	2025.19995117188
1171.06007375773	2033.19995117188
1171.73488665696	2031.40002441406
1172.40961351265	2014.80004882813
1173.08425433247	2022.80004882813
1173.75880912412	2040.40002441406
1174.43327789528	2043.40002441406
1175.10766065364	2033.19995117188
1175.78195740687	2035.59997558594
1176.45616816267	2060.19995117188
1177.13029292871	2062.19995117188
1177.80433171269	2082.60009765625
1178.47828452229	2068.39990234375
1179.15215136518	2085.39990234375
1179.82593224905	2071
1180.49962718159	2112.60009765625
1181.17323617047	2104.19995117188
1181.84675922337	2116.39990234375
1182.52019634799	2139.39990234375
1183.193547552	2138.19995117188
1183.86681284307	2159
1184.53999222889	2140
1185.21308571714	2138.19995117188
1185.8860933155	2130
1186.55901503165	2114.80004882813
1187.23185087326	2099.60009765625
1187.90460084802	2097
1188.5772649636	2107.39990234375
1189.24984322768	2096.80004882813
1189.92233564794	2096.39990234375
1190.59474223206	2132.39990234375
1191.2670629877	2142.39990234375
1191.93929792255	2148.39990234375
1192.61144704428	2119.39990234375
1193.28351036058	2094.39990234375
1193.9554878791	2082
1194.62737960754	2062.60009765625
1195.29918555356	2067.80004882813
1195.97090572483	2070.19995117188
1196.64254012903	2088
1197.31408877384	2101.39990234375
1197.98555166693	2116.39990234375
1198.65692881596	2126.19995117188
1199.32822022862	2107.80004882813
1199.99942591256	2101.19995117188
1200.67054587548	2082.19995117188
1201.34158012503	2089.39990234375
1202.01252866889	2079
1202.68339151473	2071.19995117188
1203.35416867021	2051.60009765625
1204.02486014301	2036.19995117188
1204.6954659408	2025
1205.36598607124	2012.59997558594
1206.03642054201	2018
1206.70676936078	2026
1207.3770325352	2026
1208.04721007295	2028.40002441406
1208.7173019817	2025.40002441406
1209.38730826911	2013.40002441406
1210.05722894285	1999
1210.72706401059	1992.40002441406
1211.39681347999	1995
1212.06647735872	1990.40002441406
1212.73605565444	1991.19995117188
1213.40554837481	1984.40002441406
1214.07495552751	1993.19995117188
1214.74427712019	1996
1215.41351316052	2019.40002441406
1216.08266365617	2018.19995117188
1216.75172861479	2016
1217.42070804405	2011.19995117188
1218.0896019516	2025.40002441406
1218.75841034513	2011
1219.42713323227	2027.59997558594
1220.0957706207	2035.80004882813
1220.76432251808	2044.19995117188
1221.43278893207	2017.40002441406
1222.10116987032	2033.40002441406
1222.7694653405	2046
1223.43767535026	2024.19995117188
1224.10579990727	2013.59997558594
1224.77383901918	2016.80004882813
1225.44179269366	2008.19995117188
1226.10966093835	2028.59997558594
1226.77744376093	2023.19995117188
1227.44514116904	2022.19995117188
1228.11275317034	2031
1228.78027977249	2048.60009765625
1229.44772098315	2011.80004882813
1230.11507680996	2008.59997558594
1230.7823472606	1998.80004882813
1231.44953234271	1978.59997558594
1232.11663206394	1974
1232.78364643195	1993
1233.4505754544	1969.59997558594
1234.11741913894	1964.80004882813
1234.78417749322	1976.80004882813
1235.45085052489	1982.80004882813
1236.11743824162	1975
1236.78394065104	1980.40002441406
1237.45035776082	1961.40002441406
1238.1166895786	1992.80004882813
1238.78293611204	1992.80004882813
1239.44909736878	2004.59997558594
1240.11517335648	1978.40002441406
1240.78116408279	2007.80004882813
1241.44706955535	2007.19995117188
1242.11288978182	1997.59997558594
1242.77862476985	1971.80004882813
1243.44427452708	1952.19995117188
1244.10983906116	1935.80004882813
1244.77531837974	1954.19995117188
1245.44071249047	1939.59997558594
1246.106021401	1941
1246.77124511898	1942.40002441406
1247.43638365204	1952.19995117188
1248.10143700783	1988.80004882813
1248.76640519401	1975.80004882813
1249.43128821822	1964.59997558594
1250.0960860881	1969.19995117188
1250.76079881129	1962.19995117188
1251.42542639545	1961
1252.08996884822	1949.59997558594
1252.75442617723	1942.40002441406
1253.41879839014	1958.40002441406
1254.08308549458	1951.19995117188
1254.74728749821	1951.80004882813
1255.41140440866	1967
1256.07543623357	1965.19995117188
1256.73938298059	1961.59997558594
1257.40324465735	1937.40002441406
1258.0670212715	1939.19995117188
1258.73071283068	1931.19995117188
1259.39431934253	1917.59997558594
1260.05784081468	1929.80004882813
1260.72127725479	1914
1261.38462867049	1918.80004882813
1262.0478950694	1920
1262.71107645919	1923.80004882813
1263.37417284748	1944.59997558594
1264.03718424191	1957.19995117188
1264.70011065011	1944.40002441406
1265.36295207974	1950.40002441406
1266.02570853841	1969
1266.68838003378	1951
1267.35096657346	1948.80004882813
1268.01346816511	1950.19995117188
1268.67588481636	1946.80004882813
1269.33821653483	1933.19995117188
1270.00046332817	1933
1270.66262520401	1958.40002441406
1271.32470216998	1970.59997558594
1271.98669423372	1964.80004882813
1272.64860140285	1957.80004882813
1273.31042368503	1958
1273.97216108786	1951.80004882813
1274.633813619	1975.80004882813
1275.29538128606	2000.40002441406
1275.95686409669	1981.59997558594
1276.6182620585	1985.40002441406
1277.27957517914	1964
1277.94080346624	1982.40002441406
1278.60194692741	1972.19995117188
1279.2630055703	1990
1279.92397940253	1989.80004882813
1280.58486843173	1964.19995117188
1281.24567266552	1953.40002441406
1281.90639211155	1937.19995117188
1282.56702677743	1941.40002441406
1283.2275766708	1941.80004882813
1283.88804179927	1937.19995117188
1284.54842217049	1949.40002441406
1285.20871779206	1948
1285.86892867163	1938
1286.52905481681	1976.59997558594
1287.18909623523	1978.19995117188
1287.84905293452	1989.59997558594
1288.5089249223	1982.80004882813
1289.16871220619	1981.40002441406
1289.82841479383	1991.19995117188
1290.48803269282	2002.40002441406
1291.1475659108	1962.80004882813
1291.80701445539	1969.59997558594
1292.46637833421	1952
1293.12565755489	1937.59997558594
1293.78485212504	1920
1294.44396205229	1918.80004882813
1295.10298734425	1933.40002441406
1295.76192800856	1920.80004882813
1296.42078405283	1930
1297.07955548467	1931.59997558594
1297.73824231171	1969.59997558594
1298.39684454158	1956.59997558594
1299.05536218188	1965
1299.71379524023	1969.80004882813
1300.37214372427	1970
1301.03040764159	1957.19995117188
1301.68858699983	1969
1302.34668180659	1965
1303.0046920695	1986
1303.66261779617	1998.19995117188
1304.32045899422	2031
1304.97821567126	2026.59997558594
1305.63588783492	2024.80004882813
1306.29347549279	2019.59997558594
1306.95097865251	2006.40002441406
1307.60839732168	2007
1308.26573150791	2021.80004882813
1308.92298121883	2012
1309.58014646204	2001.59997558594
1310.23722724517	2008
1310.89422357581	2027.80004882813
1311.55113546158	2032.19995117188
1312.2079629101	2037.19995117188
1312.86470592898	2066
1313.52136452582	2071.39990234375
1314.17793870824	2057.80004882813
1314.83442848386	2063.19995117188
1315.49083386027	2074.60009765625
1316.14715484509	2058.19995117188
1316.80339144594	2076.39990234375
1317.45954367041	2034
1318.11561152611	2028.59997558594
1318.77159502067	2007.19995117188
1319.42749416168	2027.59997558594
1320.08330895674	2023.40002441406
1320.73903941348	2017.40002441406
1321.3946855395	1998.80004882813
1322.0502473424	1998
1322.70572482978	1985.19995117188
1323.36111800926	1993.19995117188
1324.01642688845	1980.40002441406
1324.67165147494	1983.19995117188
1325.32679177634	1984.80004882813
1325.98184780025	1999
1326.63681955429	1989
1327.29170704605	1963.59997558594
1327.94651028314	1970.40002441406
1328.60122927316	1969
1329.25586402371	1959.59997558594
1329.9104145424	1952.59997558594
1330.56488083683	1960.59997558594
1331.2192629146	1933.80004882813
1331.87356078331	1947.19995117188
1332.52777445056	1967.40002441406
1333.18190392395	1966.40002441406
1333.83594921109	1966
1334.48991031958	1938.40002441406
1335.143787257	1940.59997558594
1335.79758003097	1942
1336.45128864908	1943.40002441406
1337.10491311893	1951
1337.75845344813	1942.80004882813
1338.41190964425	1936.19995117188
1339.06528171491	1946.19995117188
1339.71856966771	1921.59997558594
1340.37177351023	1911
1341.02489325007	1904.80004882813
1341.67792889484	1880.80004882813
1342.33088045212	1883.80004882813
1342.98374792952	1891.80004882813
1343.63653133462	1909
1344.28923067503	1919.59997558594
1344.94184595833	1935.80004882813
1345.59437719212	1939
1346.246824384	1969.19995117188
1346.89918754155	1978.19995117188
1347.55146667238	1956.59997558594
1348.20366178407	1970.59997558594
1348.85577288421	1974.80004882813
1349.50779998041	1961.59997558594
1350.15974308024	1978.19995117188
1350.8116021913	2001.19995117188
1351.46337732119	2000.59997558594
1352.11506847748	1991.80004882813
1352.76667566778	1993
1353.41819889967	2005.59997558594
1354.06963818074	2012.59997558594
1354.72099351858	2029.59997558594
1355.37226492079	2065.19995117188
1356.02345239494	2061
1356.67455594862	2081.80004882813
1357.32557558943	2102.19995117188
1357.97651132496	2137.60009765625
1358.62736316277	2141.80004882813
1359.27813111048	2169.39990234375
1359.92881517565	2192.60009765625
1360.57941536589	2205.19995117188
1361.22993168876	2227.39990234375
1361.88036415186	2241.39990234375
1362.53071276278	2243.39990234375
1363.1809775291	2271.39990234375
1363.8311584584	2266.60009765625
1364.48125555826	2273.80004882813
1365.13126883627	2237.39990234375
1365.78119830001	2199.60009765625
1366.43104395707	2187.19995117188
1367.08080581503	2143.39990234375
1367.73048388147	2122
1368.38007816397	2111
1369.02958867011	2100.39990234375
1369.67901540748	2077.19995117188
1370.32835838365	2065.19995117188
1370.9776176062	2049.39990234375
1371.62679308273	2026.19995117188
1372.27588482079	2029.59997558594
1372.92489282798	2006.40002441406
1373.57381711188	2018.40002441406
1374.22265768006	2001.80004882813
1374.87141454009	1978.40002441406
1375.52008769957	1976.40002441406
1376.16867716606	1961.40002441406
1376.81718294715	1946.80004882813
1377.4656050504	1967
1378.1139434834	1952
1378.76219825373	1954.40002441406
1379.41036936895	1934
1380.05845683664	1933.19995117188
1380.70646066439	1936.80004882813
1381.35438085976	1944
1382.00221743032	1935.59997558594
1382.64997038366	1924
1383.29763972735	1939.59997558594
1383.94522546895	1934
1384.59272761605	1933
1385.24014617621	1939.80004882813
1385.88748115701	1955
1386.53473256602	1939
1387.18190041081	1933.80004882813
1387.82898469895	1926.80004882813
1388.47598543802	1932.59997558594
1389.12290263558	1937.80004882813
1389.7697362992	1910.40002441406
1390.41648643646	1874.59997558594
1391.06315305492	1870.19995117188
1391.70973616215	1876.59997558594
1392.35623576573	1876.40002441406
1393.00265187321	1865.59997558594
1393.64898449217	1853
1394.29523363018	1862
1394.94139929481	1861.40002441406
1395.58748149361	1840.80004882813
1396.23348023415	1848
1396.87939552402	1846.80004882813
1397.52522737076	1838.40002441406
1398.17097578195	1817
1398.81664076514	1809.80004882813
1399.46222232792	1809.19995117188
1400.10772047783	1801.19995117188
1400.75313522245	1815
1401.39846656934	1829.80004882813
1402.04371452605	1834.40002441406
1402.68887910016	1844
1403.33396029924	1843.40002441406
1403.97895813083	1821.40002441406
1404.6238726025	1835
1405.26870372182	1812.59997558594
1405.91345149634	1848.59997558594
1406.55811593363	1856.40002441406
1407.20269704125	1836
1407.84719482676	1836.19995117188
1408.49160929772	1833.80004882813
1409.13594046168	1830.80004882813
1409.78018832622	1835.19995117188
1410.42435289887	1842
1411.06843418722	1833.80004882813
1411.7124321988	1841.80004882813
1412.3563469412	1847.80004882813
1413.00017842194	1864.19995117188
1413.64392664861	1870.19995117188
1414.28759162875	1866.19995117188
1414.93117336992	1870.19995117188
1415.57467187967	1867.40002441406
1416.21808716557	1873.59997558594
1416.86141923516	1864.80004882813
1417.50466809601	1853
1418.14783375567	1864
1418.79091622169	1873
1419.43391550162	1877.40002441406
1420.07683160303	1867
1420.71966453346	1881.59997558594
1421.36241430046	1887.19995117188
1422.0050809116	1879.19995117188
1422.64766437442	1878.80004882813
1423.29016469647	1885.59997558594
1423.93258188531	1900.80004882813
1424.57491594848	1889.59997558594
1425.21716689354	1872.59997558594
1425.85933472805	1869
1426.50141945954	1843
1427.14342109557	1858
1427.78533964369	1862
1428.42717511144	1858
1429.06892750639	1860
1429.71059683607	1843.80004882813
1430.35218310803	1836.59997558594
1430.99368632983	1835.59997558594
1431.635106509	1856.59997558594
1432.2764436531	1863
1432.91769776967	1859.40002441406
1433.55886886627	1863.40002441406
1434.19995695043	1866.19995117188
1434.84096202969	1870
1435.48188411162	1867.59997558594
1436.12272320375	1857
1436.76347931363	1845.19995117188
1437.40415244879	1833.40002441406
1438.0447426168	1848.80004882813
1438.68524982518	1835.19995117188
1439.32567408148	1833.80004882813
1439.96601539325	1821.40002441406
1440.60627376803	1808.19995117188
1441.24644921336	1802.59997558594
1441.88654173678	1804.40002441406
1442.52655134583	1794.19995117188
1443.16647804806	1801.59997558594
1443.806321851	1814
1444.4460827622	1821.80004882813
1445.0857607892	1807.19995117188
1445.72535593953	1798
1446.36486822074	1773
1447.00429764037	1776
1447.64364420595	1775.80004882813
1448.28290792502	1784.19995117188
1448.92208880512	1787.59997558594
1449.56118685379	1790
1450.20020207857	1791.59997558594
1450.83913448699	1813
1451.47798408659	1816.40002441406
1452.1167508849	1815.40002441406
1452.75543488947	1820.80004882813
1453.39403610782	1814.59997558594
1454.0325545475	1800.19995117188
1454.67099021603	1823.19995117188
1455.30934312097	1830
1455.94761326982	1837.19995117188
1456.58580067014	1813
1457.22390532945	1818.59997558594
1457.86192725529	1811
1458.49986645519	1810.80004882813
1459.13772293668	1796
1459.7754967073	1794.40002441406
1460.41318777457	1794
1461.05079614604	1775.19995117188
1461.68832182922	1773.40002441406
1462.32576483166	1777.40002441406
1462.96312516087	1778
1463.6004028244	1782.19995117188
1464.23759782977	1804.80004882813
1464.8747101845	1786
1465.51173989614	1826.19995117188
1466.14868697221	1815.19995117188
1466.78555142024	1817
1467.42233324774	1811.80004882813
1468.05903246227	1810.80004882813
1468.69564907133	1818.19995117188
1469.33218308246	1825
1469.96863450317	1809.19995117188
1470.60500334102	1833
1471.2412896035	1839.80004882813
1471.87749329816	1835.19995117188
1472.51361443251	1838.40002441406
1473.14965301409	1828.40002441406
1473.78560905041	1812.59997558594
1474.421482549	1802
1475.05727351739	1800.80004882813
1475.69298196309	1810.40002441406
1476.32860789364	1833.80004882813
1476.96415131654	1823.19995117188
1477.59961223934	1816.59997558594
1478.23499066954	1819
1478.87028661467	1811.40002441406
1479.50550008226	1816
1480.14063107981	1813.59997558594
1480.77567961486	1810.80004882813
1481.41064569492	1807
1482.04552932752	1791.40002441406
1482.68033052017	1810
1483.31504928039	1804
1483.9496856157	1796
1484.58423953363	1808.40002441406
1485.21871104168	1812.80004882813
1485.85310014738	1808.19995117188
1486.48740685824	1798.80004882813
1487.12163118178	1814
1487.75577312553	1810.80004882813
1488.38983269698	1814.59997558594
1489.02380990367	1810.40002441406
1489.65770475311	1818
1490.29151725281	1827.19995117188
1490.92524741029	1857.59997558594
1491.55889523306	1853.80004882813
1492.19246072863	1851.19995117188
1492.82594390453	1853.80004882813
1493.45934476826	1864
1494.09266332734	1870.40002441406
1494.72589958928	1878.59997558594
1495.3590535616	1878.80004882813
1495.99212525181	1886.19995117188
1496.62511466741	1907.19995117188
1497.25802181592	1868.59997558594
1497.89084670485	1901.59997558594
1498.52358934172	1895.40002441406
1499.15624973403	1923
1499.7888278893	1935.59997558594
1500.42132381503	1936.40002441406
1501.05373751873	1952.80004882813
1501.68606900792	1974.80004882813
1502.31831829009	2007
1502.95048537277	2027.59997558594
1503.58257026346	2044.19995117188
1504.21457296966	2055.60009765625
1504.84649349889	2073.80004882813
1505.47833185864	2090.19995117188
1506.11008805644	2088.80004882813
1506.74176209978	2082.39990234375
1507.37335399617	2069.80004882813
1508.00486375312	2068
1508.63629137813	2058.80004882813
1509.2676368787	2070.39990234375
1509.89890026235	2065.60009765625
1510.53008153658	2079
1511.16118070889	2073.60009765625
1511.79219778677	2063.80004882813
1512.42313277775	2057.60009765625
1513.05398568932	2031.59997558594
1513.68475652898	2024.40002441406
1514.31544530424	2016.19995117188
1514.9460520226	1993.19995117188
1515.57657669155	1968.40002441406
1516.20701931861	1945.40002441406
1516.83737991127	1936
1517.46765847702	1903.19995117188
1518.09785502339	1925.80004882813
1518.72796955785	1922.80004882813
1519.35800208792	1897.19995117188
1519.98795262109	1889.80004882813
1520.61782116486	1903.80004882813
1521.24760772673	1881.19995117188
1521.87731231419	1886
1522.50693493475	1878.59997558594
1523.1364755959	1852
1523.76593430514	1862
1524.39531106997	1843
1525.02460589788	1851.59997558594
1525.65381879637	1847.40002441406
1526.28294977293	1843.80004882813
1526.91199883507	1851.40002441406
1527.54096599027	1828.59997558594
1528.16985124603	1824
1528.79865460984	1817.40002441406
1529.4273760892	1808.40002441406
1530.05601569161	1828.59997558594
1530.68457342455	1830
1531.31304929552	1822.40002441406
1531.94144331201	1833.59997558594
1532.56975548151	1825.59997558594
1533.19798581152	1825
1533.82613430953	1852.19995117188
1534.45420098302	1852
1535.08218583949	1862.40002441406
1535.71008888643	1849
1536.33791013134	1835.59997558594
1536.96564958169	1829.80004882813
1537.59330724498	1816.80004882813
1538.22088312871	1831.19995117188
1538.84837724034	1803.40002441406
1539.47578958739	1805.59997558594
1540.10312017733	1810.19995117188
1540.73036901765	1810.80004882813
1541.35753611584	1805.19995117188
1541.98462147939	1786.59997558594
1542.61162511578	1788.40002441406
1543.2385470325	1781.80004882813
1543.86538723704	1783
1544.49214573688	1794
1545.11882253951	1807.19995117188
1545.74541765241	1810
1546.37193108306	1818
1546.99836283896	1821.80004882813
1547.62471292758	1822.19995117188
1548.25098135641	1806.40002441406
1548.87716813294	1800
1549.50327326464	1778.59997558594
1550.12929675899	1809.59997558594
1550.75523862349	1793.40002441406
1551.38109886561	1771.19995117188
1552.00687749284	1790.40002441406
1552.63257451264	1788.80004882813
1553.25818993252	1792.19995117188
1553.88372375994	1794.59997558594
1554.50917600239	1790.59997558594
1555.13454666734	1774.59997558594
1555.75983576228	1779.19995117188
1556.38504329469	1782.40002441406
1557.01016927204	1783.40002441406
1557.63521370181	1786.80004882813
1558.26017659149	1760
1558.88505794854	1766.19995117188
1559.50985778045	1774.19995117188
1560.13457609469	1776.80004882813
1560.75921289874	1782
1561.38376820008	1785.40002441406
1562.00824200618	1776.80004882813
1562.63263432452	1786.19995117188
1563.25694516257	1790.80004882813
1563.88117452781	1807.40002441406
1564.50532242772	1807.59997558594
1565.12938886976	1796
1565.75337386141	1770.80004882813
1566.37727741015	1791
1567.00109952345	1801
1567.62484020878	1799.40002441406
1568.24849947361	1820.59997558594
1568.87207732542	1828.59997558594
1569.49557377168	1850.40002441406
1570.11898881986	1848.19995117188
1570.74232247743	1844.19995117188
1571.36557475186	1863
1571.98874565062	1871
1572.61183518119	1881.40002441406
1573.23484335103	1898
1573.85777016761	1899.40002441406
1574.4806156384	1920.80004882813
1575.10337977088	1907.80004882813
1575.7260625725	1909.80004882813
1576.34866405074	1895.40002441406
1576.97118421306	1910.59997558594
1577.59362306694	1893.19995117188
1578.21598061984	1918.19995117188
1578.83825687922	1907.19995117188
1579.46045185255	1887.80004882813
1580.08256554731	1871
1580.70459797094	1853
1581.32654913093	1829.40002441406
1581.94841903473	1827.40002441406
1582.57020768981	1795
1583.19191510364	1804.19995117188
1583.81354128367	1791.19995117188
1584.43508623737	1793.40002441406
1585.05654997221	1800.19995117188
1585.67793249564	1776.80004882813
1586.29923381514	1752.80004882813
1586.92045393815	1742.80004882813
1587.54159287216	1744.59997558594
1588.1626506246	1744
1588.78362720296	1745.19995117188
1589.40452261468	1758.40002441406
1590.02533686724	1730.80004882813
1590.64606996808	1714
1591.26672192467	1723.19995117188
1591.88729274447	1740
1592.50778243493	1723
1593.12819100352	1720.59997558594
1593.7485184577	1709.59997558594
1594.36876480492	1707.59997558594
1594.98893005264	1691.19995117188
1595.60901420832	1691.40002441406
1596.22901727941	1698.80004882813
1596.84893927338	1701
1597.46878019767	1719
1598.08854005975	1724.19995117188
1598.70821886707	1732.80004882813
1599.32781662708	1731.59997558594
1599.94733334725	1740.59997558594
1600.56676903502	1732.19995117188
1601.18612369785	1725.40002441406
1601.8053973432	1737
1602.42458997851	1715.59997558594
1603.04370161124	1705.19995117188
1603.66273224884	1690.59997558594
1604.28168189878	1687.80004882813
1604.90055056849	1683.59997558594
1605.51933826543	1681.59997558594
1606.13804499705	1674.40002441406
1606.75667077081	1684.59997558594
1607.37521559415	1667
1607.99367947452	1664.59997558594
1608.61206241938	1675.59997558594
1609.23036443618	1655
1609.84858553236	1647
1610.46672571537	1659.59997558594
1611.08478499267	1666.40002441406
1611.7027633717	1660.59997558594
1612.3206608599	1666.80004882813
1612.93847746473	1658.19995117188
1613.55621319364	1652.40002441406
1614.17386805407	1649.19995117188
1614.79144205347	1643
1615.40893519928	1636
1616.02634749895	1637
1616.64367895993	1621.19995117188
1617.26092958966	1628.80004882813
1617.87809939559	1634.80004882813
1618.49518838516	1624.80004882813
1619.11219656582	1632.80004882813
1619.729123945	1639.40002441406
1620.34597053016	1626.80004882813
1620.96273632874	1643
1621.57942134818	1645.59997558594
1622.19602559592	1635.19995117188
1622.8125490794	1639.40002441406
1623.42899180607	1642.59997558594
1624.04535378337	1650.80004882813
1624.66163501874	1635.59997558594
1625.27783551963	1632.40002441406
1625.89395529346	1630.40002441406
1626.50999434768	1615.59997558594
1627.12595268974	1607.59997558594
1627.74183032707	1593.80004882813
1628.3576272671	1602
1628.97334351729	1587.80004882813
1629.58897908506	1593.59997558594
1630.20453397786	1591.40002441406
1630.82000820313	1601.59997558594
1631.43540176829	1595.59997558594
1632.05071468079	1608
1632.66594694807	1614.80004882813
1633.28109857756	1592.19995117188
1633.8961695767	1619.59997558594
1634.51115995292	1620
1635.12606971366	1622
1635.74089886636	1610.40002441406
1636.35564741844	1634
1636.97031537734	1637.59997558594
1637.58490275051	1634.80004882813
1638.19940954536	1644.59997558594
1638.81383576934	1638
1639.42818142987	1650.40002441406
1640.0424465344	1687
1640.65663109034	1678.40002441406
1641.27073510515	1702.80004882813
1641.88475858623	1700.80004882813
1642.49870154104	1695.40002441406
1643.11256397699	1714.40002441406
1643.72634590152	1709.40002441406
1644.34004732206	1730
1644.95366824604	1722.59997558594
1645.56720868089	1728.59997558594
1646.18066863404	1753.59997558594
1646.79404811291	1759.40002441406
1647.40734712494	1763.59997558594
1648.02056567755	1798
1648.63370377817	1787
1649.24676143423	1811.19995117188
1649.85973865316	1794.59997558594
1650.47263544238	1817.40002441406
1651.08545180932	1819
1651.6981877614	1820.80004882813
1652.31084330606	1809.40002441406
1652.92341845071	1795.40002441406
1653.53591320278	1764.19995117188
1654.1483275697	1742.80004882813
1654.7606615589	1727.80004882813
1655.37291517778	1722.40002441406
1655.98508843379	1689.80004882813
1656.59718133434	1673.19995117188
1657.20919388685	1670.19995117188
1657.82112609875	1650.59997558594
1658.43297797747	1657.59997558594
1659.04474953041	1644.80004882813
1659.65644076501	1640.59997558594
1660.26805168869	1628.80004882813
1660.87958230886	1599.80004882813
1661.49103263294	1604.80004882813
1662.10240266837	1598.80004882813
1662.71369242255	1590.19995117188
1663.32490190291	1594.59997558594
1663.93603111687	1595.19995117188
1664.54708007184	1580
1665.15804877524	1574.19995117188
1665.7689372345	1585.40002441406
1666.37974545703	1578
1666.99047345024	1581.59997558594
1667.60112122156	1570.80004882813
1668.2116887784	1561
1668.82217612818	1546
1669.43258327831	1526.59997558594
1670.04291023622	1513.40002441406
1670.65315700931	1514.80004882813
1671.263323605	1488
1671.8734100307	1486.40002441406
1672.48341629384	1485.40002441406
1673.09334240182	1484.80004882813
1673.70318836206	1481.59997558594
1674.31295418197	1488.80004882813
1674.92263986896	1485.40002441406
1675.53224543046	1492.80004882813
1676.14177087386	1477.40002441406
1676.75121620658	1493.40002441406
1677.36058143604	1510.80004882813
1677.96986656964	1502.19995117188
1678.5790716148	1506
1679.18819657892	1522.59997558594
1679.79724146943	1513
1680.40620629372	1525.19995117188
1681.0150910592	1508.80004882813
1681.6238957733	1516.80004882813
1682.23262044341	1520.19995117188
1682.84126507694	1506.80004882813
1683.4498296813	1517
1684.0583142639	1505.59997558594
1684.66671883216	1511.80004882813
1685.27504339346	1513.40002441406
1685.88328795523	1518.59997558594
1686.49145252487	1494.40002441406
1687.09953710978	1504.59997558594
1687.70754171737	1498.59997558594
1688.31546635505	1498.40002441406
1688.92331103021	1511.80004882813
1689.53107575028	1503
1690.13876052265	1506.19995117188
1690.74636535472	1496.19995117188
1691.3538902539	1488.19995117188
1691.96133522759	1500
1692.5687002832	1481.80004882813
1693.17598542812	1486.40002441406
1693.78319066977	1473.59997558594
1694.39031601554	1475
1694.99736147283	1477.40002441406
1695.60432704905	1486.80004882813
1696.2112127516	1495.59997558594
1696.81801858788	1516.40002441406
1697.42474456528	1499.40002441406
1698.03139069121	1501.19995117188
1698.63795697307	1490.80004882813
1699.24444341826	1501.40002441406
1699.85085003417	1481
1700.45717682821	1485.40002441406
1701.06342380778	1482.59997558594
1701.66959098026	1486
1702.27567835307	1488.19995117188
1702.88168593359	1475.80004882813
1703.48761372922	1479
1704.09346174737	1472.40002441406
1704.69922999542	1463
1705.30491848077	1464.19995117188
1705.91052721083	1464.80004882813
1706.51605619297	1463.19995117188
1707.12150543461	1457.59997558594
1707.72687494312	1459.80004882813
1708.33216472592	1453.40002441406
1708.93737479039	1448.80004882813
1709.54250514392	1438.80004882813
