634.977642221345	3142.60009765625
635.719821695905	3194.19995117188
636.461909203392	3208.80004882813
637.203904751776	3248.60009765625
637.945808349023	3250.60009765625
638.687620003102	3240.19995117188
639.42933972198	3262.19995117188
640.170967513616	3246.19995117188
640.912503385981	3178.80004882813
641.653947347041	3101
642.395299404758	3108
643.13655956709	3046.39990234375
643.877727842014	2987.19995117188
644.61880423748	2935.60009765625
645.359788761455	2942.39990234375
646.100681421905	2979.80004882813
646.841482226789	3025.60009765625
647.582191184074	3060.80004882813
648.322808301711	3068.19995117188
649.06333358767	3059.60009765625
649.803767049909	3065.19995117188
650.544108696385	3080.39990234375
651.28435853506	3102.80004882813
652.024516573894	3122.80004882813
652.764582820849	3140.19995117188
653.504557283875	3121.80004882813
654.244439970937	3144.19995117188
654.984230889991	3164.19995117188
655.723930048995	3209.39990234375
656.463537455909	3222.80004882813
657.203053118683	3254.80004882813
657.942477045275	3229.80004882813
658.681809243647	3248.39990234375
659.421049721747	3258.80004882813
660.160198487535	3233.19995117188
660.899255548962	3231.80004882813
661.638220913985	3216.60009765625
662.377094590559	3219
663.115876586631	3231.60009765625
663.854566910165	3227
664.593165569107	3241
665.331672571406	3184.60009765625
666.07008792502	3131.60009765625
666.808411637902	3093.39990234375
667.546643717996	3084
668.284784173258	3071
669.022833011641	3105.19995117188
669.760790241089	3142.60009765625
670.498655869554	3105.39990234375
671.236429904987	3083
671.97411235534	3098.39990234375
672.711703228551	3099.60009765625
673.449202532577	3141.80004882813
674.186610275364	3155
674.923926464857	3182
675.661151109008	3235.60009765625
676.398284215759	3276.39990234375
677.135325793058	3277.39990234375
677.87227584885	3323.60009765625
678.609134391082	3365.39990234375
679.345901427696	3356
680.082576966644	3369.19995117188
680.819161015861	3363.19995117188
681.555653583298	3316.39990234375
682.292054676895	3281.80004882813
683.028364304594	3296.39990234375
683.764582474344	3246.80004882813
684.500709194083	3251
685.236744471752	3253
685.972688315294	3262
686.708540732652	3231.39990234375
687.444301731762	3224.19995117188
688.179971320572	3219.19995117188
688.915549507013	3205
689.651036299034	3197
690.386431704569	3217.19995117188
691.121735731559	3178.80004882813
691.85694838794	3199.80004882813
692.592069681652	3174.39990234375
693.327099620632	3217.80004882813
694.062038212821	3197
694.796885466149	3216.19995117188
695.531641388561	3213
696.266305987987	3261.19995117188
697.000879272367	3270.60009765625
697.735361249632	3284
698.469751927722	3316.60009765625
699.204051314568	3351.60009765625
699.938259418107	3305.39990234375
700.672376246272	3320.80004882813
701.406401806997	3311.19995117188
702.140336108212	3339.80004882813
702.874179157855	3345
703.607930963856	3393.19995117188
704.341591534147	3314.60009765625
705.07516087666	3281
705.808638999324	3289.60009765625
706.542025910073	3315.19995117188
707.275321616841	3318.39990234375
708.008526127549	3363.19995117188
708.741639450132	3357.19995117188
709.474661592521	3326.39990234375
710.207592562641	3354
710.940432368424	3341.39990234375
711.673181017796	3348
712.405838518687	3320
713.138404879025	3279
713.870880106731	3307.60009765625
714.603264209738	3314.80004882813
715.335557195971	3321.39990234375
716.067759073357	3363.19995117188
716.799869849816	3361.39990234375
717.531889533281	3352
718.263818131673	3313.60009765625
718.995655652917	3304
719.727402104934	3316.19995117188
720.45905749565	3308.80004882813
721.19062183299	3280.39990234375
721.922095124877	3268.60009765625
722.653477379231	3270.19995117188
723.384768603973	3327.80004882813
724.11596880703	3311.80004882813
724.847077996319	3368.60009765625
725.578096179762	3385.60009765625
726.309023365281	3415.19995117188
727.039859560792	3407.19995117188
727.770604774222	3386
728.501259013484	3394
729.231822286501	3415.39990234375
729.962294601191	3433
730.692675965469	3392.60009765625
731.42296638726	3343
732.153165874472	3321.39990234375
732.883274435032	3315.60009765625
733.613292076851	3317
734.343218807843	3329
735.07305463593	3342.19995117188
735.802799569028	3315.80004882813
736.532453615048	3296.60009765625
737.262016781904	3285.39990234375
737.991489077517	3275.80004882813
738.720870509794	3271.39990234375
739.450161086654	3260
740.179360816009	3307.60009765625
740.908469705772	3313.19995117188
741.637487763854	3339.39990234375
742.366414998168	3324.60009765625
743.095251416623	3365.39990234375
743.823997027137	3377.80004882813
744.552651837618	3429.39990234375
745.281215855978	3450.60009765625
746.009689090124	3489.60009765625
746.738071547964	3452.60009765625
747.466363237419	3399.60009765625
748.194564166384	3392
748.92267434278	3361.60009765625
749.650693774504	3345.80004882813
750.378622469476	3361.80004882813
751.106460435596	3362.19995117188
751.834207680771	3409.19995117188
752.561864212909	3377.60009765625
753.289430039919	3333.80004882813
754.016905169707	3345.60009765625
754.744289610175	3338.19995117188
755.471583369231	3380
756.198786454782	3401
756.925898874728	3387
757.652920636979	3358.80004882813
758.379851749433	3331.39990234375
759.106692219996	3361.19995117188
759.833442056572	3421.60009765625
760.560101267063	3450.19995117188
761.28666985937	3518
762.0131478414	3542.60009765625
762.739535221046	3549.80004882813
763.465832006219	3589.80004882813
764.192038204812	3596
764.918153824731	3596.19995117188
765.644178873872	3622
766.370113360138	3617.19995117188
767.095957291425	3653.60009765625
767.821710675635	3722.39990234375
768.547373520665	3825.39990234375
769.272945834415	3893
769.998427624781	3979.60009765625
770.723818899658	3974.60009765625
771.449119666949	3948.39990234375
772.174329934546	3971.80004882813
772.899449710347	3917
773.624479002248	3938
774.349417818145	3941.60009765625
775.074266165934	3951.80004882813
775.799024053505	3967.80004882813
776.523691488757	3947.39990234375
777.248268479582	3862.39990234375
777.972755033877	3774
778.69715115953	3708.60009765625
779.421456864441	3656
780.145672156493	3576.80004882813
780.869797043587	3550.80004882813
781.593831533611	3506.80004882813
782.317775634457	3517
783.041629354012	3522.60009765625
783.765392700174	3469.60009765625
784.489065680828	3454.80004882813
785.212648303866	3414
785.936140577177	3413.39990234375
786.659542508652	3459.19995117188
787.382854106174	3469.19995117188
788.106075377639	3460
788.829206330928	3465.80004882813
789.552246973933	3428.19995117188
790.275197314542	3449.80004882813
790.998057360638	3473.80004882813
791.720827120108	3466.19995117188
792.443506600841	3456.19995117188
793.166095810722	3457.60009765625
793.888594757635	3441.60009765625
794.611003449465	3454.19995117188
795.333321894098	3479.60009765625
796.055550099417	3499.19995117188
796.777688073308	3557
797.499735823654	3541.39990234375
798.221693358334	3491.80004882813
798.943560685235	3483.60009765625
799.665337812239	3472.19995117188
800.387024747226	3516.39990234375
801.108621498075	3509.80004882813
801.830128072674	3520.80004882813
802.551544478902	3492.60009765625
803.272870724636	3432.80004882813
803.994106817761	3415.39990234375
804.715252766148	3399
805.436308577687	3384.60009765625
806.157274260251	3394
806.878149821721	3407.60009765625
807.598935269973	3396.19995117188
808.319630612886	3361.39990234375
809.040235858336	3356
809.760751014202	3359.60009765625
810.481176088361	3377.60009765625
811.201511088685	3328.60009765625
811.921756023059	3343.19995117188
812.641910899347	3303.80004882813
813.361975725432	3285.19995117188
814.081950509188	3307.80004882813
814.801835258489	3338.39990234375
815.521629981206	3372.60009765625
816.241334685218	3411.39990234375
816.960949378392	3442.39990234375
817.680474068606	3422.80004882813
818.399908763731	3418.80004882813
819.11925347164	3391.19995117188
819.838508200202	3361.80004882813
820.55767295729	3371.60009765625
821.276747750778	3350.80004882813
821.995732588531	3317.60009765625
822.714627478425	3315.39990234375
823.433432428327	3346.60009765625
824.152147446105	3372.60009765625
824.870772539632	3421
825.589307716775	3403.80004882813
826.307752985404	3405
827.026108353378	3402.80004882813
827.744373828579	3392.39990234375
828.462549418867	3323.80004882813
829.180635132107	3347
829.898630976168	3372.80004882813
830.616536958915	3387.60009765625
831.334353088218	3404.19995117188
832.052079371938	3420
832.769715817942	3399.60009765625
833.487262434092	3369.60009765625
834.204719228255	3394.60009765625
834.922086208293	3388
835.639363382073	3410.80004882813
836.356550757456	3436.60009765625
837.073648342304	3467.39990234375
837.790656144484	3404.80004882813
838.507574171847	3416
839.22440243227	3377.39990234375
839.941140933601	3342.60009765625
840.657789683706	3320.19995117188
841.374348690448	3335
842.090817961686	3341.80004882813
842.807197505276	3376.80004882813
843.523487329083	3338.39990234375
844.23968744096	3331.60009765625
844.955797848771	3335.80004882813
845.671818560374	3388.80004882813
846.387749583622	3398.39990234375
847.103590926378	3383.60009765625
847.819342596497	3340
848.535004601833	3346.80004882813
849.25057695025	3333.60009765625
849.966059649598	3378.60009765625
850.681452707735	3383.19995117188
851.396756132513	3376
852.111969931789	3417
852.827094113419	3397.80004882813
853.542128685257	3388
854.257073655158	3414.39990234375
854.971929030969	3389.19995117188
855.686694820551	3400
856.40137103175	3382.39990234375
857.115957672423	3373.19995117188
857.830454750423	3373.60009765625
858.544862273597	3353.80004882813
859.259180249797	3355.39990234375
859.97340868688	3371.39990234375
860.687547592688	3387
861.401596975075	3415.80004882813
862.115556841891	3447.60009765625
862.829427200985	3455.60009765625
863.543208060205	3471.60009765625
864.256899427402	3457.39990234375
864.970501310423	3446.60009765625
865.684013717114	3422.39990234375
866.397436655325	3427
867.110770132901	3396.60009765625
867.824014157691	3389.39990234375
868.537168737542	3366.80004882813
869.250233880299	3365.60009765625
869.963209593803	3366.80004882813
870.676095885902	3366
871.388892764445	3337.80004882813
872.101600237276	3324
872.814218312233	3293
873.526746997165	3310.60009765625
874.239186299914	3311.19995117188
874.951536228323	3333
875.663796790231	3330.80004882813
876.375967993487	3323.60009765625
877.088049845928	3357.60009765625
877.8000423554	3357.19995117188
878.511945529739	3363.60009765625
879.22375937679	3346.19995117188
879.935483904388	3353.80004882813
880.64711912038	3379.80004882813
881.358665032604	3344.60009765625
882.070121648892	3328
882.78148897709	3344.19995117188
883.492767025039	3324
884.203955800571	3345.60009765625
884.915055311525	3325.19995117188
885.626065565741	3277.60009765625
886.336986571053	3245.39990234375
887.047818335298	3214.80004882813
887.758560866315	3234.80004882813
888.469214171937	3234
889.179778260005	3260.39990234375
889.890253138347	3263
890.600638814803	3254.19995117188
891.310935297204	3212
892.021142593385	3228.80004882813
892.731260711183	3251.60009765625
893.441289658429	3272
894.15122944295	3272.39990234375
894.861080072591	3261.80004882813
895.570841555173	3220.80004882813
896.280513898534	3227.39990234375
896.990097110503	3255.39990234375
897.699591198913	3283.39990234375
898.408996171595	3335.19995117188
899.118312036375	3336.39990234375
899.827538801089	3365.80004882813
900.536676473561	3342.80004882813
901.245725061628	3360.80004882813
901.954684573109	3347.39990234375
902.663555015838	3367
903.372336397644	3368.80004882813
904.081028726351	3368.80004882813
904.789632009793	3411.60009765625
905.49814625579	3430.80004882813
906.20657147217	3445.19995117188
906.914907666765	3411.80004882813
907.623154847391	3411.39990234375
908.331313021885	3414
909.039382198064	3431
909.747362383754	3406.39990234375
910.455253586782	3401
911.163055814972	3404.60009765625
911.870769076143	3399.60009765625
912.578393378126	3407.39990234375
913.285928728738	3352.19995117188
913.993375135802	3379.39990234375
914.700732607145	3374.80004882813
915.408001150579	3395.80004882813
916.115180773937	3422.80004882813
916.822271485037	3423.60009765625
917.529273291693	3436.39990234375
918.236186201733	3485.60009765625
918.943010222971	3508.80004882813
919.649745363234	3521.60009765625
920.356391630333	3485
921.062949032096	3415
921.769417576333	3378.80004882813
922.475797270864	3350.60009765625
923.182088123512	3327.19995117188
923.888290142089	3327.19995117188
924.594403334414	3381.60009765625
925.300427708304	3389.60009765625
926.006363271572	3390.80004882813
926.712210032039	3395
927.417967997522	3362.80004882813
928.123637175827	3370
928.829217574776	3404.19995117188
929.534709202184	3415.39990234375
930.240112065859	3368
930.945426173621	3351.39990234375
931.650651533283	3313.80004882813
932.355788152653	3307.19995117188
933.060836039547	3279.80004882813
933.765795201776	3301.60009765625
934.470665647153	3280.19995117188
935.175447383492	3273.80004882813
935.880140418599	3291.19995117188
936.584744760286	3306.39990234375
937.289260416366	3353.39990234375
937.993687394647	3367.39990234375
938.698025702939	3424.80004882813
939.402275349051	3412.19995117188
940.106436340793	3420.80004882813
940.810508685976	3387
941.5144923924	3402.39990234375
942.21838746788	3390.60009765625
942.922193920223	3381.60009765625
943.625911757231	3374.60009765625
944.329540986716	3311.39990234375
945.033081616484	3276.39990234375
945.736533654334	3242.60009765625
946.439897108083	3237
947.143171985529	3241
947.846358294477	3253.39990234375
948.549456042732	3297.39990234375
949.2524652381	3308.39990234375
949.955385888382	3331.80004882813
950.658218001384	3319.39990234375
951.360961584907	3321.80004882813
952.063616646755	3343.39990234375
952.766183194733	3361.60009765625
953.468661236636	3362
954.171050780271	3330.60009765625
954.873351833437	3306
955.575564403935	3295.60009765625
956.277688499565	3271.39990234375
956.97972412813	3248.39990234375
957.681671297424	3268.19995117188
958.383530015255	3244.80004882813
959.085300289414	3278
959.786982127703	3299.80004882813
960.488575537918	3284.19995117188
961.190080527859	3300
961.891497105327	3246.19995117188
962.592825278111	3238.39990234375
963.294065054012	3211.39990234375
963.995216440829	3203.80004882813
964.696279446353	3228.60009765625
965.397254078383	3275.39990234375
966.098140344714	3324.39990234375
966.798938253139	3305.60009765625
967.499647811456	3273
968.200269027458	3262.39990234375
968.900801908937	3289.19995117188
969.601246463685	3272.60009765625
970.3016026995	3204.80004882813
971.001870624169	3195.80004882813
971.702050245491	3193.39990234375
972.402141571249	3161.39990234375
973.102144609245	3177.60009765625
973.802059367267	3244.80004882813
974.501885853103	3248
975.201624074541	3288.19995117188
975.901274039379	3282.60009765625
976.600835755399	3328.80004882813
977.3003092304	3308.19995117188
977.999694472158	3271.19995117188
978.698991488473	3242.19995117188
979.39820028713	3226.19995117188
980.097320875915	3217.39990234375
980.796353262618	3228
981.495297455024	3285.80004882813
982.194153460919	3286.80004882813
982.892921288093	3307.19995117188
983.591600944331	3293.39990234375
984.290192437419	3316.60009765625
984.98869577514	3310.80004882813
985.687110965282	3287
986.385438015629	3258
987.083676933961	3229
987.781827728069	3197
988.479890405732	3204
989.177864974732	3174
989.875751442857	3193.60009765625
990.573549817888	3236.39990234375
991.271260107602	3255
991.968882319786	3279.39990234375
992.666416462217	3279.80004882813
993.363862542681	3273.39990234375
994.061220568959	3241.80004882813
994.758490548823	3223.19995117188
995.455672490061	3251.39990234375
996.152766400451	3251.39990234375
996.849772287773	3255.19995117188
997.5466901598	3296.39990234375
998.243520024317	3297.60009765625
998.940261889097	3279
999.636915761923	3270.80004882813
1000.33348165057	3207
1001.02995956281	3180.60009765625
1001.72634950643	3179.19995117188
1002.42265148919	3206.39990234375
1003.11886551889	3218.60009765625
1003.81499160328	3221.39990234375
1004.51102975015	3286.80004882813
1005.20697996727	3264
1005.90284226242	3287.60009765625
1006.59861664337	3316.80004882813
1007.2943031179	3325
1007.98990169377	3334
1008.68541237876	3358.80004882813
1009.38083518064	3369
1010.07617010719	3346.60009765625
1010.77141716617	3352.60009765625
1011.46657636536	3312
1012.16164771253	3275.80004882813
1012.85663121546	3230
1013.5515268819	3195.60009765625
1014.24633471963	3177.80004882813
1014.94105473642	3176.80004882813
1015.63568694004	3208.60009765625
1016.33023133826	3268.39990234375
1017.02468793885	3299.39990234375
1017.71905674957	3303.39990234375
1018.41333777819	3319.39990234375
1019.10753103249	3315.80004882813
1019.80163652022	3315
1020.49565424916	3259.60009765625
1021.18958422707	3228
1021.88342646171	3226.39990234375
1022.57718096085	3227.60009765625
1023.27084773227	3262.60009765625
1023.96442678371	3257.80004882813
1024.65791812296	3265.60009765625
1025.35132175776	3258.60009765625
1026.04463769589	3253.80004882813
1026.73786594511	3232.19995117188
1027.43100651318	3190.60009765625
1028.12405940786	3193.60009765625
1028.81702463692	3216.60009765625
1029.50990220812	3189.19995117188
1030.20269212921	3225.80004882813
1030.89539440798	3292
1031.58800905216	3264.19995117188
1032.28053606952	3228.60009765625
1032.97297546784	3205.60009765625
1033.66532725485	3220.80004882813
1034.35759143832	3258.19995117188
1035.04976802602	3290.60009765625
1035.7418570257	3290.19995117188
1036.43385844511	3263.80004882813
1037.12577229202	3268.60009765625
1037.81759857419	3247.60009765625
1038.50933729937	3254
1039.20098847531	3272.39990234375
1039.89255210978	3249.80004882813
1040.58402821053	3269.60009765625
1041.27541678532	3211.39990234375
1041.96671784191	3203.39990234375
1042.65793138804	3176.19995117188
1043.34905743147	3187.19995117188
1044.04009597996	3196.39990234375
1044.73104704125	3243.60009765625
1045.42191062312	3225.19995117188
1046.1126867333	3219.80004882813
1046.80337537955	3241.60009765625
1047.49397656962	3244.80004882813
1048.18449031127	3223.39990234375
1048.87491661225	3229.19995117188
1049.5652554803	3222.80004882813
1050.25550692319	3202.19995117188
1050.94567094865	3164.19995117188
1051.63574756444	3160.60009765625
1052.32573677832	3214.60009765625
1053.01563859803	3219.19995117188
1053.70545303131	3204.80004882813
1054.39518008592	3192.60009765625
1055.08481976961	3172.60009765625
1055.77437209013	3196.60009765625
1056.46383705522	3217.19995117188
1057.15321467262	3202.19995117188
1057.8425049501	3181.39990234375
1058.53170789539	3123.39990234375
1059.22082351624	3107
1059.9098518204	3101.80004882813
1060.59879281561	3108.80004882813
1061.28764650962	3099.19995117188
1061.97641291016	3130.80004882813
1062.665092025	3164.60009765625
1063.35368386187	3212.80004882813
1064.04218842851	3202.19995117188
1064.73060573268	3189.60009765625
1065.4189357821	3142
1066.10717858452	3102.19995117188
1066.7953341477	3105.80004882813
1067.48340247936	3117.39990234375
1068.17138358725	3119.19995117188
1068.85927747912	3149.80004882813
1069.5470841627	3157.80004882813
1070.23480364573	3182.39990234375
1070.92243593595	3177.39990234375
1071.60998104111	3195.39990234375
1072.29743896894	3145.19995117188
1072.98480972718	3138.39990234375
1073.67209332357	3155.80004882813
1074.35928976585	3189
1075.04639906176	3197.19995117188
1075.73342121903	3218.60009765625
1076.42035624541	3251
1077.10720414862	3273.60009765625
1077.79396493641	3301.80004882813
1078.48063861651	3292.19995117188
1079.16722519666	3269.60009765625
1079.85372468459	3251.19995117188
1080.54013708804	3221.60009765625
1081.22646241474	3228.60009765625
1081.91270067243	3180.60009765625
1082.59885186884	3191.39990234375
1083.28491601171	3239
1083.97089310877	3270.60009765625
1084.65678316774	3285.19995117188
1085.34258619637	3281.60009765625
1086.02830220239	3256
1086.71393119352	3259.80004882813
1087.39947317751	3241.60009765625
1088.08492816207	3225.19995117188
1088.77029615495	3240.19995117188
1089.45557716387	3200.80004882813
1090.14077119656	3203.60009765625
1090.82587826075	3161.80004882813
1091.51089836417	3187.39990234375
1092.19583151456	3181.19995117188
1092.88067771963	3167.80004882813
1093.56543698712	3181.39990234375
1094.25010932475	3141.60009765625
1094.93469474026	3143.19995117188
1095.61919324137	3147.39990234375
1096.3036048358	3166
1096.98792953129	3165.19995117188
1097.67216733555	3172
1098.35631825632	3229.39990234375
1099.04038230132	3211.19995117188
1099.72435947828	3200.80004882813
1100.40824979492	3174.60009765625
1101.09205325895	3153.80004882813
1101.77576987812	3145.39990234375
1102.45939966014	3124.39990234375
1103.14294261273	3098.19995117188
1103.82639874362	3052
1104.50976806054	3028.80004882813
1105.19305057119	3062.60009765625
1105.87624628331	3082.60009765625
1106.55935520461	3131.60009765625
1107.24237734283	3149.80004882813
1107.92531270566	3161.19995117188
1108.60816130085	3134.19995117188
1109.2909231361	3148.19995117188
1109.97359821914	3166
1110.65618655768	3179.80004882813
1111.33868815946	3208.19995117188
1112.02110303217	3214.39990234375
1112.70343118355	3225
1113.3856726213	3276
1114.06782735316	3305
1114.74989538683	3290.19995117188
1115.43187673002	3230
1116.11377139047	3192.19995117188
1116.79557937588	3169.80004882813
1117.47730069397	3155.60009765625
1118.15893535245	3187
1118.84048335904	3233.60009765625
1119.52194472146	3239
1120.20331944741	3212
1120.88460754462	3170.19995117188
1121.56580902079	3156
1122.24692388364	3136.60009765625
1122.92795214088	3162.60009765625
1123.60889380022	3164.39990234375
1124.28974886938	3205
1124.97051735606	3281.60009765625
1125.65119926799	3290.39990234375
1126.33179461286	3317.19995117188
1127.0123033984	3384
1127.6927256323	3351.19995117188
1128.37306132229	3329
1129.05331047606	3284.80004882813
1129.73347310134	3221.39990234375
1130.41354920582	3210.60009765625
1131.09353879722	3217.80004882813
1131.77344188324	3225
1132.45325847159	3250.80004882813
1133.13298856999	3266.19995117188
1133.81263218612	3249.80004882813
1134.49218932772	3238.60009765625
1135.17166000247	3220
1135.85104421809	3215.19995117188
1136.53034198227	3175.80004882813
1137.20955330274	3121.39990234375
1137.88867818718	3112.19995117188
1138.56771664331	3091.60009765625
1139.24666867883	3127.80004882813
1139.92553430144	3184.60009765625
1140.60431351885	3191.60009765625
1141.28300633876	3184.39990234375
1141.96161276887	3191
1142.64013281689	3210
1143.31856649051	3196.39990234375
1143.99691379744	3192.19995117188
1144.67517474538	3140.80004882813
1145.35334934203	3192.19995117188
1146.03143759509	3180.19995117188
1146.70943951226	3147.80004882813
1147.38735510125	3124.60009765625
1148.06518436974	3106
1148.74292732545	3106.60009765625
1149.42058397606	3065.19995117188
1150.09815432928	3076
1150.7756383928	3076.60009765625
1151.45303617432	3110.60009765625
1152.13034768155	3138.60009765625
1152.80757292217	3170.60009765625
1153.48471190389	3252.39990234375
1154.16176463439	3277.39990234375
1154.83873112138	3252.39990234375
1155.51561137255	3251.19995117188
1156.1924053956	3235.80004882813
1156.86911319822	3204.19995117188
1157.5457347881	3214.39990234375
1158.22227017294	3239.19995117188
1158.89871936044	3218.60009765625
1159.57508235828	3218.39990234375
1160.25135917416	3187.80004882813
1160.92754981578	3161.60009765625
1161.60365429081	3181
1162.27967260697	3198.39990234375
1162.95560477193	3172.19995117188
1163.63145079339	3170.80004882813
1164.30721067904	3176.19995117188
1164.98288443657	3158.80004882813
1165.65847207367	3140
1166.33397359803	3168.39990234375
1167.00938901735	3191.60009765625
1167.6847183393	3203.19995117188
1168.35996157157	3190.80004882813
1169.03511872187	3175.39990234375
1169.71018979787	3161.60009765625
1170.38517480726	3162
1171.06007375773	3158.39990234375
1171.73488665696	3145.19995117188
1172.40961351265	3100.80004882813
1173.08425433247	3104.39990234375
1173.75880912412	3139.39990234375
1174.43327789528	3185.39990234375
1175.10766065364	3222.19995117188
1175.78195740687	3311.80004882813
1176.45616816267	3361.19995117188
1177.13029292871	3391.39990234375
1177.80433171269	3385.60009765625
1178.47828452229	3376.80004882813
1179.15215136518	3347.80004882813
1179.82593224905	3359.19995117188
1180.49962718159	3351.80004882813
1181.17323617047	3358.39990234375
1181.84675922337	3398.80004882813
1182.52019634799	3423.19995117188
1183.193547552	3431.60009765625
1183.86681284307	3428.60009765625
1184.53999222889	3415.19995117188
1185.21308571714	3409.80004882813
1185.8860933155	3386.39990234375
1186.55901503165	3374.19995117188
1187.23185087326	3386.39990234375
1187.90460084802	3422.60009765625
1188.5772649636	3393.80004882813
1189.24984322768	3421.19995117188
1189.92233564794	3431
1190.59474223206	3466
1191.2670629877	3481.80004882813
1191.93929792255	3454.80004882813
1192.61144704428	3451.60009765625
1193.28351036058	3452
1193.9554878791	3423.60009765625
1194.62737960754	3394.60009765625
1195.29918555356	3399.60009765625
1195.97090572483	3420.39990234375
1196.64254012903	3443.39990234375
1197.31408877384	3432
1197.98555166693	3429.39990234375
1198.65692881596	3375
1199.32822022862	3340.39990234375
1199.99942591256	3340.19995117188
1200.67054587548	3328
1201.34158012503	3289.19995117188
1202.01252866889	3265.80004882813
1202.68339151473	3290.80004882813
1203.35416867021	3282.80004882813
1204.02486014301	3255.80004882813
1204.6954659408	3238.39990234375
1205.36598607124	3270.19995117188
1206.03642054201	3279
1206.70676936078	3302.19995117188
1207.3770325352	3273.39990234375
1208.04721007295	3246
1208.7173019817	3253.39990234375
1209.38730826911	3210.60009765625
1210.05722894285	3138.19995117188
1210.72706401059	3141
1211.39681347999	3157.19995117188
1212.06647735872	3128.19995117188
1212.73605565444	3131.39990234375
1213.40554837481	3135.39990234375
1214.07495552751	3112
1214.74427712019	3097.60009765625
1215.41351316052	3102.39990234375
1216.08266365617	3095
1216.75172861479	3078.80004882813
1217.42070804405	3047.80004882813
1218.0896019516	3068
1218.75841034513	3071.39990234375
1219.42713323227	3091.19995117188
1220.0957706207	3155
1220.76432251808	3157.60009765625
1221.43278893207	3151.60009765625
1222.10116987032	3155.19995117188
1222.7694653405	3171.80004882813
1223.43767535026	3169.39990234375
1224.10579990727	3154
1224.77383901918	3143
1225.44179269366	3141.19995117188
1226.10966093835	3129.39990234375
1226.77744376093	3107
1227.44514116904	3122.60009765625
1228.11275317034	3107.19995117188
1228.78027977249	3082.39990234375
1229.44772098315	3067.39990234375
1230.11507680996	3087.39990234375
1230.7823472606	3067
1231.44953234271	3051.19995117188
1232.11663206394	3035.60009765625
1232.78364643195	3058
1233.4505754544	3039.39990234375
1234.11741913894	3034.80004882813
1234.78417749322	3058.80004882813
1235.45085052489	3093
1236.11743824162	3042.39990234375
1236.78394065104	2997.80004882813
1237.45035776082	2972.60009765625
1238.1166895786	2965.60009765625
1238.78293611204	3016.80004882813
1239.44909736878	3027.19995117188
1240.11517335648	3025.80004882813
1240.78116408279	3040
1241.44706955535	3038
1242.11288978182	3014.39990234375
1242.77862476985	2998.80004882813
1243.44427452708	2960.60009765625
1244.10983906116	2960.19995117188
1244.77531837974	2996
1245.44071249047	3009
1246.106021401	3034.60009765625
1246.77124511898	3054.80004882813
1247.43638365204	3068.39990234375
1248.10143700783	3083.19995117188
1248.76640519401	3063.39990234375
1249.43128821822	3045.19995117188
1250.0960860881	3028.80004882813
1250.76079881129	3010.80004882813
1251.42542639545	2998.39990234375
1252.08996884822	2973.19995117188
1252.75442617723	2954
1253.41879839014	3015.80004882813
1254.08308549458	3051.60009765625
1254.74728749821	3072.39990234375
1255.41140440866	3082.39990234375
1256.07543623357	3071.80004882813
1256.73938298059	3039.60009765625
1257.40324465735	3011.19995117188
1258.0670212715	2987.19995117188
1258.73071283068	3025.19995117188
1259.39431934253	3053.60009765625
1260.05784081468	3087.19995117188
1260.72127725479	3107.39990234375
1261.38462867049	3095
1262.0478950694	3078.39990234375
1262.71107645919	3053.39990234375
1263.37417284748	3041.60009765625
1264.03718424191	3041.60009765625
1264.70011065011	3058.60009765625
1265.36295207974	3054.60009765625
1266.02570853841	3063
1266.68838003378	3065.19995117188
1267.35096657346	3066.80004882813
1268.01346816511	3088.80004882813
1268.67588481636	3079.19995117188
1269.33821653483	3076
1270.00046332817	3072.80004882813
1270.66262520401	3086.80004882813
1271.32470216998	3101.19995117188
1271.98669423372	3060.19995117188
1272.64860140285	3022.80004882813
1273.31042368503	3014.60009765625
1273.97216108786	3014.39990234375
1274.633813619	3023.19995117188
1275.29538128606	3032.60009765625
1275.95686409669	3037.60009765625
1276.6182620585	3035.60009765625
1277.27957517914	3028.19995117188
1277.94080346624	2994.60009765625
1278.60194692741	3010.80004882813
1279.2630055703	3023.60009765625
1279.92397940253	3018.80004882813
1280.58486843173	3030.39990234375
1281.24567266552	3026.80004882813
1281.90639211155	3009.60009765625
1282.56702677743	2996.60009765625
1283.2275766708	3031.60009765625
1283.88804179927	3035
1284.54842217049	3023
1285.20871779206	3020.19995117188
1285.86892867163	3053.39990234375
1286.52905481681	3051.19995117188
1287.18909623523	3071.80004882813
1287.84905293452	3050.60009765625
1288.5089249223	3057.80004882813
1289.16871220619	3064.39990234375
1289.82841479383	3086
1290.48803269282	3126
1291.1475659108	3109.19995117188
1291.80701445539	3095.19995117188
1292.46637833421	3060.60009765625
1293.12565755489	3056.60009765625
1293.78485212504	3084.80004882813
1294.44396205229	3107
1295.10298734425	3116.19995117188
1295.76192800856	3083.80004882813
1296.42078405283	3088
1297.07955548467	3108.60009765625
1297.73824231171	3119.39990234375
1298.39684454158	3130
1299.05536218188	3185.19995117188
1299.71379524023	3211.80004882813
1300.37214372427	3186.19995117188
1301.03040764159	3182.80004882813
1301.68858699983	3171.80004882813
1302.34668180659	3168
1303.0046920695	3168.80004882813
1303.66261779617	3163.19995117188
1304.32045899422	3175.19995117188
1304.97821567126	3177
1305.63588783492	3212.80004882813
1306.29347549279	3186.80004882813
1306.95097865251	3195.80004882813
1307.60839732168	3202.60009765625
1308.26573150791	3200
1308.92298121883	3257.19995117188
1309.58014646204	3270.19995117188
1310.23722724517	3274.60009765625
1310.89422357581	3291.19995117188
1311.55113546158	3312.80004882813
1312.2079629101	3266.60009765625
1312.86470592898	3275
1313.52136452582	3230
1314.17793870824	3251.80004882813
1314.83442848386	3236.60009765625
1315.49083386027	3230.39990234375
1316.14715484509	3258.39990234375
1316.80339144594	3287.60009765625
1317.45954367041	3272.60009765625
1318.11561152611	3275.80004882813
1318.77159502067	3249.60009765625
1319.42749416168	3229.19995117188
1320.08330895674	3185.19995117188
1320.73903941348	3167.60009765625
1321.3946855395	3133.39990234375
1322.0502473424	3126.39990234375
1322.70572482978	3147.19995117188
1323.36111800926	3183
1324.01642688845	3143.39990234375
1324.67165147494	3172
1325.32679177634	3136.39990234375
1325.98184780025	3141
1326.63681955429	3088.39990234375
1327.29170704605	3092.39990234375
1327.94651028314	3052
1328.60122927316	3079
1329.25586402371	3052.39990234375
1329.9104145424	3085
1330.56488083683	3083.80004882813
1331.2192629146	3062
1331.87356078331	3103.60009765625
1332.52777445056	3091.19995117188
1333.18190392395	3053.80004882813
1333.83594921109	3054.60009765625
1334.48991031958	3040
1335.143787257	3038.60009765625
1335.79758003097	3063.39990234375
1336.45128864908	3071.80004882813
1337.10491311893	3087.19995117188
1337.75845344813	3119.60009765625
1338.41190964425	3137.80004882813
1339.06528171491	3124.19995117188
1339.71856966771	3116.80004882813
1340.37177351023	3075.19995117188
1341.02489325007	3079.39990234375
1341.67792889484	3058.39990234375
1342.33088045212	3016
1342.98374792952	3000.60009765625
1343.63653133462	2985.80004882813
1344.28923067503	3005.80004882813
1344.94184595833	3005.60009765625
1345.59437719212	3023.80004882813
1346.246824384	3064.60009765625
1346.89918754155	3081.19995117188
1347.55146667238	3119.39990234375
1348.20366178407	3132.60009765625
1348.85577288421	3180.19995117188
1349.50779998041	3163
1350.15974308024	3158
1350.8116021913	3181.39990234375
1351.46337732119	3202.19995117188
1352.11506847748	3203.60009765625
1352.76667566778	3238.80004882813
1353.41819889967	3253.80004882813
1354.06963818074	3259.19995117188
1354.72099351858	3262.80004882813
1355.37226492079	3278.19995117188
1356.02345239494	3295.19995117188
1356.67455594862	3319
1357.32557558943	3365.39990234375
1357.97651132496	3421.60009765625
1358.62736316277	3477.80004882813
1359.27813111048	3534
1359.92881517565	3584
1360.57941536589	3605.60009765625
1361.22993168876	3611.39990234375
1361.88036415186	3619
1362.53071276278	3647
1363.1809775291	3676
1363.8311584584	3671.60009765625
1364.48125555826	3621
1365.13126883627	3523
1365.78119830001	3453.39990234375
1366.43104395707	3409.19995117188
1367.08080581503	3360.60009765625
1367.73048388147	3362.80004882813
1368.38007816397	3344.60009765625
1369.02958867011	3294.80004882813
1369.67901540748	3271.60009765625
1370.32835838365	3216
1370.9776176062	3215.60009765625
1371.62679308273	3248.19995117188
1372.27588482079	3225.80004882813
1372.92489282798	3245.80004882813
1373.57381711188	3245.80004882813
1374.22265768006	3188.39990234375
1374.87141454009	3152.60009765625
1375.52008769957	3116.60009765625
1376.16867716606	3073.80004882813
1376.81718294715	3077.19995117188
1377.4656050504	3061.39990234375
1378.1139434834	3050
1378.76219825373	3077
1379.41036936895	3067.60009765625
1380.05845683664	3056.39990234375
1380.70646066439	3009
1381.35438085976	3025.19995117188
1382.00221743032	3040.19995117188
1382.64997038366	3054.19995117188
1383.29763972735	3072.39990234375
1383.94522546895	3045.19995117188
1384.59272761605	3054.39990234375
1385.24014617621	3048
1385.88748115701	3037.80004882813
1386.53473256602	3019.60009765625
1387.18190041081	2978.80004882813
1387.82898469895	2984.60009765625
1388.47598543802	2981.80004882813
1389.12290263558	2930
1389.7697362992	2930.60009765625
1390.41648643646	2925
1391.06315305492	2947.19995117188
1391.70973616215	2912
1392.35623576573	2924.80004882813
1393.00265187321	2922.39990234375
1393.64898449217	2901
1394.29523363018	2888.80004882813
1394.94139929481	2905.19995117188
1395.58748149361	2915.60009765625
1396.23348023415	2892.60009765625
1396.87939552402	2881.19995117188
1397.52522737076	2832
1398.17097578195	2763
1398.81664076514	2698.19995117188
1399.46222232792	2699.80004882813
1400.10772047783	2672.80004882813
1400.75313522245	2664.19995117188
1401.39846656934	2671.19995117188
1402.04371452605	2698.60009765625
1402.68887910016	2733.80004882813
1403.33396029924	2710.60009765625
1403.97895813083	2718.39990234375
1404.6238726025	2721
1405.26870372182	2724.39990234375
1405.91345149634	2744.19995117188
1406.55811593363	2719
1407.20269704125	2753.80004882813
1407.84719482676	2754.39990234375
1408.49160929772	2773.80004882813
1409.13594046168	2791.39990234375
1409.78018832622	2801.60009765625
1410.42435289887	2814
1411.06843418722	2851.60009765625
1411.7124321988	2864
1412.3563469412	2886.80004882813
1413.00017842194	2898.39990234375
1413.64392664861	2940.39990234375
1414.28759162875	2952
1414.93117336992	2885
1415.57467187967	2857.19995117188
1416.21808716557	2885
1416.86141923516	2885.80004882813
1417.50466809601	2878.19995117188
1418.14783375567	2864.60009765625
1418.79091622169	2848
1419.43391550162	2841.19995117188
1420.07683160303	2836
1420.71966453346	2857.39990234375
1421.36241430046	2863.19995117188
1422.0050809116	2878.60009765625
1422.64766437442	2882
1423.29016469647	2905.60009765625
1423.93258188531	2894.80004882813
1424.57491594848	2870.19995117188
1425.21716689354	2861.19995117188
1425.85933472805	2884.39990234375
1426.50141945954	2886.19995117188
1427.14342109557	2876.60009765625
1427.78533964369	2864.60009765625
1428.42717511144	2837
1429.06892750639	2815.19995117188
1429.71059683607	2793.80004882813
1430.35218310803	2811.80004882813
1430.99368632983	2829.19995117188
1431.635106509	2839.80004882813
1432.2764436531	2846.80004882813
1432.91769776967	2872.39990234375
1433.55886886627	2847.60009765625
1434.19995695043	2882.60009765625
1434.84096202969	2858.19995117188
1435.48188411162	2846.19995117188
1436.12272320375	2860.80004882813
1436.76347931363	2846.19995117188
1437.40415244879	2806.19995117188
1438.0447426168	2854.19995117188
1438.68524982518	2864.60009765625
1439.32567408148	2827.60009765625
1439.96601539325	2827.19995117188
1440.60627376803	2793.39990234375
1441.24644921336	2787
1441.88654173678	2742.80004882813
1442.52655134583	2775.80004882813
1443.16647804806	2768.19995117188
1443.806321851	2800.80004882813
1444.4460827622	2804.19995117188
1445.0857607892	2782.39990234375
1445.72535593953	2775.60009765625
1446.36486822074	2785.80004882813
1447.00429764037	2783.60009765625
1447.64364420595	2799.60009765625
1448.28290792502	2787.80004882813
1448.92208880512	2777.60009765625
1449.56118685379	2813.60009765625
1450.20020207857	2833.60009765625
1450.83913448699	2841.39990234375
1451.47798408659	2841.19995117188
1452.1167508849	2839.19995117188
1452.75543488947	2817.80004882813
1453.39403610782	2784.80004882813
1454.0325545475	2773
1454.67099021603	2770.19995117188
1455.30934312097	2809
1455.94761326982	2838.80004882813
1456.58580067014	2834.80004882813
1457.22390532945	2821.39990234375
1457.86192725529	2826.60009765625
1458.49986645519	2844.19995117188
1459.13772293668	2833.60009765625
1459.7754967073	2818
1460.41318777457	2808.19995117188
1461.05079614604	2779
1461.68832182922	2753.60009765625
1462.32576483166	2744.80004882813
1462.96312516087	2732.19995117188
1463.6004028244	2737
1464.23759782977	2764
1464.8747101845	2828.80004882813
1465.51173989614	2871.80004882813
1466.14868697221	2864.19995117188
1466.78555142024	2859.19995117188
1467.42233324774	2838.39990234375
1468.05903246227	2800.60009765625
1468.69564907133	2763.19995117188
1469.33218308246	2737.39990234375
1469.96863450317	2734.39990234375
1470.60500334102	2735.80004882813
1471.2412896035	2729
1471.87749329816	2770.80004882813
1472.51361443251	2787.39990234375
1473.14965301409	2820.39990234375
1473.78560905041	2811
1474.421482549	2817
1475.05727351739	2848.39990234375
1475.69298196309	2819
1476.32860789364	2824.39990234375
1476.96415131654	2811.60009765625
1477.59961223934	2784.60009765625
1478.23499066954	2752.19995117188
1478.87028661467	2759
1479.50550008226	2763.60009765625
1480.14063107981	2773
1480.77567961486	2797
1481.41064569492	2772.39990234375
1482.04552932752	2776.80004882813
1482.68033052017	2784.19995117188
1483.31504928039	2800.39990234375
1483.9496856157	2816.19995117188
1484.58423953363	2844.60009765625
1485.21871104168	2841.19995117188
1485.85310014738	2834.39990234375
1486.48740685824	2782.39990234375
1487.12163118178	2763.19995117188
1487.75577312553	2755.80004882813
1488.38983269698	2756.60009765625
1489.02380990367	2761
1489.65770475311	2765.19995117188
1490.29151725281	2809.19995117188
1490.92524741029	2855.19995117188
1491.55889523306	2885.80004882813
1492.19246072863	2870
1492.82594390453	2888.19995117188
1493.45934476826	2883.19995117188
1494.09266332734	2852.19995117188
1494.72589958928	2887.60009765625
1495.3590535616	2895
1495.99212525181	2898.60009765625
1496.62511466741	2927.80004882813
1497.25802181592	2931
1497.89084670485	2938
1498.52358934172	2918.80004882813
1499.15624973403	2913.19995117188
1499.7888278893	2909.39990234375
1500.42132381503	2915.39990234375
1501.05373751873	2954.80004882813
1501.68606900792	2986
1502.31831829009	3033.60009765625
1502.95048537277	3047.60009765625
1503.58257026346	3078.19995117188
1504.21457296966	3148.60009765625
1504.84649349889	3202.60009765625
1505.47833185864	3261
1506.11008805644	3248.60009765625
1506.74176209978	3257.60009765625
1507.37335399617	3222.39990234375
1508.00486375312	3203.19995117188
1508.63629137813	3140.19995117188
1509.2676368787	3128.80004882813
1509.89890026235	3089.39990234375
1510.53008153658	3091.80004882813
1511.16118070889	3089.19995117188
1511.79219778677	3099.39990234375
1512.42313277775	3090.60009765625
1513.05398568932	3099
1513.68475652898	3105.19995117188
1514.31544530424	3092.39990234375
1514.9460520226	3074.80004882813
1515.57657669155	3059.80004882813
1516.20701931861	2987.80004882813
1516.83737991127	2979
1517.46765847702	2932.39990234375
1518.09785502339	2930.19995117188
1518.72796955785	2932.39990234375
1519.35800208792	2933.60009765625
1519.98795262109	2923.39990234375
1520.61782116486	2931
1521.24760772673	2923.39990234375
1521.87731231419	2935.80004882813
1522.50693493475	2925.60009765625
1523.1364755959	2907.39990234375
1523.76593430514	2913.80004882813
1524.39531106997	2906.60009765625
1525.02460589788	2896.39990234375
1525.65381879637	2895
1526.28294977293	2870.19995117188
1526.91199883507	2855.39990234375
1527.54096599027	2822
1528.16985124603	2806.39990234375
1528.79865460984	2801
1529.4273760892	2807.80004882813
1530.05601569161	2826.80004882813
1530.68457342455	2855.60009765625
1531.31304929552	2864
1531.94144331201	2886.39990234375
1532.56975548151	2893.19995117188
1533.19798581152	2912.80004882813
1533.82613430953	2922.80004882813
1534.45420098302	2885.19995117188
1535.08218583949	2909
1535.71008888643	2893.19995117188
1536.33791013134	2860.80004882813
1536.96564958169	2850
1537.59330724498	2862.19995117188
1538.22088312871	2862.39990234375
1538.84837724034	2835.19995117188
1539.47578958739	2856.19995117188
1540.10312017733	2820.60009765625
1540.73036901765	2825.19995117188
1541.35753611584	2806.19995117188
1541.98462147939	2812.60009765625
1542.61162511578	2812.19995117188
1543.2385470325	2782.80004882813
1543.86538723704	2794.60009765625
1544.49214573688	2756.39990234375
1545.11882253951	2773.39990234375
1545.74541765241	2799.39990234375
1546.37193108306	2815
1546.99836283896	2778.39990234375
1547.62471292758	2808.60009765625
1548.25098135641	2783
1548.87716813294	2746.60009765625
1549.50327326464	2724.19995117188
1550.12929675899	2716.39990234375
1550.75523862349	2744.39990234375
1551.38109886561	2732.19995117188
1552.00687749284	2720.19995117188
1552.63257451264	2753
1553.25818993252	2750
1553.88372375994	2772.60009765625
1554.50917600239	2766.80004882813
1555.13454666734	2737
1555.75983576228	2673.80004882813
1556.38504329469	2687.19995117188
1557.01016927204	2658.60009765625
1557.63521370181	2660.19995117188
1558.26017659149	2655
1558.88505794854	2641.19995117188
1559.50985778045	2667.60009765625
1560.13457609469	2681.60009765625
1560.75921289874	2671.80004882813
1561.38376820008	2681.60009765625
1562.00824200618	2674.39990234375
1562.63263432452	2674.39990234375
1563.25694516257	2710.19995117188
1563.88117452781	2705.39990234375
1564.50532242772	2711.80004882813
1565.12938886976	2689.80004882813
1565.75337386141	2716.60009765625
1566.37727741015	2717.39990234375
1567.00109952345	2728
1567.62484020878	2738.19995117188
1568.24849947361	2748.39990234375
1568.87207732542	2756.19995117188
1569.49557377168	2774.80004882813
1570.11898881986	2809.19995117188
1570.74232247743	2815.19995117188
1571.36557475186	2840.19995117188
1571.98874565062	2840
1572.61183518119	2879.19995117188
1573.23484335103	2916.60009765625
1573.85777016761	2936
1574.4806156384	2958.39990234375
1575.10337977088	2965.39990234375
1575.7260625725	2978
1576.34866405074	2974.39990234375
1576.97118421306	2943.39990234375
1577.59362306694	2930.19995117188
1578.21598061984	2904.19995117188
1578.83825687922	2879
1579.46045185255	2839.19995117188
1580.08256554731	2814.80004882813
1580.70459797094	2797.39990234375
1581.32654913093	2785.39990234375
1581.94841903473	2742.80004882813
1582.57020768981	2714.39990234375
1583.19191510364	2680.39990234375
1583.81354128367	2647.60009765625
1584.43508623737	2637.19995117188
1585.05654997221	2618
1585.67793249564	2621.80004882813
1586.29923381514	2609.39990234375
1586.92045393815	2602.19995117188
1587.54159287216	2572.39990234375
1588.1626506246	2584.80004882813
1588.78362720296	2607
1589.40452261468	2595.39990234375
1590.02533686724	2581.39990234375
1590.64606996808	2570
1591.26672192467	2567.19995117188
1591.88729274447	2561.39990234375
1592.50778243493	2559.19995117188
1593.12819100352	2554.80004882813
1593.7485184577	2562.19995117188
1594.36876480492	2565.80004882813
1594.98893005264	2544.19995117188
1595.60901420832	2542
1596.22901727941	2544.19995117188
1596.84893927338	2548.60009765625
1597.46878019767	2601.60009765625
1598.08854005975	2606.39990234375
1598.70821886707	2621.39990234375
1599.32781662708	2648.60009765625
1599.94733334725	2617.19995117188
1600.56676903502	2608.80004882813
1601.18612369785	2590.80004882813
1601.8053973432	2572.60009765625
1602.42458997851	2553.60009765625
1603.04370161124	2552.60009765625
1603.66273224884	2536
1604.28168189878	2525.39990234375
1604.90055056849	2517.60009765625
1605.51933826543	2494.60009765625
1606.13804499705	2495.80004882813
1606.75667077081	2501.19995117188
1607.37521559415	2450.80004882813
1607.99367947452	2490.80004882813
1608.61206241938	2483.19995117188
1609.23036443618	2491
1609.84858553236	2483
1610.46672571537	2479.80004882813
1611.08478499267	2493
1611.7027633717	2497.60009765625
1612.3206608599	2503
1612.93847746473	2489
1613.55621319364	2468.60009765625
1614.17386805407	2465
1614.79144205347	2445.19995117188
1615.40893519928	2437.19995117188
1616.02634749895	2447
1616.64367895993	2444.19995117188
1617.26092958966	2439.39990234375
1617.87809939559	2434
1618.49518838516	2432.39990234375
1619.11219656582	2423.39990234375
1619.729123945	2422.39990234375
1620.34597053016	2418.80004882813
1620.96273632874	2409.39990234375
1621.57942134818	2390.39990234375
1622.19602559592	2403.60009765625
1622.8125490794	2374.39990234375
1623.42899180607	2392.19995117188
1624.04535378337	2389.39990234375
1624.66163501874	2392.39990234375
1625.27783551963	2393
1625.89395529346	2409.80004882813
1626.50999434768	2406
1627.12595268974	2399.80004882813
1627.74183032707	2399.60009765625
1628.3576272671	2396.80004882813
1628.97334351729	2356.60009765625
1629.58897908506	2365
1630.20453397786	2374.19995117188
1630.82000820313	2387.60009765625
1631.43540176829	2395.60009765625
1632.05071468079	2391.39990234375
1632.66594694807	2395.39990234375
1633.28109857756	2425
1633.8961695767	2416.80004882813
1634.51115995292	2402.80004882813
1635.12606971366	2400.80004882813
1635.74089886636	2416.80004882813
1636.35564741844	2425.80004882813
1636.97031537734	2425.80004882813
1637.58490275051	2448.60009765625
1638.19940954536	2446.19995117188
1638.81383576934	2456.19995117188
1639.42818142987	2455
1640.0424465344	2480
1640.65663109034	2511
1641.27073510515	2531
1641.88475858623	2519.60009765625
1642.49870154104	2534.60009765625
1643.11256397699	2539.80004882813
1643.72634590152	2533.60009765625
1644.34004732206	2560.60009765625
1644.95366824604	2593
1645.56720868089	2604.19995117188
1646.18066863404	2652
1646.79404811291	2662
1647.40734712494	2673.80004882813
1648.02056567755	2654.60009765625
1648.63370377817	2663.39990234375
1649.24676143423	2674.39990234375
1649.85973865316	2683.60009765625
1650.47263544238	2678.19995117188
1651.08545180932	2647.80004882813
1651.6981877614	2642.60009765625
1652.31084330606	2632.19995117188
1652.92341845071	2614
1653.53591320278	2602
1654.1483275697	2589
1654.7606615589	2580.80004882813
1655.37291517778	2551.80004882813
1655.98508843379	2522
1656.59718133434	2511.39990234375
1657.20919388685	2486.39990234375
1657.82112609875	2455.39990234375
1658.43297797747	2424.80004882813
1659.04474953041	2431.19995117188
1659.65644076501	2393
1660.26805168869	2384.80004882813
1660.87958230886	2365.80004882813
1661.49103263294	2317.19995117188
1662.10240266837	2310.39990234375
1662.71369242255	2301.19995117188
1663.32490190291	2299.60009765625
1663.93603111687	2281.39990234375
1664.54708007184	2261.80004882813
1665.15804877524	2258.19995117188
1665.7689372345	2251
1666.37974545703	2273.39990234375
1666.99047345024	2272.80004882813
1667.60112122156	2288
1668.2116887784	2266.80004882813
1668.82217612818	2242.80004882813
1669.43258327831	2244.19995117188
1670.04291023622	2218.19995117188
1670.65315700931	2165
1671.263323605	2119
1671.8734100307	2117
1672.48341629384	2086
1673.09334240182	2087.80004882813
1673.70318836206	2085.39990234375
1674.31295418197	2062.19995117188
1674.92263986896	2076
1675.53224543046	2067
1676.14177087386	2083.80004882813
1676.75121620658	2073.60009765625
1677.36058143604	2096.39990234375
1677.96986656964	2110.19995117188
1678.5790716148	2111.80004882813
1679.18819657892	2110.19995117188
1679.79724146943	2111.19995117188
1680.40620629372	2104.80004882813
1681.0150910592	2136.80004882813
1681.6238957733	2142.39990234375
1682.23262044341	2169
1682.84126507694	2173
1683.4498296813	2173.60009765625
1684.0583142639	2174.60009765625
1684.66671883216	2178
1685.27504339346	2172.60009765625
1685.88328795523	2173.80004882813
1686.49145252487	2163.39990234375
1687.09953710978	2153.19995117188
1687.70754171737	2156.39990234375
1688.31546635505	2174.60009765625
1688.92331103021	2168.39990234375
1689.53107575028	2187.60009765625
1690.13876052265	2173.80004882813
1690.74636535472	2179.19995117188
1691.3538902539	2159.60009765625
1691.96133522759	2150.39990234375
1692.5687002832	2137.39990234375
1693.17598542812	2089.80004882813
1693.78319066977	2056.39990234375
1694.39031601554	2044.59997558594
1694.99736147283	2028.40002441406
1695.60432704905	2035.80004882813
1696.2112127516	2054.19995117188
1696.81801858788	2062.80004882813
1697.42474456528	2081.60009765625
1698.03139069121	2102
1698.63795697307	2092.80004882813
1699.24444341826	2059.80004882813
1699.85085003417	2076.60009765625
1700.45717682821	2062
1701.06342380778	2056
1701.66959098026	2049.39990234375
1702.27567835307	2024.59997558594
1702.88168593359	2045.19995117188
1703.48761372922	2033
1704.09346174737	2014.80004882813
1704.69922999542	2012.80004882813
1705.30491848077	2018.59997558594
1705.91052721083	2014.19995117188
1706.51605619297	2032.59997558594
1707.12150543461	2023.19995117188
1707.72687494312	2011.80004882813
1708.33216472592	2012.40002441406
1708.93737479039	2000.59997558594
1709.54250514392	1991
