634.977642221345	3166.39990234375
635.719821695905	3208.39990234375
636.461909203392	3241
637.203904751776	3225.19995117188
637.945808349023	3236.39990234375
638.687620003102	3270
639.42933972198	3313.60009765625
640.170967513616	3295.60009765625
640.912503385981	3269.39990234375
641.653947347041	3245.19995117188
642.395299404758	3215.19995117188
643.13655956709	3188.39990234375
643.877727842014	3136.19995117188
644.61880423748	3087.19995117188
645.359788761455	3089.80004882813
646.100681421905	3087.60009765625
646.841482226789	3134.19995117188
647.582191184074	3148
648.322808301711	3165.60009765625
649.06333358767	3130
649.803767049909	3144.19995117188
650.544108696385	3152.39990234375
651.28435853506	3190.80004882813
652.024516573894	3206.80004882813
652.764582820849	3230.19995117188
653.504557283875	3258.39990234375
654.244439970937	3293.80004882813
654.984230889991	3307.60009765625
655.723930048995	3310.39990234375
656.463537455909	3313
657.203053118683	3345.80004882813
657.942477045275	3349.60009765625
658.681809243647	3366
659.421049721747	3359.60009765625
660.160198487535	3335.60009765625
660.899255548962	3332.80004882813
661.638220913985	3359.80004882813
662.377094590559	3329.19995117188
663.115876586631	3370.39990234375
663.854566910165	3368.60009765625
664.593165569107	3352.39990234375
665.331672571406	3334.39990234375
666.07008792502	3327.19995117188
666.808411637902	3288.80004882813
667.546643717996	3227
668.284784173258	3225
669.022833011641	3230.80004882813
669.760790241089	3224.80004882813
670.498655869554	3209.19995117188
671.236429904987	3202
671.97411235534	3204.60009765625
672.711703228551	3233
673.449202532577	3263.60009765625
674.186610275364	3315.80004882813
674.923926464857	3345.39990234375
675.661151109008	3378.19995117188
676.398284215759	3381.19995117188
677.135325793058	3409
677.87227584885	3416
678.609134391082	3437.19995117188
679.345901427696	3457.39990234375
680.082576966644	3469.39990234375
680.819161015861	3463.80004882813
681.555653583298	3399.39990234375
682.292054676895	3378.60009765625
683.028364304594	3367
683.764582474344	3307.60009765625
684.500709194083	3280.80004882813
685.236744471752	3287.39990234375
685.972688315294	3274.80004882813
686.708540732652	3271.39990234375
687.444301731762	3288.19995117188
688.179971320572	3310.60009765625
688.915549507013	3293.39990234375
689.651036299034	3268.80004882813
690.386431704569	3271
691.121735731559	3256.80004882813
691.85694838794	3214.19995117188
692.592069681652	3195.80004882813
693.327099620632	3167.60009765625
694.062038212821	3171.39990234375
694.796885466149	3221.19995117188
695.531641388561	3280.39990234375
696.266305987987	3331.19995117188
697.000879272367	3366
697.735361249632	3384.39990234375
698.469751927722	3413
699.204051314568	3379.39990234375
699.938259418107	3378
700.672376246272	3360
701.406401806997	3353
702.140336108212	3348.60009765625
702.874179157855	3347.60009765625
703.607930963856	3361.39990234375
704.341591534147	3368.60009765625
705.07516087666	3372.80004882813
705.808638999324	3399.60009765625
706.542025910073	3432
707.275321616841	3418
708.008526127549	3424.19995117188
708.741639450132	3405.80004882813
709.474661592521	3373.39990234375
710.207592562641	3396
710.940432368424	3366
711.673181017796	3367.39990234375
712.405838518687	3367.80004882813
713.138404879025	3331.39990234375
713.870880106731	3374.60009765625
714.603264209738	3360.80004882813
715.335557195971	3391.80004882813
716.067759073357	3399
716.799869849816	3415.19995117188
717.531889533281	3406.80004882813
718.263818131673	3437.80004882813
718.995655652917	3404.60009765625
719.727402104934	3377
720.45905749565	3356.39990234375
721.19062183299	3350.39990234375
721.922095124877	3336.19995117188
722.653477379231	3326
723.384768603973	3317.19995117188
724.11596880703	3332.39990234375
724.847077996319	3323.60009765625
725.578096179762	3338.80004882813
726.309023365281	3360.39990234375
727.039859560792	3345.80004882813
727.770604774222	3359.39990234375
728.501259013484	3372.60009765625
729.231822286501	3418.19995117188
729.962294601191	3382.80004882813
730.692675965469	3395.60009765625
731.42296638726	3329
732.153165874472	3341.60009765625
732.883274435032	3356.19995117188
733.613292076851	3415.39990234375
734.343218807843	3429.60009765625
735.07305463593	3440.19995117188
735.802799569028	3394.80004882813
736.532453615048	3357.19995117188
737.262016781904	3327.39990234375
737.991489077517	3333.39990234375
738.720870509794	3324.80004882813
739.450161086654	3331.39990234375
740.179360816009	3343
740.908469705772	3373.60009765625
741.637487763854	3425.60009765625
742.366414998168	3464.39990234375
743.095251416623	3487.19995117188
743.823997027137	3487.60009765625
744.552651837618	3466
745.281215855978	3473.60009765625
746.009689090124	3450.80004882813
746.738071547964	3384.39990234375
747.466363237419	3393.60009765625
748.194564166384	3374.60009765625
748.92267434278	3386.19995117188
749.650693774504	3385.19995117188
750.378622469476	3389.39990234375
751.106460435596	3390.80004882813
751.834207680771	3440
752.561864212909	3457
753.289430039919	3451.39990234375
754.016905169707	3437.19995117188
754.744289610175	3446
755.471583369231	3459.19995117188
756.198786454782	3440.39990234375
756.925898874728	3452.19995117188
757.652920636979	3448.60009765625
758.379851749433	3433.60009765625
759.106692219996	3473
759.833442056572	3494
760.560101267063	3568
761.28666985937	3581.60009765625
762.0131478414	3575.60009765625
762.739535221046	3608.80004882813
763.465832006219	3608.60009765625
764.192038204812	3625.39990234375
764.918153824731	3605.39990234375
765.644178873872	3592.39990234375
766.370113360138	3635.80004882813
767.095957291425	3706.39990234375
767.821710675635	3794.19995117188
768.547373520665	3892.60009765625
769.272945834415	3959
769.998427624781	4018.39990234375
770.723818899658	4027.19995117188
771.449119666949	4079.19995117188
772.174329934546	4117
772.899449710347	4128.60009765625
773.624479002248	4169
774.349417818145	4166.7998046875
775.074266165934	4129.39990234375
775.799024053505	4128.60009765625
776.523691488757	4056.80004882813
777.248268479582	4002.80004882813
777.972755033877	3913.80004882813
778.69715115953	3869.60009765625
779.421456864441	3775.19995117188
780.145672156493	3707
780.869797043587	3692.19995117188
781.593831533611	3640.80004882813
782.317775634457	3646
783.041629354012	3612.60009765625
783.765392700174	3581.39990234375
784.489065680828	3528
785.212648303866	3484.80004882813
785.936140577177	3472.80004882813
786.659542508652	3486.39990234375
787.382854106174	3488.19995117188
788.106075377639	3485.39990234375
788.829206330928	3482.80004882813
789.552246973933	3513.60009765625
790.275197314542	3539.60009765625
790.998057360638	3541.39990234375
791.720827120108	3524.80004882813
792.443506600841	3525
793.166095810722	3514.80004882813
793.888594757635	3455
794.611003449465	3460.60009765625
795.333321894098	3474.39990234375
796.055550099417	3497
796.777688073308	3545.80004882813
797.499735823654	3549
798.221693358334	3515.80004882813
798.943560685235	3510.19995117188
799.665337812239	3495.19995117188
800.387024747226	3476.39990234375
801.108621498075	3466.39990234375
801.830128072674	3489.19995117188
802.551544478902	3480
803.272870724636	3493.39990234375
803.994106817761	3475.39990234375
804.715252766148	3431.60009765625
805.436308577687	3439.19995117188
806.157274260251	3416.80004882813
806.878149821721	3387.39990234375
807.598935269973	3356.39990234375
808.319630612886	3364.80004882813
809.040235858336	3404
809.760751014202	3415.19995117188
810.481176088361	3425.19995117188
811.201511088685	3398.60009765625
811.921756023059	3406.39990234375
812.641910899347	3411.19995117188
813.361975725432	3391.19995117188
814.081950509188	3421.19995117188
814.801835258489	3407.19995117188
815.521629981206	3397.39990234375
816.241334685218	3414.19995117188
816.960949378392	3382.80004882813
817.680474068606	3396.80004882813
818.399908763731	3383.80004882813
819.11925347164	3380.80004882813
819.838508200202	3369.19995117188
820.55767295729	3365.39990234375
821.276747750778	3328.19995117188
821.995732588531	3310.60009765625
822.714627478425	3309.39990234375
823.433432428327	3331.19995117188
824.152147446105	3360.80004882813
824.870772539632	3394.19995117188
825.589307716775	3419
826.307752985404	3430.19995117188
827.026108353378	3447.80004882813
827.744373828579	3413.39990234375
828.462549418867	3420.19995117188
829.180635132107	3423.60009765625
829.898630976168	3445.39990234375
830.616536958915	3480.60009765625
831.334353088218	3488.39990234375
832.052079371938	3486
832.769715817942	3451.60009765625
833.487262434092	3428
834.204719228255	3417
834.922086208293	3359.60009765625
835.639363382073	3374.80004882813
836.356550757456	3415
837.073648342304	3408.60009765625
837.790656144484	3445.39990234375
838.507574171847	3458.19995117188
839.22440243227	3423.60009765625
839.941140933601	3415.80004882813
840.657789683706	3421.19995117188
841.374348690448	3427
842.090817961686	3418
842.807197505276	3415.39990234375
843.523487329083	3460.60009765625
844.23968744096	3418.60009765625
844.955797848771	3405.60009765625
845.671818560374	3412.19995117188
846.387749583622	3409
847.103590926378	3418.80004882813
847.819342596497	3391
848.535004601833	3363.80004882813
849.25057695025	3351.19995117188
849.966059649598	3299.19995117188
850.681452707735	3300.80004882813
851.396756132513	3302
852.111969931789	3310.39990234375
852.827094113419	3333.60009765625
853.542128685257	3360.60009765625
854.257073655158	3423
854.971929030969	3467.19995117188
855.686694820551	3432.39990234375
856.40137103175	3443.80004882813
857.115957672423	3440.39990234375
857.830454750423	3414.19995117188
858.544862273597	3410.60009765625
859.259180249797	3397.39990234375
859.97340868688	3388.19995117188
860.687547592688	3412
861.401596975075	3441.60009765625
862.115556841891	3446.60009765625
862.829427200985	3433
863.543208060205	3471
864.256899427402	3442
864.970501310423	3413
865.684013717114	3391.80004882813
866.397436655325	3399.80004882813
867.110770132901	3419.39990234375
867.824014157691	3373.80004882813
868.537168737542	3402.19995117188
869.250233880299	3402
869.963209593803	3410.60009765625
870.676095885902	3385.80004882813
871.388892764445	3393.19995117188
872.101600237276	3386.19995117188
872.814218312233	3379
873.526746997165	3357.80004882813
874.239186299914	3361.19995117188
874.951536228323	3364.80004882813
875.663796790231	3355.60009765625
876.375967993487	3356.39990234375
877.088049845928	3353.80004882813
877.8000423554	3312
878.511945529739	3319.19995117188
879.22375937679	3333.39990234375
879.935483904388	3325.19995117188
880.64711912038	3329.19995117188
881.358665032604	3337.39990234375
882.070121648892	3314
882.78148897709	3316.60009765625
883.492767025039	3307.80004882813
884.203955800571	3321
884.915055311525	3317.39990234375
885.626065565741	3305.60009765625
886.336986571053	3305.19995117188
887.047818335298	3296.80004882813
887.758560866315	3282.80004882813
888.469214171937	3283.80004882813
889.179778260005	3318.39990234375
889.890253138347	3294.39990234375
890.600638814803	3277.60009765625
891.310935297204	3263.60009765625
892.021142593385	3244.80004882813
892.731260711183	3274.19995117188
893.441289658429	3277
894.15122944295	3288.80004882813
894.861080072591	3337.19995117188
895.570841555173	3350.80004882813
896.280513898534	3352.80004882813
896.990097110503	3362.19995117188
897.699591198913	3356
898.408996171595	3391
899.118312036375	3386
899.827538801089	3399.39990234375
900.536676473561	3358.39990234375
901.245725061628	3344.39990234375
901.954684573109	3350.19995117188
902.663555015838	3390.39990234375
903.372336397644	3390.19995117188
904.081028726351	3439.60009765625
904.789632009793	3424.39990234375
905.49814625579	3461
906.20657147217	3449.39990234375
906.914907666765	3438.19995117188
907.623154847391	3441.39990234375
908.331313021885	3396
909.039382198064	3385.60009765625
909.747362383754	3372.39990234375
910.455253586782	3411.60009765625
911.163055814972	3432.80004882813
911.870769076143	3400.19995117188
912.578393378126	3377.19995117188
913.285928728738	3359.19995117188
913.993375135802	3366.19995117188
914.700732607145	3365.80004882813
915.408001150579	3375
916.115180773937	3415.60009765625
916.822271485037	3408.60009765625
917.529273291693	3441.80004882813
918.236186201733	3429.60009765625
918.943010222971	3436.60009765625
919.649745363234	3441.39990234375
920.356391630333	3399.60009765625
921.062949032096	3382.60009765625
921.769417576333	3351.80004882813
922.475797270864	3347.60009765625
923.182088123512	3346.19995117188
923.888290142089	3355.60009765625
924.594403334414	3368.60009765625
925.300427708304	3407
926.006363271572	3398.60009765625
926.712210032039	3423.80004882813
927.417967997522	3425
928.123637175827	3429.80004882813
928.829217574776	3396.19995117188
929.534709202184	3385.39990234375
930.240112065859	3401.60009765625
930.945426173621	3390.80004882813
931.650651533283	3377.19995117188
932.355788152653	3350
933.060836039547	3336.60009765625
933.765795201776	3323.19995117188
934.470665647153	3320.60009765625
935.175447383492	3325
935.880140418599	3327.19995117188
936.584744760286	3332.80004882813
937.289260416366	3357.19995117188
937.993687394647	3359
938.698025702939	3421.60009765625
939.402275349051	3434.39990234375
940.106436340793	3447
940.810508685976	3489.39990234375
941.5144923924	3421.39990234375
942.21838746788	3418.60009765625
942.922193920223	3357.39990234375
943.625911757231	3356
944.329540986716	3314.80004882813
945.033081616484	3308.19995117188
945.736533654334	3252.80004882813
946.439897108083	3248.19995117188
947.143171985529	3241.80004882813
947.846358294477	3239.80004882813
948.549456042732	3251.80004882813
949.2524652381	3266.60009765625
949.955385888382	3302
950.658218001384	3317
951.360961584907	3333.39990234375
952.063616646755	3333.19995117188
952.766183194733	3337.80004882813
953.468661236636	3324.39990234375
954.171050780271	3337
954.873351833437	3308.60009765625
955.575564403935	3298.39990234375
956.277688499565	3288
956.97972412813	3287.39990234375
957.681671297424	3283.19995117188
958.383530015255	3288.80004882813
959.085300289414	3294.19995117188
959.786982127703	3276.60009765625
960.488575537918	3286.19995117188
961.190080527859	3249.39990234375
961.891497105327	3245.80004882813
962.592825278111	3223.80004882813
963.294065054012	3234.19995117188
963.995216440829	3249
964.696279446353	3283.80004882813
965.397254078383	3285.39990234375
966.098140344714	3313.19995117188
966.798938253139	3279.60009765625
967.499647811456	3284.60009765625
968.200269027458	3278.19995117188
968.900801908937	3279
969.601246463685	3261
970.3016026995	3276.60009765625
971.001870624169	3239.19995117188
971.702050245491	3223.60009765625
972.402141571249	3230.80004882813
973.102144609245	3203
973.802059367267	3229.80004882813
974.501885853103	3217.39990234375
975.201624074541	3229.39990234375
975.901274039379	3252.19995117188
976.600835755399	3260.39990234375
977.3003092304	3271.19995117188
977.999694472158	3237.39990234375
978.698991488473	3226.19995117188
979.39820028713	3228.19995117188
980.097320875915	3237
980.796353262618	3258.19995117188
981.495297455024	3259.19995117188
982.194153460919	3298.19995117188
982.892921288093	3310
983.591600944331	3304
984.290192437419	3302
984.98869577514	3302.60009765625
985.687110965282	3293.80004882813
986.385438015629	3257.80004882813
987.083676933961	3245.60009765625
987.781827728069	3223
988.479890405732	3259.60009765625
989.177864974732	3228.80004882813
989.875751442857	3230.60009765625
990.573549817888	3255
991.271260107602	3259.80004882813
991.968882319786	3247.60009765625
992.666416462217	3230
993.363862542681	3240.80004882813
994.061220568959	3220.39990234375
994.758490548823	3190.60009765625
995.455672490061	3192.80004882813
996.152766400451	3230.60009765625
996.849772287773	3237.80004882813
997.5466901598	3228.60009765625
998.243520024317	3245
998.940261889097	3202.19995117188
999.636915761923	3175.19995117188
1000.33348165057	3158.80004882813
1001.02995956281	3154.19995117188
1001.72634950643	3164
1002.42265148919	3183.60009765625
1003.11886551889	3187.60009765625
1003.81499160328	3228.60009765625
1004.51102975015	3258
1005.20697996727	3269.60009765625
1005.90284226242	3269
1006.59861664337	3246.80004882813
1007.2943031179	3266
1007.98990169377	3285.19995117188
1008.68541237876	3332
1009.38083518064	3339.19995117188
1010.07617010719	3370.39990234375
1010.77141716617	3376
1011.46657636536	3371.39990234375
1012.16164771253	3354.19995117188
1012.85663121546	3313.60009765625
1013.5515268819	3280.39990234375
1014.24633471963	3233
1014.94105473642	3194.60009765625
1015.63568694004	3202.80004882813
1016.33023133826	3224.80004882813
1017.02468793885	3251.80004882813
1017.71905674957	3259.39990234375
1018.41333777819	3255.39990234375
1019.10753103249	3251.39990234375
1019.80163652022	3259.80004882813
1020.49565424916	3255.80004882813
1021.18958422707	3260.60009765625
1021.88342646171	3245.60009765625
1022.57718096085	3264.80004882813
1023.27084773227	3298
1023.96442678371	3280.39990234375
1024.65791812296	3242
1025.35132175776	3174.60009765625
1026.04463769589	3143
1026.73786594511	3110.80004882813
1027.43100651318	3130.80004882813
1028.12405940786	3134
1028.81702463692	3123.19995117188
1029.50990220812	3146
1030.20269212921	3155.60009765625
1030.89539440798	3171.19995117188
1031.58800905216	3150.19995117188
1032.28053606952	3097.19995117188
1032.97297546784	3116
1033.66532725485	3142.80004882813
1034.35759143832	3161
1035.04976802602	3174
1035.7418570257	3164.60009765625
1036.43385844511	3175.80004882813
1037.12577229202	3168
1037.81759857419	3169
1038.50933729937	3200.60009765625
1039.20098847531	3196.19995117188
1039.89255210978	3221.60009765625
1040.58402821053	3234.80004882813
1041.27541678532	3215.60009765625
1041.96671784191	3153.60009765625
1042.65793138804	3121.39990234375
1043.34905743147	3156.19995117188
1044.04009597996	3165.60009765625
1044.73104704125	3184.60009765625
1045.42191062312	3212.39990234375
1046.1126867333	3219.39990234375
1046.80337537955	3213.19995117188
1047.49397656962	3197.60009765625
1048.18449031127	3195.39990234375
1048.87491661225	3157.19995117188
1049.5652554803	3115.39990234375
1050.25550692319	3068.80004882813
1050.94567094865	3077.60009765625
1051.63574756444	3078.19995117188
1052.32573677832	3116
1053.01563859803	3142.80004882813
1053.70545303131	3136.19995117188
1054.39518008592	3146.80004882813
1055.08481976961	3118
1055.77437209013	3136.80004882813
1056.46383705522	3131
1057.15321467262	3129.39990234375
1057.8425049501	3137.39990234375
1058.53170789539	3110.19995117188
1059.22082351624	3110.60009765625
1059.9098518204	3092.60009765625
1060.59879281561	3110.60009765625
1061.28764650962	3099.60009765625
1061.97641291016	3114.39990234375
1062.665092025	3155.39990234375
1063.35368386187	3145.39990234375
1064.04218842851	3139.60009765625
1064.73060573268	3102.19995117188
1065.4189357821	3044.39990234375
1066.10717858452	3041.80004882813
1066.7953341477	3047.60009765625
1067.48340247936	3035.39990234375
1068.17138358725	3016
1068.85927747912	3053.80004882813
1069.5470841627	3079.39990234375
1070.23480364573	3096.60009765625
1070.92243593595	3128.39990234375
1071.60998104111	3143.60009765625
1072.29743896894	3134.19995117188
1072.98480972718	3138
1073.67209332357	3120.80004882813
1074.35928976585	3127.60009765625
1075.04639906176	3150
1075.73342121903	3182.39990234375
1076.42035624541	3163
1077.10720414862	3171
1077.79396493641	3196.39990234375
1078.48063861651	3196.39990234375
1079.16722519666	3196.80004882813
1079.85372468459	3171.80004882813
1080.54013708804	3124
1081.22646241474	3104.80004882813
1081.91270067243	3110
1082.59885186884	3141.19995117188
1083.28491601171	3127.60009765625
1083.97089310877	3206.19995117188
1084.65678316774	3207.80004882813
1085.34258619637	3205.39990234375
1086.02830220239	3205.39990234375
1086.71393119352	3210.39990234375
1087.39947317751	3203.39990234375
1088.08492816207	3216.39990234375
1088.77029615495	3210
1089.45557716387	3198
1090.14077119656	3211.39990234375
1090.82587826075	3199.60009765625
1091.51089836417	3193.39990234375
1092.19583151456	3154.19995117188
1092.88067771963	3159.19995117188
1093.56543698712	3146.19995117188
1094.25010932475	3140.19995117188
1094.93469474026	3140.60009765625
1095.61919324137	3133.60009765625
1096.3036048358	3139.19995117188
1096.98792953129	3123
1097.67216733555	3135
1098.35631825632	3150.39990234375
1099.04038230132	3132.80004882813
1099.72435947828	3127
1100.40824979492	3088
1101.09205325895	3089.39990234375
1101.77576987812	3049.39990234375
1102.45939966014	3057.19995117188
1103.14294261273	3023.39990234375
1103.82639874362	3009.39990234375
1104.50976806054	2970.60009765625
1105.19305057119	2975.19995117188
1105.87624628331	3025.60009765625
1106.55935520461	3054
1107.24237734283	3037.39990234375
1107.92531270566	3055.19995117188
1108.60816130085	3064.60009765625
1109.2909231361	3093.60009765625
1109.97359821914	3091.39990234375
1110.65618655768	3135
1111.33868815946	3167.60009765625
1112.02110303217	3201.60009765625
1112.70343118355	3167
1113.3856726213	3206.60009765625
1114.06782735316	3194.80004882813
1114.74989538683	3161.60009765625
1115.43187673002	3131
1116.11377139047	3122.60009765625
1116.79557937588	3116.60009765625
1117.47730069397	3106
1118.15893535245	3125.80004882813
1118.84048335904	3149.19995117188
1119.52194472146	3169.80004882813
1120.20331944741	3136
1120.88460754462	3146
1121.56580902079	3136.39990234375
1122.24692388364	3136.80004882813
1122.92795214088	3153.80004882813
1123.60889380022	3178.39990234375
1124.28974886938	3220.60009765625
1124.97051735606	3239.39990234375
1125.65119926799	3288.19995117188
1126.33179461286	3292.19995117188
1127.0123033984	3333
1127.6927256323	3317.80004882813
1128.37306132229	3268.39990234375
1129.05331047606	3310.39990234375
1129.73347310134	3284.19995117188
1130.41354920582	3263
1131.09353879722	3225
1131.77344188324	3208.60009765625
1132.45325847159	3222
1133.13298856999	3230.39990234375
1133.81263218612	3234.80004882813
1134.49218932772	3220.60009765625
1135.17166000247	3166.19995117188
1135.85104421809	3129.60009765625
1136.53034198227	3108
1137.20955330274	3091.39990234375
1137.88867818718	3045
1138.56771664331	3036.19995117188
1139.24666867883	3030.39990234375
1139.92553430144	3051.80004882813
1140.60431351885	3061
1141.28300633876	3111.60009765625
1141.96161276887	3129.39990234375
1142.64013281689	3154.39990234375
1143.31856649051	3154.60009765625
1143.99691379744	3166.60009765625
1144.67517474538	3135.60009765625
1145.35334934203	3116.39990234375
1146.03143759509	3113.80004882813
1146.70943951226	3091.39990234375
1147.38735510125	3072
1148.06518436974	3029.39990234375
1148.74292732545	3036.19995117188
1149.42058397606	3017.80004882813
1150.09815432928	3017.19995117188
1150.7756383928	2994
1151.45303617432	3031.19995117188
1152.13034768155	3047.19995117188
1152.80757292217	3088.39990234375
1153.48471190389	3092.80004882813
1154.16176463439	3121.80004882813
1154.83873112138	3106.39990234375
1155.51561137255	3109.60009765625
1156.1924053956	3090.80004882813
1156.86911319822	3096.60009765625
1157.5457347881	3108.19995117188
1158.22227017294	3108
1158.89871936044	3114
1159.57508235828	3094.39990234375
1160.25135917416	3102
1160.92754981578	3059.80004882813
1161.60365429081	3098.19995117188
1162.27967260697	3099.80004882813
1162.95560477193	3077
1163.63145079339	3063.19995117188
1164.30721067904	3054
1164.98288443657	3052.39990234375
1165.65847207367	3059.80004882813
1166.33397359803	3099
1167.00938901735	3092.80004882813
1167.6847183393	3126.80004882813
1168.35996157157	3113.39990234375
1169.03511872187	3134.80004882813
1169.71018979787	3152.80004882813
1170.38517480726	3163.39990234375
1171.06007375773	3134.60009765625
1171.73488665696	3096.80004882813
1172.40961351265	3085.80004882813
1173.08425433247	3070.19995117188
1173.75880912412	3085.60009765625
1174.43327789528	3127
1175.10766065364	3157.39990234375
1175.78195740687	3204.80004882813
1176.45616816267	3246.39990234375
1177.13029292871	3273.80004882813
1177.80433171269	3250.80004882813
1178.47828452229	3250.39990234375
1179.15215136518	3226.60009765625
1179.82593224905	3244.39990234375
1180.49962718159	3259.60009765625
1181.17323617047	3255.80004882813
1181.84675922337	3232.39990234375
1182.52019634799	3272.39990234375
1183.193547552	3293.19995117188
1183.86681284307	3321.19995117188
1184.53999222889	3337.60009765625
1185.21308571714	3329.80004882813
1185.8860933155	3358.80004882813
1186.55901503165	3331.19995117188
1187.23185087326	3364.19995117188
1187.90460084802	3340.19995117188
1188.5772649636	3349.60009765625
1189.24984322768	3346.19995117188
1189.92233564794	3317.60009765625
1190.59474223206	3323.19995117188
1191.2670629877	3335.19995117188
1191.93929792255	3343.60009765625
1192.61144704428	3341.39990234375
1193.28351036058	3342.60009765625
1193.9554878791	3289.39990234375
1194.62737960754	3249.39990234375
1195.29918555356	3231.80004882813
1195.97090572483	3239.80004882813
1196.64254012903	3244.19995117188
1197.31408877384	3244
1197.98555166693	3266.19995117188
1198.65692881596	3242
1199.32822022862	3229.19995117188
1199.99942591256	3192.19995117188
1200.67054587548	3199.60009765625
1201.34158012503	3158.60009765625
1202.01252866889	3154.19995117188
1202.68339151473	3141
1203.35416867021	3121.39990234375
1204.02486014301	3116.80004882813
1204.6954659408	3117.39990234375
1205.36598607124	3143
1206.03642054201	3143.19995117188
1206.70676936078	3143.19995117188
1207.3770325352	3122.80004882813
1208.04721007295	3126.80004882813
1208.7173019817	3129.60009765625
1209.38730826911	3101.80004882813
1210.05722894285	3061.39990234375
1210.72706401059	3054.19995117188
1211.39681347999	3044.39990234375
1212.06647735872	3028.19995117188
1212.73605565444	3034.39990234375
1213.40554837481	3023.19995117188
1214.07495552751	3041.39990234375
1214.74427712019	3030
1215.41351316052	3049.39990234375
1216.08266365617	3024.19995117188
1216.75172861479	3023
1217.42070804405	3005.39990234375
1218.0896019516	3027
1218.75841034513	3014
1219.42713323227	3034.39990234375
1220.0957706207	3082.39990234375
1220.76432251808	3075
1221.43278893207	3076.60009765625
1222.10116987032	3073.39990234375
1222.7694653405	3142
1223.43767535026	3119.80004882813
1224.10579990727	3128.19995117188
1224.77383901918	3087.19995117188
1225.44179269366	3055.60009765625
1226.10966093835	3061
1226.77744376093	3049.60009765625
1227.44514116904	3051.19995117188
1228.11275317034	3052.80004882813
1228.78027977249	3045.19995117188
1229.44772098315	3019
1230.11507680996	3015.60009765625
1230.7823472606	3026.80004882813
1231.44953234271	3018.19995117188
1232.11663206394	2988.39990234375
1232.78364643195	2993.80004882813
1233.4505754544	2983.39990234375
1234.11741913894	2994
1234.78417749322	2968.39990234375
1235.45085052489	3001
1236.11743824162	2973.19995117188
1236.78394065104	2965
1237.45035776082	2940
1238.1166895786	2972.19995117188
1238.78293611204	3009.19995117188
1239.44909736878	3005.60009765625
1240.11517335648	2985.60009765625
1240.78116408279	3001.60009765625
1241.44706955535	3007.19995117188
1242.11288978182	2986.80004882813
1242.77862476985	2984.19995117188
1243.44427452708	2938.19995117188
1244.10983906116	2939.60009765625
1244.77531837974	2930.39990234375
1245.44071249047	2939.80004882813
1246.106021401	2950.60009765625
1246.77124511898	2968.19995117188
1247.43638365204	2985.19995117188
1248.10143700783	2967
1248.76640519401	2971.19995117188
1249.43128821822	2980.19995117188
1250.0960860881	2968.19995117188
1250.76079881129	2975.39990234375
1251.42542639545	2969.60009765625
1252.08996884822	2928
1252.75442617723	2917.80004882813
1253.41879839014	2940
1254.08308549458	2971.80004882813
1254.74728749821	2996.60009765625
1255.41140440866	3030.60009765625
1256.07543623357	2998.39990234375
1256.73938298059	3019.60009765625
1257.40324465735	2985
1258.0670212715	2971.19995117188
1258.73071283068	2968.60009765625
1259.39431934253	2984.80004882813
1260.05784081468	2983.80004882813
1260.72127725479	2981
1261.38462867049	2963.80004882813
1262.0478950694	2976.80004882813
1262.71107645919	2953.19995117188
1263.37417284748	2965.60009765625
1264.03718424191	2994
1264.70011065011	2966
1265.36295207974	2958
1266.02570853841	2985
1266.68838003378	2989.60009765625
1267.35096657346	2974.19995117188
1268.01346816511	2932.39990234375
1268.67588481636	2924.60009765625
1269.33821653483	2916
1270.00046332817	2940.39990234375
1270.66262520401	2955.39990234375
1271.32470216998	2951.80004882813
1271.98669423372	2949
1272.64860140285	2927.39990234375
1273.31042368503	2904.80004882813
1273.97216108786	2901.60009765625
1274.633813619	2924
1275.29538128606	2946.60009765625
1275.95686409669	2934.39990234375
1276.6182620585	2923.80004882813
1277.27957517914	2957
1277.94080346624	2918
1278.60194692741	2949
1279.2630055703	2957.19995117188
1279.92397940253	2957.80004882813
1280.58486843173	2975.39990234375
1281.24567266552	2953.39990234375
1281.90639211155	2916.60009765625
1282.56702677743	2920.39990234375
1283.2275766708	2918.19995117188
1283.88804179927	2926.80004882813
1284.54842217049	2891.19995117188
1285.20871779206	2912.60009765625
1285.86892867163	2920.39990234375
1286.52905481681	2913.39990234375
1287.18909623523	2943
1287.84905293452	2947.39990234375
1288.5089249223	2957.39990234375
1289.16871220619	2945.39990234375
1289.82841479383	2987
1290.48803269282	3013.80004882813
1291.1475659108	2999.19995117188
1291.80701445539	3002.60009765625
1292.46637833421	2969.39990234375
1293.12565755489	2945.80004882813
1293.78485212504	2921
1294.44396205229	2935.19995117188
1295.10298734425	2936.80004882813
1295.76192800856	2897.39990234375
1296.42078405283	2895.80004882813
1297.07955548467	2909
1297.73824231171	2926.80004882813
1298.39684454158	2969.60009765625
1299.05536218188	2989.19995117188
1299.71379524023	3009.80004882813
1300.37214372427	2981.19995117188
1301.03040764159	2955.80004882813
1301.68858699983	2948.60009765625
1302.34668180659	2968
1303.0046920695	2981
1303.66261779617	3002.80004882813
1304.32045899422	3010.60009765625
1304.97821567126	3062.60009765625
1305.63588783492	3083.39990234375
1306.29347549279	3058.19995117188
1306.95097865251	3044.19995117188
1307.60839732168	3060.80004882813
1308.26573150791	3062
1308.92298121883	3078.80004882813
1309.58014646204	3098.80004882813
1310.23722724517	3105
1310.89422357581	3119
1311.55113546158	3097.19995117188
1312.2079629101	3106.80004882813
1312.86470592898	3101.60009765625
1313.52136452582	3122
1314.17793870824	3121.60009765625
1314.83442848386	3136.80004882813
1315.49083386027	3111.80004882813
1316.14715484509	3119.60009765625
1316.80339144594	3121.60009765625
1317.45954367041	3137.39990234375
1318.11561152611	3132.60009765625
1318.77159502067	3077.39990234375
1319.42749416168	3099.60009765625
1320.08330895674	3094.80004882813
1320.73903941348	3076
1321.3946855395	3075
1322.0502473424	3067
1322.70572482978	3028.60009765625
1323.36111800926	3040.80004882813
1324.01642688845	3013
1324.67165147494	3015.39990234375
1325.32679177634	3007.80004882813
1325.98184780025	3013.19995117188
1326.63681955429	2967.39990234375
1327.29170704605	2973.60009765625
1327.94651028314	2946.80004882813
1328.60122927316	2916.80004882813
1329.25586402371	2950.80004882813
1329.9104145424	2931.19995117188
1330.56488083683	2911.80004882813
1331.2192629146	2914.80004882813
1331.87356078331	2898.80004882813
1332.52777445056	2921.19995117188
1333.18190392395	2931
1333.83594921109	2904.39990234375
1334.48991031958	2900.80004882813
1335.143787257	2870.39990234375
1335.79758003097	2875.60009765625
1336.45128864908	2892
1337.10491311893	2908.60009765625
1337.75845344813	2930.60009765625
1338.41190964425	2910.39990234375
1339.06528171491	2906.19995117188
1339.71856966771	2904.60009765625
1340.37177351023	2868.19995117188
1341.02489325007	2864.80004882813
1341.67792889484	2850.19995117188
1342.33088045212	2812
1342.98374792952	2827.80004882813
1343.63653133462	2849.19995117188
1344.28923067503	2835.80004882813
1344.94184595833	2874.39990234375
1345.59437719212	2898.80004882813
1346.246824384	2957.80004882813
1346.89918754155	2962.19995117188
1347.55146667238	2989
1348.20366178407	3015
1348.85577288421	3053.39990234375
1349.50779998041	3032.80004882813
1350.15974308024	2991
1350.8116021913	2999.39990234375
1351.46337732119	3008.80004882813
1352.11506847748	3002.80004882813
1352.76667566778	3035
1353.41819889967	3022.60009765625
1354.06963818074	3019.19995117188
1354.72099351858	3051.60009765625
1355.37226492079	3079
1356.02345239494	3095.39990234375
1356.67455594862	3154.39990234375
1357.32557558943	3227.60009765625
1357.97651132496	3278.60009765625
1358.62736316277	3345.19995117188
1359.27813111048	3397
1359.92881517565	3484.19995117188
1360.57941536589	3516.39990234375
1361.22993168876	3542.19995117188
1361.88036415186	3590.80004882813
1362.53071276278	3596.80004882813
1363.1809775291	3623
1363.8311584584	3629.60009765625
1364.48125555826	3594.80004882813
1365.13126883627	3500
1365.78119830001	3433
1366.43104395707	3380.19995117188
1367.08080581503	3319
1367.73048388147	3263.80004882813
1368.38007816397	3226.19995117188
1369.02958867011	3191.80004882813
1369.67901540748	3157.39990234375
1370.32835838365	3123.39990234375
1370.9776176062	3107.80004882813
1371.62679308273	3099
1372.27588482079	3110.19995117188
1372.92489282798	3090.80004882813
1373.57381711188	3044.39990234375
1374.22265768006	3006.60009765625
1374.87141454009	2948.60009765625
1375.52008769957	2935
1376.16867716606	2942.80004882813
1376.81718294715	2916.19995117188
1377.4656050504	2881.80004882813
1378.1139434834	2905.39990234375
1378.76219825373	2926
1379.41036936895	2932.19995117188
1380.05845683664	2920.19995117188
1380.70646066439	2902.80004882813
1381.35438085976	2898.60009765625
1382.00221743032	2894.80004882813
1382.64997038366	2914.60009765625
1383.29763972735	2937.60009765625
1383.94522546895	2953.19995117188
1384.59272761605	2928.39990234375
1385.24014617621	2899.80004882813
1385.88748115701	2893.80004882813
1386.53473256602	2894.80004882813
1387.18190041081	2856.19995117188
1387.82898469895	2886
1388.47598543802	2867.19995117188
1389.12290263558	2833
1389.7697362992	2797.39990234375
1390.41648643646	2788.80004882813
1391.06315305492	2780.80004882813
1391.70973616215	2747
1392.35623576573	2733.19995117188
1393.00265187321	2714.80004882813
1393.64898449217	2743.80004882813
1394.29523363018	2742.39990234375
1394.94139929481	2729
1395.58748149361	2727.80004882813
1396.23348023415	2702.80004882813
1396.87939552402	2681.80004882813
1397.52522737076	2649
1398.17097578195	2596.80004882813
1398.81664076514	2558.60009765625
1399.46222232792	2538
1400.10772047783	2541.80004882813
1400.75313522245	2544
1401.39846656934	2562.19995117188
1402.04371452605	2590.19995117188
1402.68887910016	2596.39990234375
1403.33396029924	2585
1403.97895813083	2610.60009765625
1404.6238726025	2632.39990234375
1405.26870372182	2646.39990234375
1405.91345149634	2648.19995117188
1406.55811593363	2641.60009765625
1407.20269704125	2657.80004882813
1407.84719482676	2654.19995117188
1408.49160929772	2632.39990234375
1409.13594046168	2663
1409.78018832622	2688.60009765625
1410.42435289887	2691.60009765625
1411.06843418722	2668.60009765625
1411.7124321988	2666.19995117188
1412.3563469412	2670
1413.00017842194	2699.60009765625
1413.64392664861	2723
1414.28759162875	2712.60009765625
1414.93117336992	2714.60009765625
1415.57467187967	2708.80004882813
1416.21808716557	2723.80004882813
1416.86141923516	2737.60009765625
1417.50466809601	2744.60009765625
1418.14783375567	2746.80004882813
1418.79091622169	2760.80004882813
1419.43391550162	2750.60009765625
1420.07683160303	2747.80004882813
1420.71966453346	2737.19995117188
1421.36241430046	2760.19995117188
1422.0050809116	2744.19995117188
1422.64766437442	2754.80004882813
1423.29016469647	2771.80004882813
1423.93258188531	2775.60009765625
1424.57491594848	2784
1425.21716689354	2766
1425.85933472805	2778.19995117188
1426.50141945954	2778.19995117188
1427.14342109557	2746.60009765625
1427.78533964369	2749
1428.42717511144	2707.80004882813
1429.06892750639	2717.80004882813
1429.71059683607	2669.60009765625
1430.35218310803	2692.39990234375
1430.99368632983	2688.19995117188
1431.635106509	2714.60009765625
1432.2764436531	2734
1432.91769776967	2756.39990234375
1433.55886886627	2732.80004882813
1434.19995695043	2762
1434.84096202969	2763.80004882813
1435.48188411162	2754.19995117188
1436.12272320375	2732
1436.76347931363	2734.80004882813
1437.40415244879	2736.39990234375
1438.0447426168	2721.80004882813
1438.68524982518	2722.60009765625
1439.32567408148	2704.19995117188
1439.96601539325	2674.19995117188
1440.60627376803	2674.60009765625
1441.24644921336	2683.80004882813
1441.88654173678	2677.39990234375
1442.52655134583	2658.19995117188
1443.16647804806	2663.39990234375
1443.806321851	2675.39990234375
1444.4460827622	2681.39990234375
1445.0857607892	2658.39990234375
1445.72535593953	2675.60009765625
1446.36486822074	2648.60009765625
1447.00429764037	2657.19995117188
1447.64364420595	2653.60009765625
1448.28290792502	2653.39990234375
1448.92208880512	2625.39990234375
1449.56118685379	2617.39990234375
1450.20020207857	2623.60009765625
1450.83913448699	2618.80004882813
1451.47798408659	2629.39990234375
1452.1167508849	2641.60009765625
1452.75543488947	2640.80004882813
1453.39403610782	2625.60009765625
1454.0325545475	2621
1454.67099021603	2639.19995117188
1455.30934312097	2641.80004882813
1455.94761326982	2657.80004882813
1456.58580067014	2661.60009765625
1457.22390532945	2649.39990234375
1457.86192725529	2630.60009765625
1458.49986645519	2653.19995117188
1459.13772293668	2626.60009765625
1459.7754967073	2615
1460.41318777457	2601.19995117188
1461.05079614604	2599.80004882813
1461.68832182922	2567.39990234375
1462.32576483166	2576.60009765625
1462.96312516087	2561.60009765625
1463.6004028244	2574.19995117188
1464.23759782977	2631.39990234375
1464.8747101845	2646.19995117188
1465.51173989614	2669.39990234375
1466.14868697221	2679.19995117188
1466.78555142024	2666
1467.42233324774	2676.60009765625
1468.05903246227	2647
1468.69564907133	2620.19995117188
1469.33218308246	2608.39990234375
1469.96863450317	2620
1470.60500334102	2643.19995117188
1471.2412896035	2660.19995117188
1471.87749329816	2681
1472.51361443251	2688.39990234375
1473.14965301409	2686.80004882813
1473.78560905041	2668.19995117188
1474.421482549	2652.19995117188
1475.05727351739	2679.60009765625
1475.69298196309	2677.39990234375
1476.32860789364	2683.19995117188
1476.96415131654	2690
1477.59961223934	2666.39990234375
1478.23499066954	2658.39990234375
1478.87028661467	2649
1479.50550008226	2659.39990234375
1480.14063107981	2655.19995117188
1480.77567961486	2612.80004882813
1481.41064569492	2615
1482.04552932752	2594.19995117188
1482.68033052017	2597.60009765625
1483.31504928039	2599.19995117188
1483.9496856157	2619
1484.58423953363	2613.80004882813
1485.21871104168	2640.80004882813
1485.85310014738	2636.19995117188
1486.48740685824	2603.80004882813
1487.12163118178	2626.19995117188
1487.75577312553	2630.19995117188
1488.38983269698	2634.60009765625
1489.02380990367	2649
1489.65770475311	2627.39990234375
1490.29151725281	2641
1490.92524741029	2663.60009765625
1491.55889523306	2695.60009765625
1492.19246072863	2679
1492.82594390453	2705
1493.45934476826	2687
1494.09266332734	2715
1494.72589958928	2735.39990234375
1495.3590535616	2780.60009765625
1495.99212525181	2782.80004882813
1496.62511466741	2775
1497.25802181592	2784.39990234375
1497.89084670485	2777.39990234375
1498.52358934172	2806.80004882813
1499.15624973403	2821
1499.7888278893	2830
1500.42132381503	2863.80004882813
1501.05373751873	2898.60009765625
1501.68606900792	2966
1502.31831829009	3009.39990234375
1502.95048537277	3026.80004882813
1503.58257026346	3065.39990234375
1504.21457296966	3100.80004882813
1504.84649349889	3158.39990234375
1505.47833185864	3199.39990234375
1506.11008805644	3203
1506.74176209978	3181
1507.37335399617	3185
1508.00486375312	3131.80004882813
1508.63629137813	3095.39990234375
1509.2676368787	3031.60009765625
1509.89890026235	3061
1510.53008153658	3090.19995117188
1511.16118070889	3055.80004882813
1511.79219778677	3060.19995117188
1512.42313277775	3051.60009765625
1513.05398568932	3038.19995117188
1513.68475652898	3027.19995117188
1514.31544530424	3019.39990234375
1514.9460520226	3018.39990234375
1515.57657669155	2945.39990234375
1516.20701931861	2905
1516.83737991127	2862.39990234375
1517.46765847702	2823.80004882813
1518.09785502339	2791
1518.72796955785	2795
1519.35800208792	2785
1519.98795262109	2776.39990234375
1520.61782116486	2761.60009765625
1521.24760772673	2755.80004882813
1521.87731231419	2732.19995117188
1522.50693493475	2722.19995117188
1523.1364755959	2716.60009765625
1523.76593430514	2712.19995117188
1524.39531106997	2712.80004882813
1525.02460589788	2706.19995117188
1525.65381879637	2682.39990234375
1526.28294977293	2677.80004882813
1526.91199883507	2663.80004882813
1527.54096599027	2640.19995117188
1528.16985124603	2611.60009765625
1528.79865460984	2632.80004882813
1529.4273760892	2635.39990234375
1530.05601569161	2642.80004882813
1530.68457342455	2639
1531.31304929552	2643
1531.94144331201	2657.60009765625
1532.56975548151	2672.60009765625
1533.19798581152	2685.19995117188
1533.82613430953	2697.60009765625
1534.45420098302	2690.80004882813
1535.08218583949	2718.39990234375
1535.71008888643	2718.60009765625
1536.33791013134	2684
1536.96564958169	2708.60009765625
1537.59330724498	2707
1538.22088312871	2696.19995117188
1538.84837724034	2660
1539.47578958739	2636.80004882813
1540.10312017733	2617.19995117188
1540.73036901765	2629.39990234375
1541.35753611584	2633.80004882813
1541.98462147939	2624.19995117188
1542.61162511578	2604.39990234375
1543.2385470325	2602.80004882813
1543.86538723704	2624
1544.49214573688	2591.39990234375
1545.11882253951	2599.39990234375
1545.74541765241	2617
1546.37193108306	2631.80004882813
1546.99836283896	2634.60009765625
1547.62471292758	2619.19995117188
1548.25098135641	2629
1548.87716813294	2603.80004882813
1549.50327326464	2597
1550.12929675899	2595
1550.75523862349	2576.80004882813
1551.38109886561	2584.39990234375
1552.00687749284	2606
1552.63257451264	2608.39990234375
1553.25818993252	2577.60009765625
1553.88372375994	2587.60009765625
1554.50917600239	2574.39990234375
1555.13454666734	2517
1555.75983576228	2549.60009765625
1556.38504329469	2537
1557.01016927204	2509.19995117188
1557.63521370181	2506.60009765625
1558.26017659149	2528
1558.88505794854	2517.39990234375
1559.50985778045	2561.80004882813
1560.13457609469	2552.19995117188
1560.75921289874	2572.80004882813
1561.38376820008	2583.19995117188
1562.00824200618	2561.60009765625
1562.63263432452	2564.39990234375
1563.25694516257	2598
1563.88117452781	2585.80004882813
1564.50532242772	2585.19995117188
1565.12938886976	2557
1565.75337386141	2551.39990234375
1566.37727741015	2584.80004882813
1567.00109952345	2561
1567.62484020878	2625.39990234375
1568.24849947361	2611.19995117188
1568.87207732542	2653.80004882813
1569.49557377168	2657.39990234375
1570.11898881986	2684.39990234375
1570.74232247743	2678
1571.36557475186	2688.19995117188
1571.98874565062	2707.39990234375
1572.61183518119	2732.19995117188
1573.23484335103	2746.19995117188
1573.85777016761	2762.60009765625
1574.4806156384	2772.80004882813
1575.10337977088	2790.19995117188
1575.7260625725	2786.39990234375
1576.34866405074	2786.19995117188
1576.97118421306	2769.60009765625
1577.59362306694	2769
1578.21598061984	2779.19995117188
1578.83825687922	2745.39990234375
1579.46045185255	2721
1580.08256554731	2720.19995117188
1580.70459797094	2697.39990234375
1581.32654913093	2659.80004882813
1581.94841903473	2633.60009765625
1582.57020768981	2602
1583.19191510364	2595
1583.81354128367	2558
1584.43508623737	2543.80004882813
1585.05654997221	2511.60009765625
1585.67793249564	2496.39990234375
1586.29923381514	2482.80004882813
1586.92045393815	2483.60009765625
1587.54159287216	2488
1588.1626506246	2467.60009765625
1588.78362720296	2475.80004882813
1589.40452261468	2481.19995117188
1590.02533686724	2452.19995117188
1590.64606996808	2424.39990234375
1591.26672192467	2425.60009765625
1591.88729274447	2441
1592.50778243493	2410.60009765625
1593.12819100352	2406
1593.7485184577	2383.19995117188
1594.36876480492	2393.39990234375
1594.98893005264	2381
1595.60901420832	2382
1596.22901727941	2389
1596.84893927338	2396.39990234375
1597.46878019767	2413
1598.08854005975	2436.19995117188
1598.70821886707	2461.60009765625
1599.32781662708	2461.39990234375
1599.94733334725	2466.19995117188
1600.56676903502	2457.80004882813
1601.18612369785	2436.60009765625
1601.8053973432	2418.19995117188
1602.42458997851	2400.19995117188
1603.04370161124	2390.39990234375
1603.66273224884	2386.60009765625
1604.28168189878	2359.39990234375
1604.90055056849	2356.19995117188
1605.51933826543	2351.80004882813
1606.13804499705	2338.80004882813
1606.75667077081	2357.39990234375
1607.37521559415	2342
1607.99367947452	2324.19995117188
1608.61206241938	2327.60009765625
1609.23036443618	2323.60009765625
1609.84858553236	2308
1610.46672571537	2298.19995117188
1611.08478499267	2324.80004882813
1611.7027633717	2325.39990234375
1612.3206608599	2315.80004882813
1612.93847746473	2333
1613.55621319364	2336.19995117188
1614.17386805407	2304.39990234375
1614.79144205347	2270.80004882813
1615.40893519928	2266.39990234375
1616.02634749895	2259.80004882813
1616.64367895993	2280
1617.26092958966	2263.39990234375
1617.87809939559	2252.39990234375
1618.49518838516	2239.80004882813
1619.11219656582	2250.80004882813
1619.729123945	2260.80004882813
1620.34597053016	2256.80004882813
1620.96273632874	2251
1621.57942134818	2242.39990234375
1622.19602559592	2250.80004882813
1622.8125490794	2263.80004882813
1623.42899180607	2268.60009765625
1624.04535378337	2257
1624.66163501874	2254.60009765625
1625.27783551963	2255.39990234375
1625.89395529346	2245.19995117188
1626.50999434768	2240.39990234375
1627.12595268974	2222.80004882813
1627.74183032707	2198.80004882813
1628.3576272671	2201.39990234375
1628.97334351729	2171.39990234375
1629.58897908506	2191.19995117188
1630.20453397786	2193.19995117188
1630.82000820313	2185.80004882813
1631.43540176829	2189.19995117188
1632.05071468079	2211.19995117188
1632.66594694807	2210.39990234375
1633.28109857756	2213.60009765625
1633.8961695767	2219.60009765625
1634.51115995292	2232.39990234375
1635.12606971366	2203
1635.74089886636	2224.80004882813
1636.35564741844	2255.39990234375
1636.97031537734	2239.39990234375
1637.58490275051	2262.80004882813
1638.19940954536	2272
1638.81383576934	2292.80004882813
1639.42818142987	2326.19995117188
1640.0424465344	2353.39990234375
1640.65663109034	2351.60009765625
1641.27073510515	2362.80004882813
1641.88475858623	2383.60009765625
1642.49870154104	2398
1643.11256397699	2407
1643.72634590152	2437.80004882813
1644.34004732206	2454
1644.95366824604	2450
1645.56720868089	2491.60009765625
1646.18066863404	2510
1646.79404811291	2531.80004882813
1647.40734712494	2557.39990234375
1648.02056567755	2546.60009765625
1648.63370377817	2567.19995117188
1649.24676143423	2579
1649.85973865316	2574
1650.47263544238	2560.39990234375
1651.08545180932	2587.60009765625
1651.6981877614	2570.39990234375
1652.31084330606	2552.19995117188
1652.92341845071	2527.60009765625
1653.53591320278	2508.80004882813
1654.1483275697	2475.19995117188
1654.7606615589	2479.39990234375
1655.37291517778	2446.80004882813
1655.98508843379	2417
1656.59718133434	2384.39990234375
1657.20919388685	2354.39990234375
1657.82112609875	2338.80004882813
1658.43297797747	2302.60009765625
1659.04474953041	2260
1659.65644076501	2250.39990234375
1660.26805168869	2216.60009765625
1660.87958230886	2204
1661.49103263294	2213.60009765625
1662.10240266837	2202.39990234375
1662.71369242255	2196
1663.32490190291	2186.19995117188
1663.93603111687	2163
1664.54708007184	2144.39990234375
1665.15804877524	2158.80004882813
1665.7689372345	2138.80004882813
1666.37974545703	2152
1666.99047345024	2163.19995117188
1667.60112122156	2165.80004882813
1668.2116887784	2118.39990234375
1668.82217612818	2088.60009765625
1669.43258327831	2076.80004882813
1670.04291023622	2050.80004882813
1670.65315700931	2039
1671.263323605	2012.59997558594
1671.8734100307	1996.19995117188
1672.48341629384	1988.80004882813
1673.09334240182	1958.40002441406
1673.70318836206	1953.40002441406
1674.31295418197	1939.40002441406
1674.92263986896	1925
1675.53224543046	1921.19995117188
1676.14177087386	1945.80004882813
1676.75121620658	1960.59997558594
1677.36058143604	1927.40002441406
1677.96986656964	1943
1678.5790716148	1959.19995117188
1679.18819657892	1979.80004882813
1679.79724146943	2001.59997558594
1680.40620629372	2021.80004882813
1681.0150910592	2044.40002441406
1681.6238957733	2041
1682.23262044341	2048.80004882813
1682.84126507694	2041.59997558594
1683.4498296813	2055
1684.0583142639	2067.60009765625
1684.66671883216	2036.59997558594
1685.27504339346	2046.59997558594
1685.88328795523	2034.40002441406
1686.49145252487	2016.80004882813
1687.09953710978	1988.80004882813
1687.70754171737	2002.40002441406
1688.31546635505	1998.80004882813
1688.92331103021	1996.59997558594
1689.53107575028	2022
1690.13876052265	2018
1690.74636535472	2015.19995117188
1691.3538902539	1996.19995117188
1691.96133522759	1999.40002441406
1692.5687002832	1980
1693.17598542812	1959.40002441406
1693.78319066977	1923
1694.39031601554	1930.19995117188
1694.99736147283	1920.80004882813
1695.60432704905	1940.40002441406
1696.2112127516	1967.40002441406
1696.81801858788	1968.80004882813
1697.42474456528	1987.40002441406
1698.03139069121	1998.40002441406
1698.63795697307	1964.59997558594
1699.24444341826	1966.80004882813
1699.85085003417	1961.59997558594
1700.45717682821	1947.40002441406
1701.06342380778	1948.19995117188
1701.66959098026	1950.80004882813
1702.27567835307	1953.19995117188
1702.88168593359	1924
1703.48761372922	1916.40002441406
1704.09346174737	1921.40002441406
1704.69922999542	1907.59997558594
1705.30491848077	1910.80004882813
1705.91052721083	1908.80004882813
1706.51605619297	1922.19995117188
1707.12150543461	1922.59997558594
1707.72687494312	1910.19995117188
1708.33216472592	1893.59997558594
1708.93737479039	1887.40002441406
1709.54250514392	1868.19995117188
