634.977642221345	2592
635.719821695905	2597.39990234375
636.461909203392	2597.39990234375
637.203904751776	2609.39990234375
637.945808349023	2607.39990234375
638.687620003102	2605.60009765625
639.42933972198	2631.19995117188
640.170967513616	2627.80004882813
640.912503385981	2598.60009765625
641.653947347041	2579.19995117188
642.395299404758	2584.39990234375
643.13655956709	2566.60009765625
643.877727842014	2524.19995117188
644.61880423748	2517.60009765625
645.359788761455	2518.19995117188
646.100681421905	2541
646.841482226789	2562
647.582191184074	2596.39990234375
648.322808301711	2570.19995117188
649.06333358767	2587
649.803767049909	2567.19995117188
650.544108696385	2604.19995117188
651.28435853506	2618.19995117188
652.024516573894	2654
652.764582820849	2633.80004882813
653.504557283875	2673.80004882813
654.244439970937	2679.19995117188
654.984230889991	2677
655.723930048995	2670.19995117188
656.463537455909	2685
657.203053118683	2696.19995117188
657.942477045275	2702.80004882813
658.681809243647	2713.39990234375
659.421049721747	2697.19995117188
660.160198487535	2679
660.899255548962	2700.60009765625
661.638220913985	2716.80004882813
662.377094590559	2732.39990234375
663.115876586631	2718.19995117188
663.854566910165	2713.80004882813
664.593165569107	2702
665.331672571406	2701.19995117188
666.07008792502	2684.80004882813
666.808411637902	2663.60009765625
667.546643717996	2656.60009765625
668.284784173258	2635.60009765625
669.022833011641	2638.60009765625
669.760790241089	2649
670.498655869554	2641.60009765625
671.236429904987	2628.19995117188
671.97411235534	2634.39990234375
672.711703228551	2677.80004882813
673.449202532577	2696.80004882813
674.186610275364	2718.80004882813
674.923926464857	2764.39990234375
675.661151109008	2757
676.398284215759	2760
677.135325793058	2743
677.87227584885	2762.60009765625
678.609134391082	2786.39990234375
679.345901427696	2802.39990234375
680.082576966644	2787
680.819161015861	2794.80004882813
681.555653583298	2780.19995117188
682.292054676895	2746
683.028364304594	2706.60009765625
683.764582474344	2722.80004882813
684.500709194083	2712.80004882813
685.236744471752	2679.80004882813
685.972688315294	2695
686.708540732652	2696.19995117188
687.444301731762	2686.19995117188
688.179971320572	2717.19995117188
688.915549507013	2698.39990234375
689.651036299034	2687.39990234375
690.386431704569	2686.19995117188
691.121735731559	2667
691.85694838794	2652
692.592069681652	2627
693.327099620632	2618.60009765625
694.062038212821	2620.80004882813
694.796885466149	2656
695.531641388561	2673.39990234375
696.266305987987	2714.19995117188
697.000879272367	2720.80004882813
697.735361249632	2732
698.469751927722	2729.39990234375
699.204051314568	2751.39990234375
699.938259418107	2735.80004882813
700.672376246272	2734.19995117188
701.406401806997	2735.39990234375
702.140336108212	2756.19995117188
702.874179157855	2751.80004882813
703.607930963856	2737.19995117188
704.341591534147	2738.80004882813
705.07516087666	2744
705.808638999324	2761.60009765625
706.542025910073	2748.19995117188
707.275321616841	2742.19995117188
708.008526127549	2741.19995117188
708.741639450132	2716.39990234375
709.474661592521	2723.60009765625
710.207592562641	2752.60009765625
710.940432368424	2742.39990234375
711.673181017796	2756.19995117188
712.405838518687	2747.80004882813
713.138404879025	2734.60009765625
713.870880106731	2716.60009765625
714.603264209738	2737
715.335557195971	2764.39990234375
716.067759073357	2795
716.799869849816	2786.60009765625
717.531889533281	2792.39990234375
718.263818131673	2773.80004882813
718.995655652917	2755.60009765625
719.727402104934	2739.80004882813
720.45905749565	2747.60009765625
721.19062183299	2735.60009765625
721.922095124877	2725.80004882813
722.653477379231	2717
723.384768603973	2720.80004882813
724.11596880703	2734.39990234375
724.847077996319	2739.80004882813
725.578096179762	2731.19995117188
726.309023365281	2743
727.039859560792	2762
727.770604774222	2754.60009765625
728.501259013484	2777.19995117188
729.231822286501	2774.39990234375
729.962294601191	2792
730.692675965469	2778.80004882813
731.42296638726	2749.39990234375
732.153165874472	2745.39990234375
732.883274435032	2755.19995117188
733.613292076851	2759.19995117188
734.343218807843	2797.60009765625
735.07305463593	2796.80004882813
735.802799569028	2771.80004882813
736.532453615048	2739.39990234375
737.262016781904	2752.80004882813
737.991489077517	2733.80004882813
738.720870509794	2737
739.450161086654	2738.60009765625
740.179360816009	2759.80004882813
740.908469705772	2736.39990234375
741.637487763854	2772.19995117188
742.366414998168	2791.80004882813
743.095251416623	2793.60009765625
743.823997027137	2792.80004882813
744.552651837618	2795.80004882813
745.281215855978	2808.19995117188
746.009689090124	2781.19995117188
746.738071547964	2768.39990234375
747.466363237419	2733.19995117188
748.194564166384	2733.19995117188
748.92267434278	2735
749.650693774504	2732.60009765625
750.378622469476	2753.80004882813
751.106460435596	2778.39990234375
751.834207680771	2781.60009765625
752.561864212909	2793.60009765625
753.289430039919	2785.80004882813
754.016905169707	2768.80004882813
754.744289610175	2792.19995117188
755.471583369231	2765.60009765625
756.198786454782	2779.39990234375
756.925898874728	2748.19995117188
757.652920636979	2757.60009765625
758.379851749433	2766.19995117188
759.106692219996	2784
759.833442056572	2804.19995117188
760.560101267063	2818.60009765625
761.28666985937	2837.60009765625
762.0131478414	2846.19995117188
762.739535221046	2854.60009765625
763.465832006219	2870
764.192038204812	2892
764.918153824731	2880.39990234375
765.644178873872	2881.39990234375
766.370113360138	2921.80004882813
767.095957291425	2942.60009765625
767.821710675635	3006.80004882813
768.547373520665	3030.19995117188
769.272945834415	3064.80004882813
769.998427624781	3103.80004882813
770.723818899658	3139.60009765625
771.449119666949	3142.39990234375
772.174329934546	3161.39990234375
772.899449710347	3163.60009765625
773.624479002248	3183.19995117188
774.349417818145	3194.39990234375
775.074266165934	3226.60009765625
775.799024053505	3219.39990234375
776.523691488757	3179.39990234375
777.248268479582	3144
777.972755033877	3105.39990234375
778.69715115953	3035.39990234375
779.421456864441	2995.39990234375
780.145672156493	2929.19995117188
780.869797043587	2912
781.593831533611	2899.19995117188
782.317775634457	2899
783.041629354012	2863.80004882813
783.765392700174	2860
784.489065680828	2846.60009765625
785.212648303866	2808.19995117188
785.936140577177	2817
786.659542508652	2823.39990234375
787.382854106174	2795
788.106075377639	2801.19995117188
788.829206330928	2797.19995117188
789.552246973933	2811.60009765625
790.275197314542	2813.60009765625
790.998057360638	2837.39990234375
791.720827120108	2843.60009765625
792.443506600841	2875.60009765625
793.166095810722	2829.19995117188
793.888594757635	2807.19995117188
794.611003449465	2788.60009765625
795.333321894098	2818.19995117188
796.055550099417	2811
796.777688073308	2791.39990234375
797.499735823654	2817.60009765625
798.221693358334	2789.39990234375
798.943560685235	2781.19995117188
799.665337812239	2781.39990234375
800.387024747226	2784.39990234375
801.108621498075	2800.60009765625
801.830128072674	2801.39990234375
802.551544478902	2823.19995117188
803.272870724636	2813
803.994106817761	2832.19995117188
804.715252766148	2818.39990234375
805.436308577687	2809.39990234375
806.157274260251	2787
806.878149821721	2771.80004882813
807.598935269973	2739.39990234375
808.319630612886	2750.19995117188
809.040235858336	2748.80004882813
809.760751014202	2758.60009765625
810.481176088361	2773.60009765625
811.201511088685	2734.19995117188
811.921756023059	2765.39990234375
812.641910899347	2738.39990234375
813.361975725432	2746.60009765625
814.081950509188	2775.39990234375
814.801835258489	2756.80004882813
815.521629981206	2756.39990234375
816.241334685218	2766.60009765625
816.960949378392	2738.80004882813
817.680474068606	2749.39990234375
818.399908763731	2743
819.11925347164	2746.60009765625
819.838508200202	2757
820.55767295729	2731.39990234375
821.276747750778	2726.19995117188
821.995732588531	2735.80004882813
822.714627478425	2728.19995117188
823.433432428327	2731.80004882813
824.152147446105	2745.80004882813
824.870772539632	2739
825.589307716775	2758.60009765625
826.307752985404	2809.39990234375
827.026108353378	2794.80004882813
827.744373828579	2784.60009765625
828.462549418867	2778.19995117188
829.180635132107	2781.60009765625
829.898630976168	2781
830.616536958915	2806.19995117188
831.334353088218	2793.19995117188
832.052079371938	2802
832.769715817942	2788.39990234375
833.487262434092	2806
834.204719228255	2782.80004882813
834.922086208293	2764.80004882813
835.639363382073	2756
836.356550757456	2771.19995117188
837.073648342304	2760.19995117188
837.790656144484	2790.39990234375
838.507574171847	2780.60009765625
839.22440243227	2772.19995117188
839.941140933601	2761.19995117188
840.657789683706	2742.19995117188
841.374348690448	2741.19995117188
842.090817961686	2759.39990234375
842.807197505276	2775
843.523487329083	2796.60009765625
844.23968744096	2783.80004882813
844.955797848771	2772.80004882813
845.671818560374	2763.19995117188
846.387749583622	2744
847.103590926378	2765.80004882813
847.819342596497	2739
848.535004601833	2719
849.25057695025	2728.60009765625
849.966059649598	2709.19995117188
850.681452707735	2691.39990234375
851.396756132513	2710.39990234375
852.111969931789	2720
852.827094113419	2755.60009765625
853.542128685257	2743.80004882813
854.257073655158	2788.80004882813
854.971929030969	2816
855.686694820551	2826.80004882813
856.40137103175	2791.80004882813
857.115957672423	2790.39990234375
857.830454750423	2751.39990234375
858.544862273597	2768.19995117188
859.259180249797	2762.80004882813
859.97340868688	2744.60009765625
860.687547592688	2757.80004882813
861.401596975075	2779.80004882813
862.115556841891	2773
862.829427200985	2804.60009765625
863.543208060205	2814
864.256899427402	2773.80004882813
864.970501310423	2763.60009765625
865.684013717114	2754.39990234375
866.397436655325	2748.60009765625
867.110770132901	2752.39990234375
867.824014157691	2731.39990234375
868.537168737542	2745.80004882813
869.250233880299	2731.39990234375
869.963209593803	2754.80004882813
870.676095885902	2747.60009765625
871.388892764445	2748.39990234375
872.101600237276	2744.60009765625
872.814218312233	2733
873.526746997165	2729.19995117188
874.239186299914	2740
874.951536228323	2727
875.663796790231	2742.60009765625
876.375967993487	2729.19995117188
877.088049845928	2737.80004882813
877.8000423554	2740.39990234375
878.511945529739	2739.19995117188
879.22375937679	2749.60009765625
879.935483904388	2727.80004882813
880.64711912038	2728.19995117188
881.358665032604	2716.39990234375
882.070121648892	2728.39990234375
882.78148897709	2698.60009765625
883.492767025039	2711.80004882813
884.203955800571	2711
884.915055311525	2725
885.626065565741	2697.60009765625
886.336986571053	2708.60009765625
887.047818335298	2694.80004882813
887.758560866315	2681.60009765625
888.469214171937	2679.19995117188
889.179778260005	2687
889.890253138347	2711.80004882813
890.600638814803	2679.60009765625
891.310935297204	2652.39990234375
892.021142593385	2662
892.731260711183	2682
893.441289658429	2682.80004882813
894.15122944295	2675.19995117188
894.861080072591	2713.19995117188
895.570841555173	2691.60009765625
896.280513898534	2700.39990234375
896.990097110503	2699.60009765625
897.699591198913	2714.80004882813
898.408996171595	2737.60009765625
899.118312036375	2760.19995117188
899.827538801089	2765.80004882813
900.536676473561	2743.39990234375
901.245725061628	2727
901.954684573109	2739.60009765625
902.663555015838	2743.80004882813
903.372336397644	2785.19995117188
904.081028726351	2765.60009765625
904.789632009793	2775.80004882813
905.49814625579	2775
906.20657147217	2788.60009765625
906.914907666765	2788.19995117188
907.623154847391	2745.19995117188
908.331313021885	2751
909.039382198064	2756.80004882813
909.747362383754	2757.60009765625
910.455253586782	2772.19995117188
911.163055814972	2767
911.870769076143	2761.80004882813
912.578393378126	2742.19995117188
913.285928728738	2726.19995117188
913.993375135802	2720
914.700732607145	2719.39990234375
915.408001150579	2716.80004882813
916.115180773937	2725.19995117188
916.822271485037	2740.19995117188
917.529273291693	2765.19995117188
918.236186201733	2763.19995117188
918.943010222971	2760.39990234375
919.649745363234	2729.60009765625
920.356391630333	2752
921.062949032096	2731.60009765625
921.769417576333	2735.60009765625
922.475797270864	2736
923.182088123512	2716.19995117188
923.888290142089	2732.60009765625
924.594403334414	2734.19995117188
925.300427708304	2735.39990234375
926.006363271572	2736.19995117188
926.712210032039	2755.60009765625
927.417967997522	2751.60009765625
928.123637175827	2764.39990234375
928.829217574776	2754.39990234375
929.534709202184	2735
930.240112065859	2727.80004882813
930.945426173621	2733.19995117188
931.650651533283	2708.39990234375
932.355788152653	2701.19995117188
933.060836039547	2708
933.765795201776	2716.19995117188
934.470665647153	2703
935.175447383492	2685.80004882813
935.880140418599	2704.80004882813
936.584744760286	2703
937.289260416366	2714
937.993687394647	2736
938.698025702939	2739.39990234375
939.402275349051	2783.60009765625
940.106436340793	2782.80004882813
940.810508685976	2775.60009765625
941.5144923924	2771.19995117188
942.21838746788	2776.80004882813
942.922193920223	2757.80004882813
943.625911757231	2729
944.329540986716	2706.60009765625
945.033081616484	2698.19995117188
945.736533654334	2684.80004882813
946.439897108083	2652.60009765625
947.143171985529	2656
947.846358294477	2649
948.549456042732	2663.19995117188
949.2524652381	2670.19995117188
949.955385888382	2683
950.658218001384	2668
951.360961584907	2681.60009765625
952.063616646755	2697
952.766183194733	2694.39990234375
953.468661236636	2712.60009765625
954.171050780271	2712.60009765625
954.873351833437	2702.19995117188
955.575564403935	2697.80004882813
956.277688499565	2682.80004882813
956.97972412813	2677.80004882813
957.681671297424	2703
958.383530015255	2679
959.085300289414	2674.60009765625
959.786982127703	2673.60009765625
960.488575537918	2667.19995117188
961.190080527859	2667.39990234375
961.891497105327	2649.60009765625
962.592825278111	2642.80004882813
963.294065054012	2662.60009765625
963.995216440829	2675.19995117188
964.696279446353	2672.39990234375
965.397254078383	2675.80004882813
966.098140344714	2675
966.798938253139	2698.60009765625
967.499647811456	2674.19995117188
968.200269027458	2649.19995117188
968.900801908937	2642.39990234375
969.601246463685	2660.60009765625
970.3016026995	2621.60009765625
971.001870624169	2610.80004882813
971.702050245491	2617.60009765625
972.402141571249	2621.19995117188
973.102144609245	2619
973.802059367267	2632
974.501885853103	2641.60009765625
975.201624074541	2637.80004882813
975.901274039379	2676.19995117188
976.600835755399	2661
977.3003092304	2665.60009765625
977.999694472158	2654
978.698991488473	2646
979.39820028713	2648.19995117188
980.097320875915	2633.19995117188
980.796353262618	2658.39990234375
981.495297455024	2655.19995117188
982.194153460919	2672.60009765625
982.892921288093	2686
983.591600944331	2677.19995117188
984.290192437419	2684
984.98869577514	2673.80004882813
985.687110965282	2651.80004882813
986.385438015629	2635
987.083676933961	2626
987.781827728069	2634.60009765625
988.479890405732	2612
989.177864974732	2632.80004882813
989.875751442857	2634
990.573549817888	2647.39990234375
991.271260107602	2659
991.968882319786	2658.19995117188
992.666416462217	2647.39990234375
993.363862542681	2645
994.061220568959	2640.19995117188
994.758490548823	2626.39990234375
995.455672490061	2628.80004882813
996.152766400451	2634
996.849772287773	2633.19995117188
997.5466901598	2660.19995117188
998.243520024317	2610.80004882813
998.940261889097	2618.19995117188
999.636915761923	2598.39990234375
1000.33348165057	2593
1001.02995956281	2565.60009765625
1001.72634950643	2578.39990234375
1002.42265148919	2609.19995117188
1003.11886551889	2621.19995117188
1003.81499160328	2622.39990234375
1004.51102975015	2661.60009765625
1005.20697996727	2652.39990234375
1005.90284226242	2638.60009765625
1006.59861664337	2648.60009765625
1007.2943031179	2647.39990234375
1007.98990169377	2671.39990234375
1008.68541237876	2672.19995117188
1009.38083518064	2702.19995117188
1010.07617010719	2703
1010.77141716617	2710.80004882813
1011.46657636536	2740
1012.16164771253	2709.19995117188
1012.85663121546	2682.19995117188
1013.5515268819	2644
1014.24633471963	2646.19995117188
1014.94105473642	2632.80004882813
1015.63568694004	2633.60009765625
1016.33023133826	2635.39990234375
1017.02468793885	2630.80004882813
1017.71905674957	2649
1018.41333777819	2633.80004882813
1019.10753103249	2626.80004882813
1019.80163652022	2661.39990234375
1020.49565424916	2646.39990234375
1021.18958422707	2650.19995117188
1021.88342646171	2644.60009765625
1022.57718096085	2661.60009765625
1023.27084773227	2649.80004882813
1023.96442678371	2639.80004882813
1024.65791812296	2640
1025.35132175776	2616.39990234375
1026.04463769589	2595.80004882813
1026.73786594511	2577
1027.43100651318	2555.19995117188
1028.12405940786	2568.60009765625
1028.81702463692	2556.19995117188
1029.50990220812	2561.80004882813
1030.20269212921	2573
1030.89539440798	2578.39990234375
1031.58800905216	2567.60009765625
1032.28053606952	2557
1032.97297546784	2540
1033.66532725485	2559.80004882813
1034.35759143832	2543.39990234375
1035.04976802602	2564.19995117188
1035.7418570257	2559.39990234375
1036.43385844511	2577.80004882813
1037.12577229202	2561
1037.81759857419	2549.80004882813
1038.50933729937	2557.60009765625
1039.20098847531	2574.19995117188
1039.89255210978	2584.80004882813
1040.58402821053	2594.39990234375
1041.27541678532	2578.60009765625
1041.96671784191	2568.80004882813
1042.65793138804	2580.60009765625
1043.34905743147	2568.39990234375
1044.04009597996	2578.39990234375
1044.73104704125	2610.80004882813
1045.42191062312	2589
1046.1126867333	2609.39990234375
1046.80337537955	2604
1047.49397656962	2629.19995117188
1048.18449031127	2622.80004882813
1048.87491661225	2605.60009765625
1049.5652554803	2587
1050.25550692319	2556.80004882813
1050.94567094865	2532.60009765625
1051.63574756444	2543.80004882813
1052.32573677832	2530.80004882813
1053.01563859803	2541.19995117188
1053.70545303131	2550
1054.39518008592	2553.60009765625
1055.08481976961	2560
1055.77437209013	2548.39990234375
1056.46383705522	2541.60009765625
1057.15321467262	2541.19995117188
1057.8425049501	2545.19995117188
1058.53170789539	2508.39990234375
1059.22082351624	2523.39990234375
1059.9098518204	2514
1060.59879281561	2517.19995117188
1061.28764650962	2511.39990234375
1061.97641291016	2521.80004882813
1062.665092025	2541.60009765625
1063.35368386187	2546.80004882813
1064.04218842851	2545.39990234375
1064.73060573268	2505.80004882813
1065.4189357821	2496
1066.10717858452	2496.80004882813
1066.7953341477	2503.60009765625
1067.48340247936	2484.60009765625
1068.17138358725	2465.19995117188
1068.85927747912	2481.60009765625
1069.5470841627	2517.19995117188
1070.23480364573	2519.19995117188
1070.92243593595	2551
1071.60998104111	2558.80004882813
1072.29743896894	2520.19995117188
1072.98480972718	2526
1073.67209332357	2539.19995117188
1074.35928976585	2533.60009765625
1075.04639906176	2544.39990234375
1075.73342121903	2579.39990234375
1076.42035624541	2570.19995117188
1077.10720414862	2555
1077.79396493641	2564.80004882813
1078.48063861651	2577.80004882813
1079.16722519666	2546
1079.85372468459	2540.60009765625
1080.54013708804	2527.60009765625
1081.22646241474	2519.39990234375
1081.91270067243	2494.80004882813
1082.59885186884	2524
1083.28491601171	2531.19995117188
1083.97089310877	2534.19995117188
1084.65678316774	2561.80004882813
1085.34258619637	2579.39990234375
1086.02830220239	2585.39990234375
1086.71393119352	2588.39990234375
1087.39947317751	2581
1088.08492816207	2578.80004882813
1088.77029615495	2588.39990234375
1089.45557716387	2590.39990234375
1090.14077119656	2592.39990234375
1090.82587826075	2563
1091.51089836417	2566.39990234375
1092.19583151456	2569
1092.88067771963	2547.39990234375
1093.56543698712	2559.39990234375
1094.25010932475	2528.80004882813
1094.93469474026	2527.60009765625
1095.61919324137	2538.60009765625
1096.3036048358	2539.80004882813
1096.98792953129	2539.19995117188
1097.67216733555	2554.80004882813
1098.35631825632	2549
1099.04038230132	2548.19995117188
1099.72435947828	2551.19995117188
1100.40824979492	2540.80004882813
1101.09205325895	2520
1101.77576987812	2505
1102.45939966014	2484
1103.14294261273	2475
1103.82639874362	2482.39990234375
1104.50976806054	2460.80004882813
1105.19305057119	2483.80004882813
1105.87624628331	2480.19995117188
1106.55935520461	2522.39990234375
1107.24237734283	2540.39990234375
1107.92531270566	2518.60009765625
1108.60816130085	2542
1109.2909231361	2546.39990234375
1109.97359821914	2546.19995117188
1110.65618655768	2553.80004882813
1111.33868815946	2565.19995117188
1112.02110303217	2588.60009765625
1112.70343118355	2604
1113.3856726213	2597
1114.06782735316	2603.80004882813
1114.74989538683	2570
1115.43187673002	2534.60009765625
1116.11377139047	2502.80004882813
1116.79557937588	2499.80004882813
1117.47730069397	2516.80004882813
1118.15893535245	2550.80004882813
1118.84048335904	2563.60009765625
1119.52194472146	2589.60009765625
1120.20331944741	2588
1120.88460754462	2574.80004882813
1121.56580902079	2577.19995117188
1122.24692388364	2569.39990234375
1122.92795214088	2573.39990234375
1123.60889380022	2581.39990234375
1124.28974886938	2620.39990234375
1124.97051735606	2640.39990234375
1125.65119926799	2645
1126.33179461286	2647.39990234375
1127.0123033984	2645.19995117188
1127.6927256323	2627.19995117188
1128.37306132229	2626.80004882813
1129.05331047606	2628.19995117188
1129.73347310134	2602.60009765625
1130.41354920582	2617.39990234375
1131.09353879722	2574.80004882813
1131.77344188324	2581.39990234375
1132.45325847159	2573.80004882813
1133.13298856999	2580.39990234375
1133.81263218612	2592
1134.49218932772	2583
1135.17166000247	2582.60009765625
1135.85104421809	2579.19995117188
1136.53034198227	2538
1137.20955330274	2511.19995117188
1137.88867818718	2493.19995117188
1138.56771664331	2456.60009765625
1139.24666867883	2493.60009765625
1139.92553430144	2517.19995117188
1140.60431351885	2524.80004882813
1141.28300633876	2534.60009765625
1141.96161276887	2554.60009765625
1142.64013281689	2587
1143.31856649051	2571.39990234375
1143.99691379744	2559.80004882813
1144.67517474538	2550
1145.35334934203	2526
1146.03143759509	2515.19995117188
1146.70943951226	2513.80004882813
1147.38735510125	2487.80004882813
1148.06518436974	2476
1148.74292732545	2480.39990234375
1149.42058397606	2452.80004882813
1150.09815432928	2458
1150.7756383928	2465
1151.45303617432	2468.80004882813
1152.13034768155	2484.60009765625
1152.80757292217	2526.39990234375
1153.48471190389	2529.80004882813
1154.16176463439	2537
1154.83873112138	2527.60009765625
1155.51561137255	2528.60009765625
1156.1924053956	2531.19995117188
1156.86911319822	2541.19995117188
1157.5457347881	2531
1158.22227017294	2539.39990234375
1158.89871936044	2537
1159.57508235828	2537
1160.25135917416	2526
1160.92754981578	2517.80004882813
1161.60365429081	2523.60009765625
1162.27967260697	2534.39990234375
1162.95560477193	2504.19995117188
1163.63145079339	2502.60009765625
1164.30721067904	2491.60009765625
1164.98288443657	2470.39990234375
1165.65847207367	2499.60009765625
1166.33397359803	2515
1167.00938901735	2492.19995117188
1167.6847183393	2518.80004882813
1168.35996157157	2503
1169.03511872187	2530.19995117188
1169.71018979787	2551.60009765625
1170.38517480726	2542.60009765625
1171.06007375773	2535.39990234375
1171.73488665696	2525.80004882813
1172.40961351265	2524
1173.08425433247	2520.80004882813
1173.75880912412	2498.19995117188
1174.43327789528	2519.60009765625
1175.10766065364	2536.39990234375
1175.78195740687	2570.19995117188
1176.45616816267	2593.60009765625
1177.13029292871	2601
1177.80433171269	2612
1178.47828452229	2588.19995117188
1179.15215136518	2571
1179.82593224905	2571.39990234375
1180.49962718159	2588
1181.17323617047	2591
1181.84675922337	2617.80004882813
1182.52019634799	2627.60009765625
1183.193547552	2644.60009765625
1183.86681284307	2647.80004882813
1184.53999222889	2666
1185.21308571714	2661
1185.8860933155	2660.60009765625
1186.55901503165	2657.19995117188
1187.23185087326	2649.39990234375
1187.90460084802	2656.19995117188
1188.5772649636	2647.60009765625
1189.24984322768	2637.19995117188
1189.92233564794	2620.19995117188
1190.59474223206	2638.60009765625
1191.2670629877	2659.19995117188
1191.93929792255	2662.80004882813
1192.61144704428	2652.60009765625
1193.28351036058	2653.39990234375
1193.9554878791	2625.19995117188
1194.62737960754	2596.80004882813
1195.29918555356	2585.19995117188
1195.97090572483	2582.60009765625
1196.64254012903	2592
1197.31408877384	2606
1197.98555166693	2616
1198.65692881596	2611.80004882813
1199.32822022862	2592.19995117188
1199.99942591256	2547.60009765625
1200.67054587548	2559.60009765625
1201.34158012503	2544
1202.01252866889	2517
1202.68339151473	2529.19995117188
1203.35416867021	2519.19995117188
1204.02486014301	2497.60009765625
1204.6954659408	2516.60009765625
1205.36598607124	2516.80004882813
1206.03642054201	2521.19995117188
1206.70676936078	2539.60009765625
1207.3770325352	2528.60009765625
1208.04721007295	2541.39990234375
1208.7173019817	2536.19995117188
1209.38730826911	2525.39990234375
1210.05722894285	2516.80004882813
1210.72706401059	2487.80004882813
1211.39681347999	2471.80004882813
1212.06647735872	2473
1212.73605565444	2474.60009765625
1213.40554837481	2493.39990234375
1214.07495552751	2457.19995117188
1214.74427712019	2480.39990234375
1215.41351316052	2471.60009765625
1216.08266365617	2500.19995117188
1216.75172861479	2476.80004882813
1217.42070804405	2470.19995117188
1218.0896019516	2484.19995117188
1218.75841034513	2474.60009765625
1219.42713323227	2495.60009765625
1220.0957706207	2514.60009765625
1220.76432251808	2509
1221.43278893207	2511.39990234375
1222.10116987032	2494
1222.7694653405	2524.19995117188
1223.43767535026	2543.39990234375
1224.10579990727	2499
1224.77383901918	2497
1225.44179269366	2492.39990234375
1226.10966093835	2487.60009765625
1226.77744376093	2487.39990234375
1227.44514116904	2460.19995117188
1228.11275317034	2481
1228.78027977249	2470.39990234375
1229.44772098315	2470
1230.11507680996	2463.60009765625
1230.7823472606	2441.60009765625
1231.44953234271	2451.80004882813
1232.11663206394	2447.80004882813
1232.78364643195	2446.60009765625
1233.4505754544	2443.80004882813
1234.11741913894	2432
1234.78417749322	2433.19995117188
1235.45085052489	2445.80004882813
1236.11743824162	2417.39990234375
1236.78394065104	2412.80004882813
1237.45035776082	2411
1238.1166895786	2432
1238.78293611204	2456.39990234375
1239.44909736878	2466.19995117188
1240.11517335648	2459.60009765625
1240.78116408279	2435
1241.44706955535	2454.19995117188
1242.11288978182	2457.80004882813
1242.77862476985	2430.60009765625
1243.44427452708	2416.19995117188
1244.10983906116	2399.60009765625
1244.77531837974	2406.39990234375
1245.44071249047	2420
1246.106021401	2428.60009765625
1246.77124511898	2412.19995117188
1247.43638365204	2443.39990234375
1248.10143700783	2466.60009765625
1248.76640519401	2454.60009765625
1249.43128821822	2438.19995117188
1250.0960860881	2440.60009765625
1250.76079881129	2440
1251.42542639545	2423.39990234375
1252.08996884822	2384
1252.75442617723	2400.60009765625
1253.41879839014	2430
1254.08308549458	2421.19995117188
1254.74728749821	2422.19995117188
1255.41140440866	2434
1256.07543623357	2449.60009765625
1256.73938298059	2419
1257.40324465735	2436.80004882813
1258.0670212715	2419.60009765625
1258.73071283068	2411
1259.39431934253	2437.60009765625
1260.05784081468	2424.39990234375
1260.72127725479	2436.19995117188
1261.38462867049	2428.19995117188
1262.0478950694	2414.60009765625
1262.71107645919	2384.39990234375
1263.37417284748	2393
1264.03718424191	2417.19995117188
1264.70011065011	2432.60009765625
1265.36295207974	2423.80004882813
1266.02570853841	2434
1266.68838003378	2429.60009765625
1267.35096657346	2412.19995117188
1268.01346816511	2405.80004882813
1268.67588481636	2392.19995117188
1269.33821653483	2377.60009765625
1270.00046332817	2392.80004882813
1270.66262520401	2417.19995117188
1271.32470216998	2414.39990234375
1271.98669423372	2406
1272.64860140285	2374
1273.31042368503	2371.80004882813
1273.97216108786	2375
1274.633813619	2402.80004882813
1275.29538128606	2431.19995117188
1275.95686409669	2444.39990234375
1276.6182620585	2429.39990234375
1277.27957517914	2406.60009765625
1277.94080346624	2397.80004882813
1278.60194692741	2411.60009765625
1279.2630055703	2415.19995117188
1279.92397940253	2404.19995117188
1280.58486843173	2403
1281.24567266552	2415.80004882813
1281.90639211155	2389.80004882813
1282.56702677743	2374.80004882813
1283.2275766708	2375.60009765625
1283.88804179927	2366.19995117188
1284.54842217049	2368.39990234375
1285.20871779206	2374.39990234375
1285.86892867163	2371.19995117188
1286.52905481681	2389.19995117188
1287.18909623523	2380.80004882813
1287.84905293452	2401.19995117188
1288.5089249223	2416.19995117188
1289.16871220619	2423.19995117188
1289.82841479383	2447.80004882813
1290.48803269282	2453.80004882813
1291.1475659108	2450.19995117188
1291.80701445539	2466.39990234375
1292.46637833421	2428.60009765625
1293.12565755489	2377.19995117188
1293.78485212504	2377
1294.44396205229	2367.80004882813
1295.10298734425	2378.60009765625
1295.76192800856	2375.19995117188
1296.42078405283	2378.80004882813
1297.07955548467	2388.19995117188
1297.73824231171	2403.39990234375
1298.39684454158	2403.60009765625
1299.05536218188	2441.39990234375
1299.71379524023	2440.19995117188
1300.37214372427	2439.19995117188
1301.03040764159	2435.39990234375
1301.68858699983	2405
1302.34668180659	2403.80004882813
1303.0046920695	2414.60009765625
1303.66261779617	2455.19995117188
1304.32045899422	2439.80004882813
1304.97821567126	2463.19995117188
1305.63588783492	2481
1306.29347549279	2478
1306.95097865251	2471.60009765625
1307.60839732168	2469.60009765625
1308.26573150791	2473.80004882813
1308.92298121883	2479.39990234375
1309.58014646204	2478.19995117188
1310.23722724517	2478.80004882813
1310.89422357581	2480.80004882813
1311.55113546158	2460.60009765625
1312.2079629101	2455.60009765625
1312.86470592898	2474.80004882813
1313.52136452582	2500
1314.17793870824	2512.19995117188
1314.83442848386	2491
1315.49083386027	2515.39990234375
1316.14715484509	2514.60009765625
1316.80339144594	2514.39990234375
1317.45954367041	2508.60009765625
1318.11561152611	2523.60009765625
1318.77159502067	2511.60009765625
1319.42749416168	2514.19995117188
1320.08330895674	2523.39990234375
1320.73903941348	2506.39990234375
1321.3946855395	2508.80004882813
1322.0502473424	2488.39990234375
1322.70572482978	2463.39990234375
1323.36111800926	2465
1324.01642688845	2442.80004882813
1324.67165147494	2458.39990234375
1325.32679177634	2460.60009765625
1325.98184780025	2465.19995117188
1326.63681955429	2457.19995117188
1327.29170704605	2431.39990234375
1327.94651028314	2434.60009765625
1328.60122927316	2419
1329.25586402371	2405.80004882813
1329.9104145424	2392.19995117188
1330.56488083683	2404.80004882813
1331.2192629146	2384.60009765625
1331.87356078331	2401
1332.52777445056	2407.80004882813
1333.18190392395	2418.39990234375
1333.83594921109	2406.80004882813
1334.48991031958	2397.19995117188
1335.143787257	2368.60009765625
1335.79758003097	2377
1336.45128864908	2364.39990234375
1337.10491311893	2395.80004882813
1337.75845344813	2397.19995117188
1338.41190964425	2374.80004882813
1339.06528171491	2388
1339.71856966771	2393.80004882813
1340.37177351023	2375.39990234375
1341.02489325007	2359
1341.67792889484	2330.39990234375
1342.33088045212	2330.19995117188
1342.98374792952	2323.39990234375
1343.63653133462	2324
1344.28923067503	2331
1344.94184595833	2350.39990234375
1345.59437719212	2375.60009765625
1346.246824384	2401.60009765625
1346.89918754155	2387.39990234375
1347.55146667238	2407.80004882813
1348.20366178407	2436.80004882813
1348.85577288421	2438
1349.50779998041	2433.19995117188
1350.15974308024	2432.80004882813
1350.8116021913	2428.80004882813
1351.46337732119	2436.80004882813
1352.11506847748	2422.60009765625
1352.76667566778	2427.39990234375
1353.41819889967	2453
1354.06963818074	2443.60009765625
1354.72099351858	2459.60009765625
1355.37226492079	2465.19995117188
1356.02345239494	2471.60009765625
1356.67455594862	2516.60009765625
1357.32557558943	2555
1357.97651132496	2580
1358.62736316277	2624
1359.27813111048	2639.80004882813
1359.92881517565	2678.39990234375
1360.57941536589	2702
1361.22993168876	2729.39990234375
1361.88036415186	2744.39990234375
1362.53071276278	2779.60009765625
1363.1809775291	2755
1363.8311584584	2763.60009765625
1364.48125555826	2751.80004882813
1365.13126883627	2713.60009765625
1365.78119830001	2652.39990234375
1366.43104395707	2610.80004882813
1367.08080581503	2596.80004882813
1367.73048388147	2555.80004882813
1368.38007816397	2526.39990234375
1369.02958867011	2529.80004882813
1369.67901540748	2508
1370.32835838365	2501.39990234375
1370.9776176062	2490.19995117188
1371.62679308273	2496.39990234375
1372.27588482079	2477.39990234375
1372.92489282798	2481.39990234375
1373.57381711188	2474.19995117188
1374.22265768006	2460.60009765625
1374.87141454009	2428
1375.52008769957	2400
1376.16867716606	2393.19995117188
1376.81718294715	2375.60009765625
1377.4656050504	2351.60009765625
1378.1139434834	2359.19995117188
1378.76219825373	2364.60009765625
1379.41036936895	2362.80004882813
1380.05845683664	2389.39990234375
1380.70646066439	2394.39990234375
1381.35438085976	2389.19995117188
1382.00221743032	2379.39990234375
1382.64997038366	2371.39990234375
1383.29763972735	2377.60009765625
1383.94522546895	2367.39990234375
1384.59272761605	2367.60009765625
1385.24014617621	2400.39990234375
1385.88748115701	2384.19995117188
1386.53473256602	2394.39990234375
1387.18190041081	2356.60009765625
1387.82898469895	2360.39990234375
1388.47598543802	2328.39990234375
1389.12290263558	2354.19995117188
1389.7697362992	2305.60009765625
1390.41648643646	2297.60009765625
1391.06315305492	2278.60009765625
1391.70973616215	2261.19995117188
1392.35623576573	2262.39990234375
1393.00265187321	2266.19995117188
1393.64898449217	2286.39990234375
1394.29523363018	2279.60009765625
1394.94139929481	2284.60009765625
1395.58748149361	2245.19995117188
1396.23348023415	2269.39990234375
1396.87939552402	2233.80004882813
1397.52522737076	2213.60009765625
1398.17097578195	2175.39990234375
1398.81664076514	2175
1399.46222232792	2171
1400.10772047783	2167.60009765625
1400.75313522245	2172.80004882813
1401.39846656934	2187
1402.04371452605	2196.39990234375
1402.68887910016	2205.39990234375
1403.33396029924	2205.39990234375
1403.97895813083	2207.80004882813
1404.6238726025	2226.80004882813
1405.26870372182	2229.60009765625
1405.91345149634	2240.60009765625
1406.55811593363	2208.39990234375
1407.20269704125	2228.39990234375
1407.84719482676	2231.19995117188
1408.49160929772	2211.19995117188
1409.13594046168	2207
1409.78018832622	2230.19995117188
1410.42435289887	2238.80004882813
1411.06843418722	2237
1411.7124321988	2233.60009765625
1412.3563469412	2235.60009765625
1413.00017842194	2260.80004882813
1413.64392664861	2239.60009765625
1414.28759162875	2258.39990234375
1414.93117336992	2269.60009765625
1415.57467187967	2265.39990234375
1416.21808716557	2249.39990234375
1416.86141923516	2266.19995117188
1417.50466809601	2300
1418.14783375567	2288.80004882813
1418.79091622169	2274.19995117188
1419.43391550162	2289.80004882813
1420.07683160303	2297.80004882813
1420.71966453346	2289.39990234375
1421.36241430046	2279
1422.0050809116	2268.60009765625
1422.64766437442	2282.19995117188
1423.29016469647	2278.60009765625
1423.93258188531	2290
1424.57491594848	2303.39990234375
1425.21716689354	2274.19995117188
1425.85933472805	2288.19995117188
1426.50141945954	2263.39990234375
1427.14342109557	2239
1427.78533964369	2263
1428.42717511144	2251.39990234375
1429.06892750639	2249.19995117188
1429.71059683607	2246.80004882813
1430.35218310803	2212.60009765625
1430.99368632983	2223
1431.635106509	2222.60009765625
1432.2764436531	2248.80004882813
1432.91769776967	2271.19995117188
1433.55886886627	2277.19995117188
1434.19995695043	2277.39990234375
1434.84096202969	2283.19995117188
1435.48188411162	2268.19995117188
1436.12272320375	2262.39990234375
1436.76347931363	2260.60009765625
1437.40415244879	2236.39990234375
1438.0447426168	2270
1438.68524982518	2236.39990234375
1439.32567408148	2243.60009765625
1439.96601539325	2235.80004882813
1440.60627376803	2246.80004882813
1441.24644921336	2233.39990234375
1441.88654173678	2228
1442.52655134583	2216.60009765625
1443.16647804806	2217.39990234375
1443.806321851	2203.80004882813
1444.4460827622	2204.60009765625
1445.0857607892	2198.80004882813
1445.72535593953	2196
1446.36486822074	2203.19995117188
1447.00429764037	2178.39990234375
1447.64364420595	2190.80004882813
1448.28290792502	2190.80004882813
1448.92208880512	2187.80004882813
1449.56118685379	2171
1450.20020207857	2165.19995117188
1450.83913448699	2180.19995117188
1451.47798408659	2184.60009765625
1452.1167508849	2204.19995117188
1452.75543488947	2195.80004882813
1453.39403610782	2197.19995117188
1454.0325545475	2188.60009765625
1454.67099021603	2197.19995117188
1455.30934312097	2219.39990234375
1455.94761326982	2217.19995117188
1456.58580067014	2203.19995117188
1457.22390532945	2216
1457.86192725529	2206.19995117188
1458.49986645519	2208
1459.13772293668	2203.39990234375
1459.7754967073	2182.19995117188
1460.41318777457	2178.19995117188
1461.05079614604	2194.60009765625
1461.68832182922	2173.19995117188
1462.32576483166	2181.60009765625
1462.96312516087	2144.19995117188
1463.6004028244	2168.39990234375
1464.23759782977	2187.80004882813
1464.8747101845	2214.80004882813
1465.51173989614	2241.80004882813
1466.14868697221	2258.39990234375
1466.78555142024	2242
1467.42233324774	2235.60009765625
1468.05903246227	2218.19995117188
1468.69564907133	2223.80004882813
1469.33218308246	2197.39990234375
1469.96863450317	2209.19995117188
1470.60500334102	2203.39990234375
1471.2412896035	2238.80004882813
1471.87749329816	2254.39990234375
1472.51361443251	2243
1473.14965301409	2255.60009765625
1473.78560905041	2246.19995117188
1474.421482549	2213.39990234375
1475.05727351739	2242.19995117188
1475.69298196309	2227.60009765625
1476.32860789364	2238.60009765625
1476.96415131654	2209
1477.59961223934	2210.39990234375
1478.23499066954	2195.39990234375
1478.87028661467	2203
1479.50550008226	2197.39990234375
1480.14063107981	2208.19995117188
1480.77567961486	2192.39990234375
1481.41064569492	2202
1482.04552932752	2190
1482.68033052017	2181.19995117188
1483.31504928039	2198.60009765625
1483.9496856157	2211
1484.58423953363	2214.60009765625
1485.21871104168	2207.39990234375
1485.85310014738	2217.39990234375
1486.48740685824	2217.80004882813
1487.12163118178	2197.60009765625
1487.75577312553	2208.19995117188
1488.38983269698	2207
1489.02380990367	2211.60009765625
1489.65770475311	2226.60009765625
1490.29151725281	2240.39990234375
1490.92524741029	2246.60009765625
1491.55889523306	2227.19995117188
1492.19246072863	2212.80004882813
1492.82594390453	2235.80004882813
1493.45934476826	2254.19995117188
1494.09266332734	2265.39990234375
1494.72589958928	2259.60009765625
1495.3590535616	2293
1495.99212525181	2300.19995117188
1496.62511466741	2283
1497.25802181592	2272.80004882813
1497.89084670485	2254.19995117188
1498.52358934172	2298.80004882813
1499.15624973403	2299.60009765625
1499.7888278893	2306.60009765625
1500.42132381503	2312.60009765625
1501.05373751873	2348.39990234375
1501.68606900792	2378.39990234375
1502.31831829009	2411
1502.95048537277	2427
1503.58257026346	2459
1504.21457296966	2468.39990234375
1504.84649349889	2510.80004882813
1505.47833185864	2511
1506.11008805644	2521.19995117188
1506.74176209978	2507.80004882813
1507.37335399617	2498.80004882813
1508.00486375312	2486.39990234375
1508.63629137813	2453.19995117188
1509.2676368787	2454.19995117188
1509.89890026235	2458.80004882813
1510.53008153658	2480.60009765625
1511.16118070889	2482.19995117188
1511.79219778677	2506.39990234375
1512.42313277775	2469
1513.05398568932	2436.80004882813
1513.68475652898	2454.39990234375
1514.31544530424	2422
1514.9460520226	2410.60009765625
1515.57657669155	2389.39990234375
1516.20701931861	2361
1516.83737991127	2327.39990234375
1517.46765847702	2302
1518.09785502339	2281.80004882813
1518.72796955785	2277.80004882813
1519.35800208792	2289
1519.98795262109	2278.60009765625
1520.61782116486	2297.19995117188
1521.24760772673	2289.80004882813
1521.87731231419	2270.19995117188
1522.50693493475	2259.60009765625
1523.1364755959	2270.60009765625
1523.76593430514	2237
1524.39531106997	2267.60009765625
1525.02460589788	2250.80004882813
1525.65381879637	2238.39990234375
1526.28294977293	2230.19995117188
1526.91199883507	2216.80004882813
1527.54096599027	2198.80004882813
1528.16985124603	2201.19995117188
1528.79865460984	2194.80004882813
1529.4273760892	2220.60009765625
1530.05601569161	2208.60009765625
1530.68457342455	2230.60009765625
1531.31304929552	2223.39990234375
1531.94144331201	2250.60009765625
1532.56975548151	2243.80004882813
1533.19798581152	2263.19995117188
1533.82613430953	2263.60009765625
1534.45420098302	2260.60009765625
1535.08218583949	2257
1535.71008888643	2256.60009765625
1536.33791013134	2246.19995117188
1536.96564958169	2238.60009765625
1537.59330724498	2230.60009765625
1538.22088312871	2243.60009765625
1538.84837724034	2205.39990234375
1539.47578958739	2198
1540.10312017733	2195
1540.73036901765	2164.19995117188
1541.35753611584	2175.39990234375
1541.98462147939	2170.19995117188
1542.61162511578	2146.80004882813
1543.2385470325	2166
1543.86538723704	2162
1544.49214573688	2179
1545.11882253951	2191.60009765625
1545.74541765241	2191.19995117188
1546.37193108306	2213.80004882813
1546.99836283896	2190.39990234375
1547.62471292758	2209.80004882813
1548.25098135641	2181.60009765625
1548.87716813294	2182.39990234375
1549.50327326464	2172.60009765625
1550.12929675899	2189.19995117188
1550.75523862349	2191
1551.38109886561	2195.60009765625
1552.00687749284	2179.60009765625
1552.63257451264	2190
1553.25818993252	2177.39990234375
1553.88372375994	2172
1554.50917600239	2160.19995117188
1555.13454666734	2136.19995117188
1555.75983576228	2143.39990234375
1556.38504329469	2144.39990234375
1557.01016927204	2136.80004882813
1557.63521370181	2133.80004882813
1558.26017659149	2126.39990234375
1558.88505794854	2165.80004882813
1559.50985778045	2180.39990234375
1560.13457609469	2175.80004882813
1560.75921289874	2156.39990234375
1561.38376820008	2144.39990234375
1562.00824200618	2149.19995117188
1562.63263432452	2169.80004882813
1563.25694516257	2153.60009765625
1563.88117452781	2164.19995117188
1564.50532242772	2174.80004882813
1565.12938886976	2158
1565.75337386141	2151.39990234375
1566.37727741015	2137.80004882813
1567.00109952345	2159
1567.62484020878	2159
1568.24849947361	2167.39990234375
1568.87207732542	2193.80004882813
1569.49557377168	2199.80004882813
1570.11898881986	2199.39990234375
1570.74232247743	2194.60009765625
1571.36557475186	2217.39990234375
1571.98874565062	2223
1572.61183518119	2245.39990234375
1573.23484335103	2243.19995117188
1573.85777016761	2262.60009765625
1574.4806156384	2272.80004882813
1575.10337977088	2288.80004882813
1575.7260625725	2268
1576.34866405074	2275.39990234375
1576.97118421306	2269
1577.59362306694	2284.80004882813
1578.21598061984	2287
1578.83825687922	2286.19995117188
1579.46045185255	2242
1580.08256554731	2233
1580.70459797094	2215.39990234375
1581.32654913093	2222.39990234375
1581.94841903473	2189.19995117188
1582.57020768981	2163.60009765625
1583.19191510364	2140.80004882813
1583.81354128367	2139.39990234375
1584.43508623737	2123.19995117188
1585.05654997221	2129
1585.67793249564	2101.39990234375
1586.29923381514	2092.19995117188
1586.92045393815	2088.60009765625
1587.54159287216	2105
1588.1626506246	2091.60009765625
1588.78362720296	2099
1589.40452261468	2080.39990234375
1590.02533686724	2072.80004882813
1590.64606996808	2076.60009765625
1591.26672192467	2071.60009765625
1591.88729274447	2056.80004882813
1592.50778243493	2052.19995117188
1593.12819100352	2037.80004882813
1593.7485184577	2029.59997558594
1594.36876480492	2036
1594.98893005264	2036.40002441406
1595.60901420832	2017.80004882813
1596.22901727941	2023
1596.84893927338	2033.40002441406
1597.46878019767	2046
1598.08854005975	2059.60009765625
1598.70821886707	2072.39990234375
1599.32781662708	2089.60009765625
1599.94733334725	2087.80004882813
1600.56676903502	2064.80004882813
1601.18612369785	2066
1601.8053973432	2059.80004882813
1602.42458997851	2030
1603.04370161124	2036.40002441406
1603.66273224884	2027.59997558594
1604.28168189878	2025.19995117188
1604.90055056849	2007
1605.51933826543	1992.59997558594
1606.13804499705	2002.80004882813
1606.75667077081	2005.59997558594
1607.37521559415	2013.19995117188
1607.99367947452	2019.80004882813
1608.61206241938	2013.59997558594
1609.23036443618	2007.19995117188
1609.84858553236	1975.59997558594
1610.46672571537	1992.80004882813
1611.08478499267	2007.40002441406
1611.7027633717	2029.80004882813
1612.3206608599	2012.40002441406
1612.93847746473	2016.19995117188
1613.55621319364	2009
1614.17386805407	1991.19995117188
1614.79144205347	1998
1615.40893519928	1960
1616.02634749895	1975.40002441406
1616.64367895993	1960.80004882813
1617.26092958966	1951.19995117188
1617.87809939559	1943.59997558594
1618.49518838516	1955.19995117188
1619.11219656582	1937.80004882813
1619.729123945	1940
1620.34597053016	1961.80004882813
1620.96273632874	1954
1621.57942134818	1933.19995117188
1622.19602559592	1942
1622.8125490794	1944
1623.42899180607	1944.19995117188
1624.04535378337	1925
1624.66163501874	1950.80004882813
1625.27783551963	1938.80004882813
1625.89395529346	1946
1626.50999434768	2008.80004882813
1627.12595268974	1984.40002441406
1627.74183032707	1915.19995117188
1628.3576272671	1909.80004882813
1628.97334351729	1885
1629.58897908506	1882.19995117188
1630.20453397786	1897
1630.82000820313	1897.59997558594
1631.43540176829	1908.80004882813
1632.05071468079	1931
1632.66594694807	1936.40002441406
1633.28109857756	1935.19995117188
1633.8961695767	1963.59997558594
1634.51115995292	1944.80004882813
1635.12606971366	1942.59997558594
1635.74089886636	1942.59997558594
1636.35564741844	1929.40002441406
1636.97031537734	1947.40002441406
1637.58490275051	1951
1638.19940954536	1945.80004882813
1638.81383576934	1943.40002441406
1639.42818142987	1960.40002441406
1640.0424465344	1994.80004882813
1640.65663109034	2000.40002441406
1641.27073510515	1999.19995117188
1641.88475858623	2021.19995117188
1642.49870154104	2022
1643.11256397699	2030.80004882813
1643.72634590152	2006.40002441406
1644.34004732206	2018
1644.95366824604	2032.59997558594
1645.56720868089	2042
1646.18066863404	2055.19995117188
1646.79404811291	2058.60009765625
1647.40734712494	2079.60009765625
1648.02056567755	2095.39990234375
1648.63370377817	2107.60009765625
1649.24676143423	2100
1649.85973865316	2091.39990234375
1650.47263544238	2105
1651.08545180932	2128.19995117188
1651.6981877614	2098.60009765625
1652.31084330606	2118
1652.92341845071	2069.19995117188
1653.53591320278	2062
1654.1483275697	2026.19995117188
1654.7606615589	2020.80004882813
1655.37291517778	2002.59997558594
1655.98508843379	1980
1656.59718133434	1966.19995117188
1657.20919388685	1956.19995117188
1657.82112609875	1938.40002441406
1658.43297797747	1938.80004882813
1659.04474953041	1920.40002441406
1659.65644076501	1904
1660.26805168869	1905.59997558594
1660.87958230886	1896.40002441406
1661.49103263294	1875.19995117188
1662.10240266837	1867.80004882813
1662.71369242255	1870.19995117188
1663.32490190291	1868.19995117188
1663.93603111687	1885.59997558594
1664.54708007184	1875.59997558594
1665.15804877524	1871.59997558594
1665.7689372345	1878.19995117188
1666.37974545703	1871
1666.99047345024	1853.80004882813
1667.60112122156	1868
1668.2116887784	1844.80004882813
1668.82217612818	1842.19995117188
1669.43258327831	1801
1670.04291023622	1782
1670.65315700931	1761.19995117188
1671.263323605	1762.80004882813
1671.8734100307	1744.40002441406
1672.48341629384	1724.80004882813
1673.09334240182	1733.19995117188
1673.70318836206	1714.80004882813
1674.31295418197	1720.80004882813
1674.92263986896	1711.19995117188
1675.53224543046	1730.40002441406
1676.14177087386	1728.19995117188
1676.75121620658	1716
1677.36058143604	1732.40002441406
1677.96986656964	1730
1678.5790716148	1742.80004882813
1679.18819657892	1757.19995117188
1679.79724146943	1762
1680.40620629372	1770
1681.0150910592	1790
1681.6238957733	1790.80004882813
1682.23262044341	1800.59997558594
1682.84126507694	1779
1683.4498296813	1792.40002441406
1684.0583142639	1792.40002441406
1684.66671883216	1776.40002441406
1685.27504339346	1770.80004882813
1685.88328795523	1761
1686.49145252487	1737.19995117188
1687.09953710978	1742
1687.70754171737	1752.80004882813
1688.31546635505	1759.59997558594
1688.92331103021	1766.80004882813
1689.53107575028	1764.19995117188
1690.13876052265	1767
1690.74636535472	1784.80004882813
1691.3538902539	1765.59997558594
1691.96133522759	1757.19995117188
1692.5687002832	1747.80004882813
1693.17598542812	1729.19995117188
1693.78319066977	1733.40002441406
1694.39031601554	1728.40002441406
1694.99736147283	1735.40002441406
1695.60432704905	1742.80004882813
1696.2112127516	1746.80004882813
1696.81801858788	1784.40002441406
1697.42474456528	1768.59997558594
1698.03139069121	1753.80004882813
1698.63795697307	1761.80004882813
1699.24444341826	1749.19995117188
1699.85085003417	1751.80004882813
1700.45717682821	1741.40002441406
1701.06342380778	1731.59997558594
1701.66959098026	1745.80004882813
1702.27567835307	1731
1702.88168593359	1724.19995117188
1703.48761372922	1722.19995117188
1704.09346174737	1712.19995117188
1704.69922999542	1709.59997558594
1705.30491848077	1707
1705.91052721083	1697.40002441406
1706.51605619297	1709.80004882813
1707.12150543461	1693.19995117188
1707.72687494312	1686.19995117188
1708.33216472592	1673.40002441406
1708.93737479039	1668.19995117188
1709.54250514392	1668
