634.977642221345	2934.80004882813
635.719821695905	2954.60009765625
636.461909203392	2951
637.203904751776	2965
637.945808349023	2961.60009765625
638.687620003102	2989.39990234375
639.42933972198	3006.39990234375
640.170967513616	3009
640.912503385981	2970.39990234375
641.653947347041	2962.19995117188
642.395299404758	2933.80004882813
643.13655956709	2905.80004882813
643.877727842014	2850
644.61880423748	2819.39990234375
645.359788761455	2814
646.100681421905	2826.19995117188
646.841482226789	2877.19995117188
647.582191184074	2916.39990234375
648.322808301711	2879.39990234375
649.06333358767	2894.19995117188
649.803767049909	2888.80004882813
650.544108696385	2911.19995117188
651.28435853506	2950
652.024516573894	2967.80004882813
652.764582820849	2973.60009765625
653.504557283875	2978.80004882813
654.244439970937	2985.39990234375
654.984230889991	2981.19995117188
655.723930048995	3023
656.463537455909	3021
657.203053118683	3052.80004882813
657.942477045275	3036.80004882813
658.681809243647	3048.60009765625
659.421049721747	3013.39990234375
660.160198487535	2997.80004882813
660.899255548962	3013
661.638220913985	3009.80004882813
662.377094590559	3034.19995117188
663.115876586631	3051.80004882813
663.854566910165	3047.39990234375
664.593165569107	3032.60009765625
665.331672571406	3053.19995117188
666.07008792502	3007
666.808411637902	2976.39990234375
667.546643717996	2957.60009765625
668.284784173258	2946.80004882813
669.022833011641	2961.80004882813
669.760790241089	2975
670.498655869554	2947
671.236429904987	2939.80004882813
671.97411235534	2957.39990234375
672.711703228551	2970.80004882813
673.449202532577	3019.80004882813
674.186610275364	3089.19995117188
674.923926464857	3101
675.661151109008	3124
676.398284215759	3111.19995117188
677.135325793058	3113.80004882813
677.87227584885	3126
678.609134391082	3170.39990234375
679.345901427696	3198.39990234375
680.082576966644	3162.19995117188
680.819161015861	3168.39990234375
681.555653583298	3152.60009765625
682.292054676895	3113.19995117188
683.028364304594	3103.39990234375
683.764582474344	3080.39990234375
684.500709194083	3057.60009765625
685.236744471752	3065.39990234375
685.972688315294	3069
686.708540732652	3064.60009765625
687.444301731762	3079
688.179971320572	3072
688.915549507013	3074
689.651036299034	3032
690.386431704569	3044.80004882813
691.121735731559	2998.19995117188
691.85694838794	2969.19995117188
692.592069681652	2986.39990234375
693.327099620632	2985.19995117188
694.062038212821	2977.60009765625
694.796885466149	2973.80004882813
695.531641388561	3020
696.266305987987	3069.60009765625
697.000879272367	3097.19995117188
697.735361249632	3131.19995117188
698.469751927722	3118.19995117188
699.204051314568	3119.19995117188
699.938259418107	3096.80004882813
700.672376246272	3080.19995117188
701.406401806997	3103.80004882813
702.140336108212	3093.60009765625
702.874179157855	3119.80004882813
703.607930963856	3129.39990234375
704.341591534147	3135.39990234375
705.07516087666	3087.39990234375
705.808638999324	3137.80004882813
706.542025910073	3131.60009765625
707.275321616841	3127.80004882813
708.008526127549	3133.39990234375
708.741639450132	3119
709.474661592521	3094
710.207592562641	3126.39990234375
710.940432368424	3102
711.673181017796	3104.80004882813
712.405838518687	3128.19995117188
713.138404879025	3095.80004882813
713.870880106731	3071.60009765625
714.603264209738	3093
715.335557195971	3144.39990234375
716.067759073357	3152.19995117188
716.799869849816	3177
717.531889533281	3175.39990234375
718.263818131673	3174.19995117188
718.995655652917	3170
719.727402104934	3126.80004882813
720.45905749565	3122
721.19062183299	3096.39990234375
721.922095124877	3078.19995117188
722.653477379231	3076.80004882813
723.384768603973	3083.19995117188
724.11596880703	3113
724.847077996319	3119
725.578096179762	3158.80004882813
726.309023365281	3182.19995117188
727.039859560792	3167.19995117188
727.770604774222	3151.19995117188
728.501259013484	3160.80004882813
729.231822286501	3183.19995117188
729.962294601191	3213.19995117188
730.692675965469	3152.39990234375
731.42296638726	3083.60009765625
732.153165874472	3090.60009765625
732.883274435032	3114
733.613292076851	3133.60009765625
734.343218807843	3166.60009765625
735.07305463593	3163
735.802799569028	3159.19995117188
736.532453615048	3140.80004882813
737.262016781904	3104.80004882813
737.991489077517	3086.19995117188
738.720870509794	3078
739.450161086654	3091.39990234375
740.179360816009	3125.80004882813
740.908469705772	3167
741.637487763854	3198.39990234375
742.366414998168	3212.80004882813
743.095251416623	3205.80004882813
743.823997027137	3237.60009765625
744.552651837618	3225.80004882813
745.281215855978	3234.19995117188
746.009689090124	3217.39990234375
746.738071547964	3179.80004882813
747.466363237419	3145.60009765625
748.194564166384	3135.19995117188
748.92267434278	3125
749.650693774504	3146.19995117188
750.378622469476	3133
751.106460435596	3170.60009765625
751.834207680771	3142.19995117188
752.561864212909	3178.60009765625
753.289430039919	3195.60009765625
754.016905169707	3161.39990234375
754.744289610175	3142.80004882813
755.471583369231	3145.39990234375
756.198786454782	3155
756.925898874728	3136.19995117188
757.652920636979	3142
758.379851749433	3147.39990234375
759.106692219996	3154.80004882813
759.833442056572	3177
760.560101267063	3212.80004882813
761.28666985937	3256
762.0131478414	3265
762.739535221046	3278.19995117188
763.465832006219	3281.39990234375
764.192038204812	3306.60009765625
764.918153824731	3305.39990234375
765.644178873872	3347.60009765625
766.370113360138	3376.39990234375
767.095957291425	3408.39990234375
767.821710675635	3464.39990234375
768.547373520665	3512.39990234375
769.272945834415	3567.60009765625
769.998427624781	3610.60009765625
770.723818899658	3650.80004882813
771.449119666949	3641.19995117188
772.174329934546	3646.80004882813
772.899449710347	3670.60009765625
773.624479002248	3689.80004882813
774.349417818145	3682.60009765625
775.074266165934	3688.80004882813
775.799024053505	3694.19995117188
776.523691488757	3649.60009765625
777.248268479582	3598.39990234375
777.972755033877	3548.80004882813
778.69715115953	3493.80004882813
779.421456864441	3424.60009765625
780.145672156493	3373.60009765625
780.869797043587	3321.19995117188
781.593831533611	3317.80004882813
782.317775634457	3308
783.041629354012	3307
783.765392700174	3296.19995117188
784.489065680828	3252.60009765625
785.212648303866	3202.19995117188
785.936140577177	3190.60009765625
786.659542508652	3223.60009765625
787.382854106174	3228
788.106075377639	3206
788.829206330928	3208.39990234375
789.552246973933	3201.60009765625
790.275197314542	3245.39990234375
790.998057360638	3231.60009765625
791.720827120108	3253.19995117188
792.443506600841	3222.60009765625
793.166095810722	3214.60009765625
793.888594757635	3183.19995117188
794.611003449465	3178.19995117188
795.333321894098	3211.80004882813
796.055550099417	3218
796.777688073308	3251.39990234375
797.499735823654	3252.19995117188
798.221693358334	3212.60009765625
798.943560685235	3191.80004882813
799.665337812239	3197.19995117188
800.387024747226	3213.19995117188
801.108621498075	3221.60009765625
801.830128072674	3212.39990234375
802.551544478902	3245.39990234375
803.272870724636	3224
803.994106817761	3209.80004882813
804.715252766148	3217.80004882813
805.436308577687	3202.19995117188
806.157274260251	3172.60009765625
806.878149821721	3172.60009765625
807.598935269973	3153.80004882813
808.319630612886	3152
809.040235858336	3145.80004882813
809.760751014202	3129
810.481176088361	3135.80004882813
811.201511088685	3123.60009765625
811.921756023059	3132.39990234375
812.641910899347	3104.19995117188
813.361975725432	3132
814.081950509188	3137
814.801835258489	3130.60009765625
815.521629981206	3101.60009765625
816.241334685218	3099
816.960949378392	3110
817.680474068606	3099.80004882813
818.399908763731	3104.80004882813
819.11925347164	3137.80004882813
819.838508200202	3131.19995117188
820.55767295729	3117.19995117188
821.276747750778	3098.80004882813
821.995732588531	3102.60009765625
822.714627478425	3091.19995117188
823.433432428327	3081
824.152147446105	3104.80004882813
824.870772539632	3115.39990234375
825.589307716775	3149
826.307752985404	3181
827.026108353378	3190.60009765625
827.744373828579	3154.80004882813
828.462549418867	3176.19995117188
829.180635132107	3159.80004882813
829.898630976168	3203.19995117188
830.616536958915	3210.60009765625
831.334353088218	3204.60009765625
832.052079371938	3226.19995117188
832.769715817942	3210
833.487262434092	3211
834.204719228255	3207.39990234375
834.922086208293	3169
835.639363382073	3172.80004882813
836.356550757456	3171.80004882813
837.073648342304	3170.80004882813
837.790656144484	3181.19995117188
838.507574171847	3191.39990234375
839.22440243227	3184.19995117188
839.941140933601	3144
840.657789683706	3141.39990234375
841.374348690448	3152.39990234375
842.090817961686	3159
842.807197505276	3166.60009765625
843.523487329083	3181.80004882813
844.23968744096	3181.60009765625
844.955797848771	3156.60009765625
845.671818560374	3167.19995117188
846.387749583622	3143.19995117188
847.103590926378	3143.19995117188
847.819342596497	3152.60009765625
848.535004601833	3134.19995117188
849.25057695025	3133.80004882813
849.966059649598	3153
850.681452707735	3108.19995117188
851.396756132513	3100.80004882813
852.111969931789	3113.80004882813
852.827094113419	3138.19995117188
853.542128685257	3134.19995117188
854.257073655158	3173.39990234375
854.971929030969	3177.60009765625
855.686694820551	3171.19995117188
856.40137103175	3156
857.115957672423	3164.80004882813
857.830454750423	3135
858.544862273597	3100.39990234375
859.259180249797	3119.19995117188
859.97340868688	3156.39990234375
860.687547592688	3170.80004882813
861.401596975075	3182.80004882813
862.115556841891	3220.39990234375
862.829427200985	3232.39990234375
863.543208060205	3238.39990234375
864.256899427402	3206.39990234375
864.970501310423	3187.80004882813
865.684013717114	3149.39990234375
866.397436655325	3153.80004882813
867.110770132901	3153.60009765625
867.824014157691	3127.39990234375
868.537168737542	3157.19995117188
869.250233880299	3162.19995117188
869.963209593803	3141.80004882813
870.676095885902	3131.80004882813
871.388892764445	3131.39990234375
872.101600237276	3130.19995117188
872.814218312233	3132.19995117188
873.526746997165	3129.39990234375
874.239186299914	3113
874.951536228323	3134
875.663796790231	3172.80004882813
876.375967993487	3140.60009765625
877.088049845928	3139.80004882813
877.8000423554	3113.80004882813
878.511945529739	3123.39990234375
879.22375937679	3101.19995117188
879.935483904388	3090.80004882813
880.64711912038	3094
881.358665032604	3096.60009765625
882.070121648892	3111.19995117188
882.78148897709	3082
883.492767025039	3097.80004882813
884.203955800571	3100
884.915055311525	3107.80004882813
885.626065565741	3089.80004882813
886.336986571053	3067.80004882813
887.047818335298	3058.60009765625
887.758560866315	3058.60009765625
888.469214171937	3076
889.179778260005	3069.60009765625
889.890253138347	3076.19995117188
890.600638814803	3057.60009765625
891.310935297204	3021.19995117188
892.021142593385	3046.19995117188
892.731260711183	3071.80004882813
893.441289658429	3084.19995117188
894.15122944295	3075.60009765625
894.861080072591	3100.60009765625
895.570841555173	3071
896.280513898534	3079
896.990097110503	3097
897.699591198913	3116.39990234375
898.408996171595	3153.60009765625
899.118312036375	3136.80004882813
899.827538801089	3148.80004882813
900.536676473561	3152.80004882813
901.245725061628	3122.60009765625
901.954684573109	3125.39990234375
902.663555015838	3187.19995117188
903.372336397644	3183.80004882813
904.081028726351	3200.60009765625
904.789632009793	3217.60009765625
905.49814625579	3226
906.20657147217	3217.60009765625
906.914907666765	3182.19995117188
907.623154847391	3167.19995117188
908.331313021885	3147.19995117188
909.039382198064	3145.60009765625
909.747362383754	3138.19995117188
910.455253586782	3162
911.163055814972	3180
911.870769076143	3175.60009765625
912.578393378126	3136.80004882813
913.285928728738	3129.80004882813
913.993375135802	3140
914.700732607145	3156.19995117188
915.408001150579	3141
916.115180773937	3173.19995117188
916.822271485037	3203.60009765625
917.529273291693	3182.39990234375
918.236186201733	3179.80004882813
918.943010222971	3200.39990234375
919.649745363234	3194.80004882813
920.356391630333	3200.80004882813
921.062949032096	3185.39990234375
921.769417576333	3157.80004882813
922.475797270864	3153.60009765625
923.182088123512	3171.60009765625
923.888290142089	3151.80004882813
924.594403334414	3171.60009765625
925.300427708304	3188.19995117188
926.006363271572	3200.39990234375
926.712210032039	3176.39990234375
927.417967997522	3175.19995117188
928.123637175827	3147.80004882813
928.829217574776	3164.80004882813
929.534709202184	3149.19995117188
930.240112065859	3153.39990234375
930.945426173621	3101.60009765625
931.650651533283	3137
932.355788152653	3111
933.060836039547	3105.19995117188
933.765795201776	3104.39990234375
934.470665647153	3088
935.175447383492	3068.60009765625
935.880140418599	3057.39990234375
936.584744760286	3061.19995117188
937.289260416366	3093
937.993687394647	3106.60009765625
938.698025702939	3080
939.402275349051	3131.19995117188
940.106436340793	3155.80004882813
940.810508685976	3176.60009765625
941.5144923924	3180
942.21838746788	3157.19995117188
942.922193920223	3140.39990234375
943.625911757231	3133.60009765625
944.329540986716	3129.60009765625
945.033081616484	3068
945.736533654334	3050.80004882813
946.439897108083	3033.39990234375
947.143171985529	3047
947.846358294477	3052
948.549456042732	3061.39990234375
949.2524652381	3084.60009765625
949.955385888382	3100.19995117188
950.658218001384	3094
951.360961584907	3097.80004882813
952.063616646755	3133
952.766183194733	3135.60009765625
953.468661236636	3129.19995117188
954.171050780271	3119.60009765625
954.873351833437	3114.60009765625
955.575564403935	3102.39990234375
956.277688499565	3108.39990234375
956.97972412813	3067.19995117188
957.681671297424	3086.60009765625
958.383530015255	3091.60009765625
959.085300289414	3077.39990234375
959.786982127703	3097
960.488575537918	3099
961.190080527859	3066
961.891497105327	3056.19995117188
962.592825278111	3011.19995117188
963.294065054012	3011.80004882813
963.995216440829	3046.39990234375
964.696279446353	3047
965.397254078383	3055.80004882813
966.098140344714	3078.60009765625
966.798938253139	3071.80004882813
967.499647811456	3075.60009765625
968.200269027458	3057.19995117188
968.900801908937	3048.80004882813
969.601246463685	3043.39990234375
970.3016026995	3009
971.001870624169	3047.19995117188
971.702050245491	3024.19995117188
972.402141571249	2995
973.102144609245	3001
973.802059367267	3009.19995117188
974.501885853103	3007.80004882813
975.201624074541	3028
975.901274039379	3047.60009765625
976.600835755399	3084.19995117188
977.3003092304	3074.60009765625
977.999694472158	3069.80004882813
978.698991488473	3042.39990234375
979.39820028713	3044
980.097320875915	3048
980.796353262618	3054.19995117188
981.495297455024	3084.39990234375
982.194153460919	3067
982.892921288093	3099.60009765625
983.591600944331	3087.60009765625
984.290192437419	3068.39990234375
984.98869577514	3076
985.687110965282	3042.80004882813
986.385438015629	3042.80004882813
987.083676933961	3027
987.781827728069	3032
988.479890405732	3032
989.177864974732	3010.19995117188
989.875751442857	3015.19995117188
990.573549817888	3018.60009765625
991.271260107602	3051.19995117188
991.968882319786	3066
992.666416462217	3068.39990234375
993.363862542681	3034.60009765625
994.061220568959	3031.80004882813
994.758490548823	3020.19995117188
995.455672490061	3011.60009765625
996.152766400451	3009.39990234375
996.849772287773	3032.19995117188
997.5466901598	3037.19995117188
998.243520024317	3078.60009765625
998.940261889097	3047.19995117188
999.636915761923	2996.19995117188
1000.33348165057	2994
1001.02995956281	2944.39990234375
1001.72634950643	2954.60009765625
1002.42265148919	2983
1003.11886551889	2985.19995117188
1003.81499160328	3012.39990234375
1004.51102975015	3055.80004882813
1005.20697996727	3054.39990234375
1005.90284226242	3048
1006.59861664337	3044.19995117188
1007.2943031179	3039.60009765625
1007.98990169377	3059.39990234375
1008.68541237876	3082.80004882813
1009.38083518064	3108.60009765625
1010.07617010719	3138.39990234375
1010.77141716617	3122.60009765625
1011.46657636536	3137.80004882813
1012.16164771253	3114.80004882813
1012.85663121546	3100.80004882813
1013.5515268819	3039.39990234375
1014.24633471963	3019.39990234375
1014.94105473642	3027
1015.63568694004	3015.39990234375
1016.33023133826	3008.19995117188
1017.02468793885	3007.19995117188
1017.71905674957	3035.19995117188
1018.41333777819	3027
1019.10753103249	3020.39990234375
1019.80163652022	3042
1020.49565424916	3036.60009765625
1021.18958422707	3057.39990234375
1021.88342646171	3044.80004882813
1022.57718096085	3010
1023.27084773227	3056
1023.96442678371	3054.19995117188
1024.65791812296	3021.19995117188
1025.35132175776	3011.19995117188
1026.04463769589	2976.39990234375
1026.73786594511	2915.60009765625
1027.43100651318	2936.39990234375
1028.12405940786	2939.19995117188
1028.81702463692	2947
1029.50990220812	2950.60009765625
1030.20269212921	2960.80004882813
1030.89539440798	2972
1031.58800905216	2979.39990234375
1032.28053606952	2954.80004882813
1032.97297546784	2920.19995117188
1033.66532725485	2929
1034.35759143832	2957.80004882813
1035.04976802602	2981
1035.7418570257	2937
1036.43385844511	2958.19995117188
1037.12577229202	2958.80004882813
1037.81759857419	2937
1038.50933729937	2912.19995117188
1039.20098847531	2962.39990234375
1039.89255210978	3010.80004882813
1040.58402821053	2994.39990234375
1041.27541678532	2992.39990234375
1041.96671784191	2957.60009765625
1042.65793138804	2941.60009765625
1043.34905743147	2946.80004882813
1044.04009597996	2968.19995117188
1044.73104704125	3002
1045.42191062312	3003.80004882813
1046.1126867333	3003
1046.80337537955	2983.60009765625
1047.49397656962	2992.80004882813
1048.18449031127	2994.80004882813
1048.87491661225	2957.80004882813
1049.5652554803	2961.19995117188
1050.25550692319	2949
1050.94567094865	2917.39990234375
1051.63574756444	2932.80004882813
1052.32573677832	2959.80004882813
1053.01563859803	2975.19995117188
1053.70545303131	2974.39990234375
1054.39518008592	2934.80004882813
1055.08481976961	2940.19995117188
1055.77437209013	2954
1056.46383705522	2972.60009765625
1057.15321467262	2952.60009765625
1057.8425049501	2948.80004882813
1058.53170789539	2935.19995117188
1059.22082351624	2932.19995117188
1059.9098518204	2899.19995117188
1060.59879281561	2896.80004882813
1061.28764650962	2881.60009765625
1061.97641291016	2925.60009765625
1062.665092025	2929.39990234375
1063.35368386187	2943
1064.04218842851	2924.39990234375
1064.73060573268	2908.19995117188
1065.4189357821	2894
1066.10717858452	2874.19995117188
1066.7953341477	2861.80004882813
1067.48340247936	2869.19995117188
1068.17138358725	2842
1068.85927747912	2897.80004882813
1069.5470841627	2903.80004882813
1070.23480364573	2925.19995117188
1070.92243593595	2937.19995117188
1071.60998104111	2947.19995117188
1072.29743896894	2934.39990234375
1072.98480972718	2897.19995117188
1073.67209332357	2915.80004882813
1074.35928976585	2922
1075.04639906176	2962.19995117188
1075.73342121903	2973.39990234375
1076.42035624541	2977.60009765625
1077.10720414862	2980.39990234375
1077.79396493641	2987.19995117188
1078.48063861651	2994.60009765625
1079.16722519666	2989.80004882813
1079.85372468459	2954.60009765625
1080.54013708804	2974.80004882813
1081.22646241474	2926.80004882813
1081.91270067243	2934.19995117188
1082.59885186884	2928.60009765625
1083.28491601171	2952.39990234375
1083.97089310877	2988.60009765625
1084.65678316774	2984.60009765625
1085.34258619637	2990.19995117188
1086.02830220239	3012.60009765625
1086.71393119352	2986
1087.39947317751	3006.60009765625
1088.08492816207	2978.19995117188
1088.77029615495	2999
1089.45557716387	3010.80004882813
1090.14077119656	2966.19995117188
1090.82587826075	2972
1091.51089836417	2968.60009765625
1092.19583151456	2946
1092.88067771963	2938.80004882813
1093.56543698712	2967.39990234375
1094.25010932475	2925.19995117188
1094.93469474026	2919
1095.61919324137	2911.19995117188
1096.3036048358	2943.19995117188
1096.98792953129	2920.80004882813
1097.67216733555	2898.60009765625
1098.35631825632	2902
1099.04038230132	2935
1099.72435947828	2935.39990234375
1100.40824979492	2912
1101.09205325895	2905.19995117188
1101.77576987812	2858.80004882813
1102.45939966014	2861.60009765625
1103.14294261273	2831.19995117188
1103.82639874362	2826
1104.50976806054	2818.80004882813
1105.19305057119	2840.60009765625
1105.87624628331	2872.19995117188
1106.55935520461	2905.39990234375
1107.24237734283	2937.80004882813
1107.92531270566	2944.39990234375
1108.60816130085	2944.39990234375
1109.2909231361	2901.39990234375
1109.97359821914	2947.39990234375
1110.65618655768	2953.60009765625
1111.33868815946	2940.39990234375
1112.02110303217	2999.39990234375
1112.70343118355	2991
1113.3856726213	3013.19995117188
1114.06782735316	2986.19995117188
1114.74989538683	2980.80004882813
1115.43187673002	2934.60009765625
1116.11377139047	2913.19995117188
1116.79557937588	2892.39990234375
1117.47730069397	2898.60009765625
1118.15893535245	2942.80004882813
1118.84048335904	2952.60009765625
1119.52194472146	2960.39990234375
1120.20331944741	3009.60009765625
1120.88460754462	2970.80004882813
1121.56580902079	2981.60009765625
1122.24692388364	2967.19995117188
1122.92795214088	2962
1123.60889380022	2962.60009765625
1124.28974886938	3013.60009765625
1124.97051735606	3063.80004882813
1125.65119926799	3067.60009765625
1126.33179461286	3065.80004882813
1127.0123033984	3069.19995117188
1127.6927256323	3053
1128.37306132229	3034.60009765625
1129.05331047606	3040.60009765625
1129.73347310134	3019.80004882813
1130.41354920582	3007.39990234375
1131.09353879722	3024.19995117188
1131.77344188324	2992.19995117188
1132.45325847159	3007.39990234375
1133.13298856999	3011.80004882813
1133.81263218612	3021.80004882813
1134.49218932772	3018.80004882813
1135.17166000247	2979
1135.85104421809	2947
1136.53034198227	2946.60009765625
1137.20955330274	2893.80004882813
1137.88867818718	2862
1138.56771664331	2862
1139.24666867883	2866.19995117188
1139.92553430144	2899.19995117188
1140.60431351885	2897.60009765625
1141.28300633876	2913.60009765625
1141.96161276887	2941.60009765625
1142.64013281689	2988.19995117188
1143.31856649051	2976.60009765625
1143.99691379744	2945.60009765625
1144.67517474538	2948.39990234375
1145.35334934203	2911.19995117188
1146.03143759509	2912.80004882813
1146.70943951226	2909.39990234375
1147.38735510125	2868.39990234375
1148.06518436974	2859.19995117188
1148.74292732545	2844.19995117188
1149.42058397606	2827.80004882813
1150.09815432928	2837.39990234375
1150.7756383928	2832.39990234375
1151.45303617432	2824.80004882813
1152.13034768155	2873.60009765625
1152.80757292217	2867.80004882813
1153.48471190389	2909.80004882813
1154.16176463439	2924.39990234375
1154.83873112138	2933.60009765625
1155.51561137255	2908.19995117188
1156.1924053956	2906.39990234375
1156.86911319822	2909.19995117188
1157.5457347881	2924.80004882813
1158.22227017294	2943.19995117188
1158.89871936044	2957.19995117188
1159.57508235828	2939.39990234375
1160.25135917416	2908.80004882813
1160.92754981578	2880.39990234375
1161.60365429081	2906.19995117188
1162.27967260697	2912.39990234375
1162.95560477193	2892.80004882813
1163.63145079339	2870.80004882813
1164.30721067904	2866.19995117188
1164.98288443657	2858.60009765625
1165.65847207367	2871.80004882813
1166.33397359803	2862.80004882813
1167.00938901735	2864
1167.6847183393	2886
1168.35996157157	2899
1169.03511872187	2921.60009765625
1169.71018979787	2922
1170.38517480726	2938
1171.06007375773	2915.80004882813
1171.73488665696	2917
1172.40961351265	2906.39990234375
1173.08425433247	2880
1173.75880912412	2901.39990234375
1174.43327789528	2869.60009765625
1175.10766065364	2930.39990234375
1175.78195740687	2968
1176.45616816267	2998.39990234375
1177.13029292871	3020
1177.80433171269	3001.60009765625
1178.47828452229	2995.19995117188
1179.15215136518	2985.80004882813
1179.82593224905	2983
1180.49962718159	3023.19995117188
1181.17323617047	3003.19995117188
1181.84675922337	3010
1182.52019634799	3043
1183.193547552	3054.80004882813
1183.86681284307	3044.39990234375
1184.53999222889	3061.19995117188
1185.21308571714	3048.60009765625
1185.8860933155	3063.80004882813
1186.55901503165	3049.39990234375
1187.23185087326	3051.80004882813
1187.90460084802	3043.39990234375
1188.5772649636	3051.39990234375
1189.24984322768	3030.39990234375
1189.92233564794	3011.39990234375
1190.59474223206	3043.19995117188
1191.2670629877	3032.19995117188
1191.93929792255	3067.80004882813
1192.61144704428	3047
1193.28351036058	3032.39990234375
1193.9554878791	3052.60009765625
1194.62737960754	3030.80004882813
1195.29918555356	3008.19995117188
1195.97090572483	3044.60009765625
1196.64254012903	3013.60009765625
1197.31408877384	3012.60009765625
1197.98555166693	3055.39990234375
1198.65692881596	3001.80004882813
1199.32822022862	2998.60009765625
1199.99942591256	2955.19995117188
1200.67054587548	2924.39990234375
1201.34158012503	2880.60009765625
1202.01252866889	2893.80004882813
1202.68339151473	2895
1203.35416867021	2895.19995117188
1204.02486014301	2874.39990234375
1204.6954659408	2886.19995117188
1205.36598607124	2894.39990234375
1206.03642054201	2913.19995117188
1206.70676936078	2927.80004882813
1207.3770325352	2923
1208.04721007295	2905.80004882813
1208.7173019817	2920.19995117188
1209.38730826911	2903
1210.05722894285	2884.60009765625
1210.72706401059	2849.19995117188
1211.39681347999	2839.60009765625
1212.06647735872	2853.80004882813
1212.73605565444	2831.19995117188
1213.40554837481	2830.39990234375
1214.07495552751	2840.19995117188
1214.74427712019	2835.39990234375
1215.41351316052	2827.60009765625
1216.08266365617	2855
1216.75172861479	2845.60009765625
1217.42070804405	2841.19995117188
1218.0896019516	2825.19995117188
1218.75841034513	2820
1219.42713323227	2852
1220.0957706207	2851.39990234375
1220.76432251808	2879.60009765625
1221.43278893207	2901.60009765625
1222.10116987032	2894.19995117188
1222.7694653405	2935.19995117188
1223.43767535026	2908.80004882813
1224.10579990727	2909.19995117188
1224.77383901918	2890.19995117188
1225.44179269366	2866.80004882813
1226.10966093835	2864.19995117188
1226.77744376093	2834.60009765625
1227.44514116904	2839.19995117188
1228.11275317034	2848
1228.78027977249	2842.60009765625
1229.44772098315	2840.80004882813
1230.11507680996	2825.80004882813
1230.7823472606	2832.39990234375
1231.44953234271	2821.60009765625
1232.11663206394	2808
1232.78364643195	2798.80004882813
1233.4505754544	2788.39990234375
1234.11741913894	2775.80004882813
1234.78417749322	2802.60009765625
1235.45085052489	2813.60009765625
1236.11743824162	2770.60009765625
1236.78394065104	2764.19995117188
1237.45035776082	2776.60009765625
1238.1166895786	2791.60009765625
1238.78293611204	2810
1239.44909736878	2824.80004882813
1240.11517335648	2833
1240.78116408279	2807.80004882813
1241.44706955535	2815.60009765625
1242.11288978182	2794.80004882813
1242.77862476985	2788.60009765625
1243.44427452708	2749.19995117188
1244.10983906116	2718.19995117188
1244.77531837974	2752.80004882813
1245.44071249047	2757.39990234375
1246.106021401	2766.19995117188
1246.77124511898	2758
1247.43638365204	2781
1248.10143700783	2806.19995117188
1248.76640519401	2778.19995117188
1249.43128821822	2788.39990234375
1250.0960860881	2788.19995117188
1250.76079881129	2757
1251.42542639545	2749.80004882813
1252.08996884822	2720.39990234375
1252.75442617723	2730
1253.41879839014	2742
1254.08308549458	2766.60009765625
1254.74728749821	2779
1255.41140440866	2777.39990234375
1256.07543623357	2789.39990234375
1256.73938298059	2724.60009765625
1257.40324465735	2741
1258.0670212715	2717.80004882813
1258.73071283068	2727.19995117188
1259.39431934253	2762.80004882813
1260.05784081468	2764.60009765625
1260.72127725479	2782.80004882813
1261.38462867049	2765.60009765625
1262.0478950694	2748.60009765625
1262.71107645919	2758.80004882813
1263.37417284748	2751.39990234375
1264.03718424191	2767
1264.70011065011	2759.19995117188
1265.36295207974	2765.19995117188
1266.02570853841	2788
1266.68838003378	2791
1267.35096657346	2789.19995117188
1268.01346816511	2758
1268.67588481636	2713.19995117188
1269.33821653483	2715.80004882813
1270.00046332817	2751.39990234375
1270.66262520401	2733.60009765625
1271.32470216998	2783.60009765625
1271.98669423372	2764.80004882813
1272.64860140285	2755.39990234375
1273.31042368503	2707.19995117188
1273.97216108786	2726.60009765625
1274.633813619	2739.19995117188
1275.29538128606	2752.80004882813
1275.95686409669	2765.39990234375
1276.6182620585	2778
1277.27957517914	2753.19995117188
1277.94080346624	2743.60009765625
1278.60194692741	2759.39990234375
1279.2630055703	2757.80004882813
1279.92397940253	2764
1280.58486843173	2777
1281.24567266552	2774
1281.90639211155	2753.60009765625
1282.56702677743	2725.60009765625
1283.2275766708	2752.80004882813
1283.88804179927	2722.80004882813
1284.54842217049	2728.39990234375
1285.20871779206	2701.80004882813
1285.86892867163	2729
1286.52905481681	2758.39990234375
1287.18909623523	2733.80004882813
1287.84905293452	2752.19995117188
1288.5089249223	2764.60009765625
1289.16871220619	2768.80004882813
1289.82841479383	2783.19995117188
1290.48803269282	2820
1291.1475659108	3076.60009765625
1291.80701445539	2785
1292.46637833421	2753.19995117188
1293.12565755489	2738.19995117188
1293.78485212504	2730.39990234375
1294.44396205229	2709.80004882813
1295.10298734425	2751.39990234375
1295.76192800856	2738.80004882813
1296.42078405283	2703.39990234375
1297.07955548467	2741.39990234375
1297.73824231171	2781
1298.39684454158	2767.39990234375
1299.05536218188	2823.39990234375
1299.71379524023	2822.60009765625
1300.37214372427	2820.19995117188
1301.03040764159	2777.39990234375
1301.68858699983	2787.80004882813
1302.34668180659	2801.60009765625
1303.0046920695	2762.39990234375
1303.66261779617	2787
1304.32045899422	2831.80004882813
1304.97821567126	2827.80004882813
1305.63588783492	2865.80004882813
1306.29347549279	2830.60009765625
1306.95097865251	2832
1307.60839732168	2855.60009765625
1308.26573150791	2877.39990234375
1308.92298121883	2869
1309.58014646204	2859
1310.23722724517	2861.19995117188
1310.89422357581	2886.19995117188
1311.55113546158	2889.39990234375
1312.2079629101	2853.19995117188
1312.86470592898	2887.19995117188
1313.52136452582	2874.19995117188
1314.17793870824	2883
1314.83442848386	2855
1315.49083386027	2872
1316.14715484509	2883.80004882813
1316.80339144594	2884
1317.45954367041	2909.19995117188
1318.11561152611	2910.60009765625
1318.77159502067	2899.39990234375
1319.42749416168	2876
1320.08330895674	2886.60009765625
1320.73903941348	2884.19995117188
1321.3946855395	2861.60009765625
1322.0502473424	2851.39990234375
1322.70572482978	2827
1323.36111800926	2842.80004882813
1324.01642688845	2808.80004882813
1324.67165147494	2808.39990234375
1325.32679177634	2834.39990234375
1325.98184780025	2841
1326.63681955429	2806.19995117188
1327.29170704605	2796.80004882813
1327.94651028314	2767.60009765625
1328.60122927316	2742
1329.25586402371	2735.19995117188
1329.9104145424	2727
1330.56488083683	2739.60009765625
1331.2192629146	2739
1331.87356078331	2741.80004882813
1332.52777445056	2740.80004882813
1333.18190392395	2731.39990234375
1333.83594921109	2735
1334.48991031958	2715
1335.143787257	2704.19995117188
1335.79758003097	2709
1336.45128864908	2730.60009765625
1337.10491311893	2759.39990234375
1337.75845344813	2733.80004882813
1338.41190964425	2729.39990234375
1339.06528171491	2748.60009765625
1339.71856966771	2748.19995117188
1340.37177351023	2740.39990234375
1341.02489325007	2710.80004882813
1341.67792889484	2677.19995117188
1342.33088045212	2661.60009765625
1342.98374792952	2648.39990234375
1343.63653133462	2657.60009765625
1344.28923067503	2688
1344.94184595833	2691.60009765625
1345.59437719212	2707.80004882813
1346.246824384	2726.60009765625
1346.89918754155	2759.80004882813
1347.55146667238	2751.80004882813
1348.20366178407	2764.19995117188
1348.85577288421	2782
1349.50779998041	2786
1350.15974308024	2768.80004882813
1350.8116021913	2752.80004882813
1351.46337732119	2779.19995117188
1352.11506847748	2809.60009765625
1352.76667566778	2801.39990234375
1353.41819889967	2796
1354.06963818074	2816.60009765625
1354.72099351858	2856.60009765625
1355.37226492079	2849
1356.02345239494	2843.19995117188
1356.67455594862	2867.39990234375
1357.32557558943	2917
1357.97651132496	2978.80004882813
1358.62736316277	3009.19995117188
1359.27813111048	3060.80004882813
1359.92881517565	3098.19995117188
1360.57941536589	3116.60009765625
1361.22993168876	3149.80004882813
1361.88036415186	3182.39990234375
1362.53071276278	3197.39990234375
1363.1809775291	3207.19995117188
1363.8311584584	3198.19995117188
1364.48125555826	3193.80004882813
1365.13126883627	3118
1365.78119830001	3037
1366.43104395707	3028
1367.08080581503	2952
1367.73048388147	2939
1368.38007816397	2899
1369.02958867011	2903.80004882813
1369.67901540748	2882.80004882813
1370.32835838365	2871.80004882813
1370.9776176062	2866.80004882813
1371.62679308273	2838
1372.27588482079	2842.39990234375
1372.92489282798	2827.39990234375
1373.57381711188	2809.39990234375
1374.22265768006	2787.39990234375
1374.87141454009	2758.80004882813
1375.52008769957	2735.80004882813
1376.16867716606	2707.80004882813
1376.81718294715	2710.19995117188
1377.4656050504	2670.60009765625
1378.1139434834	2683.60009765625
1378.76219825373	2691.39990234375
1379.41036936895	2709
1380.05845683664	2679.60009765625
1380.70646066439	2683.39990234375
1381.35438085976	2674.39990234375
1382.00221743032	2688
1382.64997038366	2683.60009765625
1383.29763972735	2676.39990234375
1383.94522546895	2699.60009765625
1384.59272761605	2692
1385.24014617621	2695.80004882813
1385.88748115701	2685.60009765625
1386.53473256602	2675.19995117188
1387.18190041081	2657
1387.82898469895	2644.80004882813
1388.47598543802	2653.19995117188
1389.12290263558	2638
1389.7697362992	2623.80004882813
1390.41648643646	2581.80004882813
1391.06315305492	2575.39990234375
1391.70973616215	2548.80004882813
1392.35623576573	2547.80004882813
1393.00265187321	2550.39990234375
1393.64898449217	2548.80004882813
1394.29523363018	2598
1394.94139929481	2592
1395.58748149361	2581.19995117188
1396.23348023415	2576
1396.87939552402	2527
1397.52522737076	2529.80004882813
1398.17097578195	2483
1398.81664076514	2429.80004882813
1399.46222232792	2414.39990234375
1400.10772047783	2421.39990234375
1400.75313522245	2414.80004882813
1401.39846656934	2433.80004882813
1402.04371452605	2449.19995117188
1402.68887910016	2464.80004882813
1403.33396029924	2463.60009765625
1403.97895813083	2454.39990234375
1404.6238726025	2482.60009765625
1405.26870372182	2498
1405.91345149634	2500.80004882813
1406.55811593363	2501.60009765625
1407.20269704125	2462.60009765625
1407.84719482676	2516.19995117188
1408.49160929772	2488
1409.13594046168	2496.39990234375
1409.78018832622	2503.80004882813
1410.42435289887	2526.39990234375
1411.06843418722	2518.80004882813
1411.7124321988	2546.19995117188
1412.3563469412	2554.60009765625
1413.00017842194	2535.60009765625
1413.64392664861	2549.60009765625
1414.28759162875	2569.39990234375
1414.93117336992	2552.60009765625
1415.57467187967	2563
1416.21808716557	2532.39990234375
1416.86141923516	2543
1417.50466809601	2590.80004882813
1418.14783375567	2556.60009765625
1418.79091622169	2558.39990234375
1419.43391550162	2546.60009765625
1420.07683160303	2547.19995117188
1420.71966453346	2558.39990234375
1421.36241430046	2562.60009765625
1422.0050809116	2556.39990234375
1422.64766437442	2562.39990234375
1423.29016469647	2592.80004882813
1423.93258188531	2611.39990234375
1424.57491594848	2585
1425.21716689354	2580.60009765625
1425.85933472805	2584.19995117188
1426.50141945954	2577.80004882813
1427.14342109557	2578.39990234375
1427.78533964369	2558.19995117188
1428.42717511144	2531.19995117188
1429.06892750639	2518.39990234375
1429.71059683607	2503.19995117188
1430.35218310803	2499.80004882813
1430.99368632983	2509
1431.635106509	2514.60009765625
1432.2764436531	2510.80004882813
1432.91769776967	2552.19995117188
1433.55886886627	2563.60009765625
1434.19995695043	2550.60009765625
1434.84096202969	2568.80004882813
1435.48188411162	2550.60009765625
1436.12272320375	2548.19995117188
1436.76347931363	2549.19995117188
1437.40415244879	2540
1438.0447426168	2543.80004882813
1438.68524982518	2542.80004882813
1439.32567408148	2541.80004882813
1439.96601539325	2523.60009765625
1440.60627376803	2506.60009765625
1441.24644921336	2507.60009765625
1441.88654173678	2495.60009765625
1442.52655134583	2501.39990234375
1443.16647804806	2509.80004882813
1443.806321851	2482.39990234375
1444.4460827622	2493.19995117188
1445.0857607892	2476
1445.72535593953	2480.19995117188
1446.36486822074	2490.19995117188
1447.00429764037	2491.80004882813
1447.64364420595	2455
1448.28290792502	2479.39990234375
1448.92208880512	2454.19995117188
1449.56118685379	2465
1450.20020207857	2445
1450.83913448699	2458.19995117188
1451.47798408659	2481.60009765625
1452.1167508849	2471.80004882813
1452.75543488947	2474
1453.39403610782	2451.19995117188
1454.0325545475	2450.80004882813
1454.67099021603	2460
1455.30934312097	2469.19995117188
1455.94761326982	2498.19995117188
1456.58580067014	2481.19995117188
1457.22390532945	2463.60009765625
1457.86192725529	2465.39990234375
1458.49986645519	2461.80004882813
1459.13772293668	2484.80004882813
1459.7754967073	2448
1460.41318777457	2440.19995117188
1461.05079614604	2445.19995117188
1461.68832182922	2431.19995117188
1462.32576483166	2439.60009765625
1462.96312516087	2421.19995117188
1463.6004028244	2416.80004882813
1464.23759782977	2452.19995117188
1464.8747101845	2466.80004882813
1465.51173989614	2520.39990234375
1466.14868697221	2516.19995117188
1466.78555142024	2511.39990234375
1467.42233324774	2496.60009765625
1468.05903246227	2460.60009765625
1468.69564907133	2452.60009765625
1469.33218308246	2416.60009765625
1469.96863450317	2424.19995117188
1470.60500334102	2462.80004882813
1471.2412896035	2476
1471.87749329816	2498
1472.51361443251	2496.80004882813
1473.14965301409	2504.60009765625
1473.78560905041	2495
1474.421482549	2484.60009765625
1475.05727351739	2507.60009765625
1475.69298196309	2486.60009765625
1476.32860789364	2480.80004882813
1476.96415131654	2467
1477.59961223934	2468.19995117188
1478.23499066954	2444
1478.87028661467	2463.60009765625
1479.50550008226	2458.19995117188
1480.14063107981	2465.39990234375
1480.77567961486	2467
1481.41064569492	2433.19995117188
1482.04552932752	2426.39990234375
1482.68033052017	2415.19995117188
1483.31504928039	2443.39990234375
1483.9496856157	2445.19995117188
1484.58423953363	2448.60009765625
1485.21871104168	2463.60009765625
1485.85310014738	2478.80004882813
1486.48740685824	2457.19995117188
1487.12163118178	2448.60009765625
1487.75577312553	2446.60009765625
1488.38983269698	2429.60009765625
1489.02380990367	2424.80004882813
1489.65770475311	2441
1490.29151725281	2452.39990234375
1490.92524741029	2491.39990234375
1491.55889523306	2477.60009765625
1492.19246072863	2496.80004882813
1492.82594390453	2474.80004882813
1493.45934476826	2504.60009765625
1494.09266332734	2492.39990234375
1494.72589958928	2503.39990234375
1495.3590535616	2512.60009765625
1495.99212525181	2510.19995117188
1496.62511466741	2537.80004882813
1497.25802181592	2497
1497.89084670485	2511.39990234375
1498.52358934172	2545.39990234375
1499.15624973403	2565.80004882813
1499.7888278893	2572.19995117188
1500.42132381503	2584
1501.05373751873	2612
1501.68606900792	2669.60009765625
1502.31831829009	2669.19995117188
1502.95048537277	2712.60009765625
1503.58257026346	2750.80004882813
1504.21457296966	2770.39990234375
1504.84649349889	2805.39990234375
1505.47833185864	2834.60009765625
1506.11008805644	2813.19995117188
1506.74176209978	2799
1507.37335399617	2796.39990234375
1508.00486375312	2787
1508.63629137813	2751.19995117188
1509.2676368787	2746
1509.89890026235	2748.39990234375
1510.53008153658	2744.19995117188
1511.16118070889	2753.60009765625
1511.79219778677	2751.80004882813
1512.42313277775	2731.39990234375
1513.05398568932	2713.39990234375
1513.68475652898	2687.19995117188
1514.31544530424	2706.19995117188
1514.9460520226	2660.80004882813
1515.57657669155	2641
1516.20701931861	2608.80004882813
1516.83737991127	2584.60009765625
1517.46765847702	2551.39990234375
1518.09785502339	2573.39990234375
1518.72796955785	2543
1519.35800208792	2553.80004882813
1519.98795262109	2556.39990234375
1520.61782116486	2525.19995117188
1521.24760772673	2552.60009765625
1521.87731231419	2503.60009765625
1522.50693493475	2513
1523.1364755959	2523
1523.76593430514	2532.80004882813
1524.39531106997	2525.80004882813
1525.02460589788	2523.60009765625
1525.65381879637	2500.60009765625
1526.28294977293	2482.19995117188
1526.91199883507	2476.60009765625
1527.54096599027	2453.80004882813
1528.16985124603	2429.80004882813
1528.79865460984	2441.39990234375
1529.4273760892	2435.39990234375
1530.05601569161	2461.39990234375
1530.68457342455	2488.19995117188
1531.31304929552	2484.60009765625
1531.94144331201	2483.80004882813
1532.56975548151	2495
1533.19798581152	2506
1533.82613430953	2506.39990234375
1534.45420098302	2500.60009765625
1535.08218583949	2517.39990234375
1535.71008888643	2491
1536.33791013134	2485.19995117188
1536.96564958169	2492
1537.59330724498	2492.19995117188
1538.22088312871	2475.39990234375
1538.84837724034	2448.60009765625
1539.47578958739	2462.39990234375
1540.10312017733	2473.60009765625
1540.73036901765	2431.80004882813
1541.35753611584	2419.19995117188
1541.98462147939	2397
1542.61162511578	2402.19995117188
1543.2385470325	2428.39990234375
1543.86538723704	2416.19995117188
1544.49214573688	2445
1545.11882253951	2424.60009765625
1545.74541765241	2440.19995117188
1546.37193108306	2436.80004882813
1546.99836283896	2414.39990234375
1547.62471292758	2419.60009765625
1548.25098135641	2421
1548.87716813294	2386
1549.50327326464	2391.60009765625
1550.12929675899	2400.39990234375
1550.75523862349	2394
1551.38109886561	2390.39990234375
1552.00687749284	2415.80004882813
1552.63257451264	2429.19995117188
1553.25818993252	2419.19995117188
1553.88372375994	2388.39990234375
1554.50917600239	2353.19995117188
1555.13454666734	2343.19995117188
1555.75983576228	2342
1556.38504329469	2350.39990234375
1557.01016927204	2344.80004882813
1557.63521370181	2335
1558.26017659149	2361.60009765625
1558.88505794854	2363.60009765625
1559.50985778045	2380
1560.13457609469	2382.80004882813
1560.75921289874	2388.19995117188
1561.38376820008	2356.39990234375
1562.00824200618	2366.80004882813
1562.63263432452	2379.19995117188
1563.25694516257	2363
1563.88117452781	2364.60009765625
1564.50532242772	2361.39990234375
1565.12938886976	2342
1565.75337386141	2330.80004882813
1566.37727741015	2335.60009765625
1567.00109952345	2368.39990234375
1567.62484020878	2392
1568.24849947361	2391.60009765625
1568.87207732542	2414.39990234375
1569.49557377168	2417.19995117188
1570.11898881986	2425.19995117188
1570.74232247743	2422
1571.36557475186	2423.80004882813
1571.98874565062	2449
1572.61183518119	2472.19995117188
1573.23484335103	2470.80004882813
1573.85777016761	2492
1574.4806156384	2505.39990234375
1575.10337977088	2514.60009765625
1575.7260625725	2519.19995117188
1576.34866405074	2501
1576.97118421306	2502.39990234375
1577.59362306694	2506.80004882813
1578.21598061984	2500.39990234375
1578.83825687922	2495.19995117188
1579.46045185255	2465.80004882813
1580.08256554731	2449.60009765625
1580.70459797094	2433.60009765625
1581.32654913093	2417.39990234375
1581.94841903473	2422.39990234375
1582.57020768981	2381
1583.19191510364	2359.80004882813
1583.81354128367	2339.80004882813
1584.43508623737	2312.80004882813
1585.05654997221	2322.39990234375
1585.67793249564	2316.60009765625
1586.29923381514	2290
1586.92045393815	2272.39990234375
1587.54159287216	2270.19995117188
1588.1626506246	2254.80004882813
1588.78362720296	2263
1589.40452261468	2260.80004882813
1590.02533686724	2264.39990234375
1590.64606996808	2230.39990234375
1591.26672192467	2240.80004882813
1591.88729274447	2244.80004882813
1592.50778243493	2240.19995117188
1593.12819100352	2242
1593.7485184577	2230.80004882813
1594.36876480492	2243
1594.98893005264	2228.19995117188
1595.60901420832	2215.80004882813
1596.22901727941	2231.60009765625
1596.84893927338	2222.80004882813
1597.46878019767	2257.60009765625
1598.08854005975	2248.39990234375
1598.70821886707	2277.60009765625
1599.32781662708	2295
1599.94733334725	2307
1600.56676903502	2290.60009765625
1601.18612369785	2283
1601.8053973432	2263
1602.42458997851	2235.80004882813
1603.04370161124	2212
1603.66273224884	2193.39990234375
1604.28168189878	2178.19995117188
1604.90055056849	2194.39990234375
1605.51933826543	2193.80004882813
1606.13804499705	2192.19995117188
1606.75667077081	2183.80004882813
1607.37521559415	2184.39990234375
1607.99367947452	2182
1608.61206241938	2209.19995117188
1609.23036443618	2185.80004882813
1609.84858553236	2168.60009765625
1610.46672571537	2171
1611.08478499267	2162
1611.7027633717	2197.39990234375
1612.3206608599	2190.80004882813
1612.93847746473	2173.19995117188
1613.55621319364	2169.39990234375
1614.17386805407	2157
1614.79144205347	2143.60009765625
1615.40893519928	2147
1616.02634749895	2147
1616.64367895993	2112.19995117188
1617.26092958966	2115.80004882813
1617.87809939559	2135
1618.49518838516	2113.39990234375
1619.11219656582	2128.60009765625
1619.729123945	2124.80004882813
1620.34597053016	2131.39990234375
1620.96273632874	2107.60009765625
1621.57942134818	2128.39990234375
1622.19602559592	2110.39990234375
1622.8125490794	2117.80004882813
1623.42899180607	2114.80004882813
1624.04535378337	2095.19995117188
1624.66163501874	2113.19995117188
1625.27783551963	2114.80004882813
1625.89395529346	2115.19995117188
1626.50999434768	2101.39990234375
1627.12595268974	2077.60009765625
1627.74183032707	2077.80004882813
1628.3576272671	2049
1628.97334351729	2070
1629.58897908506	2058.60009765625
1630.20453397786	2056.39990234375
1630.82000820313	2056
1631.43540176829	2065.39990234375
1632.05071468079	2092.80004882813
1632.66594694807	2089.39990234375
1633.28109857756	2103.19995117188
1633.8961695767	2097
1634.51115995292	2098
1635.12606971366	2115.39990234375
1635.74089886636	2087.80004882813
1636.35564741844	2117
1636.97031537734	2124.19995117188
1637.58490275051	2116.80004882813
1638.19940954536	2123.60009765625
1638.81383576934	2124.39990234375
1639.42818142987	2152
1640.0424465344	2166.19995117188
1640.65663109034	2181.19995117188
1641.27073510515	2200.19995117188
1641.88475858623	2193.19995117188
1642.49870154104	2201.19995117188
1643.11256397699	2212.80004882813
1643.72634590152	2210
1644.34004732206	2235
1644.95366824604	2244.80004882813
1645.56720868089	2240.19995117188
1646.18066863404	2287.39990234375
1646.79404811291	2280.19995117188
1647.40734712494	2287.80004882813
1648.02056567755	2290.60009765625
1648.63370377817	2294.39990234375
1649.24676143423	2303.80004882813
1649.85973865316	2302.39990234375
1650.47263544238	2311.60009765625
1651.08545180932	2302.80004882813
1651.6981877614	2301
1652.31084330606	2311.60009765625
1652.92341845071	2265
1653.53591320278	2242.19995117188
1654.1483275697	2252.19995117188
1654.7606615589	2233.19995117188
1655.37291517778	2214.19995117188
1655.98508843379	2187.39990234375
1656.59718133434	2169.60009765625
1657.20919388685	2160.39990234375
1657.82112609875	2147
1658.43297797747	2131.80004882813
1659.04474953041	2105
1659.65644076501	2071.19995117188
1660.26805168869	2069.19995117188
1660.87958230886	2045.40002441406
1661.49103263294	2031.59997558594
1662.10240266837	2028
1662.71369242255	2037.80004882813
1663.32490190291	2043.19995117188
1663.93603111687	2009.59997558594
1664.54708007184	2022
1665.15804877524	2004.80004882813
1665.7689372345	1998.19995117188
1666.37974545703	2019.19995117188
1666.99047345024	2012.59997558594
1667.60112122156	1997.80004882813
1668.2116887784	1996
1668.82217612818	1970
1669.43258327831	1946.40002441406
1670.04291023622	1935.19995117188
1670.65315700931	1910.40002441406
1671.263323605	1889.59997558594
1671.8734100307	1871.59997558594
1672.48341629384	1861.80004882813
1673.09334240182	1864.19995117188
1673.70318836206	1856.19995117188
1674.31295418197	1855.19995117188
1674.92263986896	1856
1675.53224543046	1829.80004882813
1676.14177087386	1841
1676.75121620658	1850
1677.36058143604	1845.80004882813
1677.96986656964	1855.59997558594
1678.5790716148	1874.19995117188
1679.18819657892	1884.19995117188
1679.79724146943	1892.19995117188
1680.40620629372	1905.59997558594
1681.0150910592	1924.40002441406
1681.6238957733	1930
1682.23262044341	1947.80004882813
1682.84126507694	1945.19995117188
1683.4498296813	1940.19995117188
1684.0583142639	1936
1684.66671883216	1933
1685.27504339346	1946.59997558594
1685.88328795523	1899.80004882813
1686.49145252487	1893.40002441406
1687.09953710978	1890
1687.70754171737	1886.40002441406
1688.31546635505	1891.19995117188
1688.92331103021	1902.80004882813
1689.53107575028	1920
1690.13876052265	1913.80004882813
1690.74636535472	1911.80004882813
1691.3538902539	1916.40002441406
1691.96133522759	1895.59997558594
1692.5687002832	1890.59997558594
1693.17598542812	1862.59997558594
1693.78319066977	1867.40002441406
1694.39031601554	1841.59997558594
1694.99736147283	1829.80004882813
1695.60432704905	1859.40002441406
1696.2112127516	1864.40002441406
1696.81801858788	1872.19995117188
1697.42474456528	1878.80004882813
1698.03139069121	1881.59997558594
1698.63795697307	1861.19995117188
1699.24444341826	1863
1699.85085003417	1848.80004882813
1700.45717682821	1856.40002441406
1701.06342380778	1836.80004882813
1701.66959098026	1841.59997558594
1702.27567835307	1849.59997558594
1702.88168593359	1844.40002441406
1703.48761372922	1830.40002441406
1704.09346174737	1810.80004882813
1704.69922999542	1813.40002441406
1705.30491848077	1799.40002441406
1705.91052721083	1827.40002441406
1706.51605619297	1812.40002441406
1707.12150543461	1814.80004882813
1707.72687494312	1788.40002441406
1708.33216472592	1793
1708.93737479039	1778.59997558594
1709.54250514392	1775.19995117188
