634.977642221345	1896.19995117188
635.719821695905	1917
636.461909203392	1933.19995117188
637.203904751776	1946.19995117188
637.945808349023	1949
638.687620003102	1956.19995117188
639.42933972198	1951.80004882813
640.170967513616	1949.80004882813
640.912503385981	1938.80004882813
641.653947347041	1917.40002441406
642.395299404758	1922.80004882813
643.13655956709	1895
643.877727842014	1863.59997558594
644.61880423748	1835
645.359788761455	1850.40002441406
646.100681421905	1859.19995117188
646.841482226789	1881.19995117188
647.582191184074	1897.40002441406
648.322808301711	1926.80004882813
649.06333358767	1932.19995117188
649.803767049909	1895.80004882813
650.544108696385	1917.19995117188
651.28435853506	1931.59997558594
652.024516573894	1948
652.764582820849	1941.80004882813
653.504557283875	1971.40002441406
654.244439970937	1982.19995117188
654.984230889991	2003.19995117188
655.723930048995	1986
656.463537455909	1987
657.203053118683	2007.19995117188
657.942477045275	2007.19995117188
658.681809243647	2001.19995117188
659.421049721747	1988.40002441406
660.160198487535	1978
660.899255548962	1981.19995117188
661.638220913985	1996.19995117188
662.377094590559	1997
663.115876586631	1976.80004882813
663.854566910165	1992
664.593165569107	1992.80004882813
665.331672571406	1980.19995117188
666.07008792502	1967
666.808411637902	1957
667.546643717996	1960.59997558594
668.284784173258	1947.40002441406
669.022833011641	1940.19995117188
669.760790241089	1959.80004882813
670.498655869554	1982.19995117188
671.236429904987	1966.19995117188
671.97411235534	1968.19995117188
672.711703228551	1987.19995117188
673.449202532577	1989.80004882813
674.186610275364	2015
674.923926464857	2029.19995117188
675.661151109008	2037.40002441406
676.398284215759	2048.80004882813
677.135325793058	2063
677.87227584885	2085.39990234375
678.609134391082	2094.60009765625
679.345901427696	2098.39990234375
680.082576966644	2092.60009765625
680.819161015861	2052
681.555653583298	2065.60009765625
682.292054676895	2022.19995117188
683.028364304594	2006.40002441406
683.764582474344	1985.59997558594
684.500709194083	1989.80004882813
685.236744471752	1986
685.972688315294	1972.59997558594
686.708540732652	1995.80004882813
687.444301731762	1982
688.179971320572	1993.19995117188
688.915549507013	1993.59997558594
689.651036299034	1991
690.386431704569	1981.59997558594
691.121735731559	1947.19995117188
691.85694838794	1974.19995117188
692.592069681652	1979.40002441406
693.327099620632	1990.19995117188
694.062038212821	2006
694.796885466149	2025.59997558594
695.531641388561	2030.80004882813
696.266305987987	2029.19995117188
697.000879272367	2047.40002441406
697.735361249632	2056
698.469751927722	2071.39990234375
699.204051314568	2070
699.938259418107	2059
700.672376246272	2061.80004882813
701.406401806997	2057.39990234375
702.140336108212	2024.59997558594
702.874179157855	2022
703.607930963856	2026
704.341591534147	2022.59997558594
705.07516087666	2028.80004882813
705.808638999324	2048.39990234375
706.542025910073	2060
707.275321616841	2066.39990234375
708.008526127549	2066.80004882813
708.741639450132	2053.60009765625
709.474661592521	2077
710.207592562641	2064.80004882813
710.940432368424	2081.80004882813
711.673181017796	2064.80004882813
712.405838518687	2075.60009765625
713.138404879025	2067.80004882813
713.870880106731	2061.39990234375
714.603264209738	2055.39990234375
715.335557195971	2068
716.067759073357	2071.80004882813
716.799869849816	2073
717.531889533281	2090.80004882813
718.263818131673	2087.60009765625
718.995655652917	2066.80004882813
719.727402104934	2038.19995117188
720.45905749565	2028
721.19062183299	2035.40002441406
721.922095124877	2030.80004882813
722.653477379231	2039
723.384768603973	2041.80004882813
724.11596880703	2035.19995117188
724.847077996319	2065.19995117188
725.578096179762	2060.80004882813
726.309023365281	2081.80004882813
727.039859560792	2079.60009765625
727.770604774222	2110.60009765625
728.501259013484	2099.60009765625
729.231822286501	2122.19995117188
729.962294601191	2108
730.692675965469	2078.60009765625
731.42296638726	2047
732.153165874472	2058.60009765625
732.883274435032	2076.80004882813
733.613292076851	2095.60009765625
734.343218807843	2100.80004882813
735.07305463593	2090
735.802799569028	2079.60009765625
736.532453615048	2063
737.262016781904	2042
737.991489077517	2043.80004882813
738.720870509794	2040.40002441406
739.450161086654	2052.80004882813
740.179360816009	2045.59997558594
740.908469705772	2069
741.637487763854	2095
742.366414998168	2084.80004882813
743.095251416623	2098.19995117188
743.823997027137	2092.39990234375
744.552651837618	2108.80004882813
745.281215855978	2112.60009765625
746.009689090124	2118.80004882813
746.738071547964	2107.60009765625
747.466363237419	2097.80004882813
748.194564166384	2085.60009765625
748.92267434278	2092
749.650693774504	2067.80004882813
750.378622469476	2087
751.106460435596	2068.60009765625
751.834207680771	2093.39990234375
752.561864212909	2109.80004882813
753.289430039919	2095.39990234375
754.016905169707	2095.60009765625
754.744289610175	2116.60009765625
755.471583369231	2112.80004882813
756.198786454782	2105.19995117188
756.925898874728	2126.19995117188
757.652920636979	2116.80004882813
758.379851749433	2111
759.106692219996	2095.60009765625
759.833442056572	2113.60009765625
760.560101267063	2131.19995117188
761.28666985937	2148.60009765625
762.0131478414	2155.19995117188
762.739535221046	2145.60009765625
763.465832006219	2161
764.192038204812	2159.39990234375
764.918153824731	2143.80004882813
765.644178873872	2140.80004882813
766.370113360138	2150.19995117188
767.095957291425	2203.80004882813
767.821710675635	2230.19995117188
768.547373520665	2251.80004882813
769.272945834415	2303.39990234375
769.998427624781	2314.39990234375
770.723818899658	2298.19995117188
771.449119666949	2310.39990234375
772.174329934546	2271.80004882813
772.899449710347	2270.19995117188
773.624479002248	2290.60009765625
774.349417818145	2279.39990234375
775.074266165934	2278.19995117188
775.799024053505	2299.39990234375
776.523691488757	2286.39990234375
777.248268479582	2267.19995117188
777.972755033877	2230.19995117188
778.69715115953	2199.39990234375
779.421456864441	2198.80004882813
780.145672156493	2160
780.869797043587	2148.39990234375
781.593831533611	2162.80004882813
782.317775634457	2157.60009765625
783.041629354012	2161.60009765625
783.765392700174	2136.39990234375
784.489065680828	2123
785.212648303866	2105.39990234375
785.936140577177	2105
786.659542508652	2114.39990234375
787.382854106174	2134
788.106075377639	2123.80004882813
788.829206330928	2127.39990234375
789.552246973933	2121.19995117188
790.275197314542	2129
790.998057360638	2141.80004882813
791.720827120108	2141.60009765625
792.443506600841	2145.19995117188
793.166095810722	2140.19995117188
793.888594757635	2123.80004882813
794.611003449465	2122
795.333321894098	2116.60009765625
796.055550099417	2121.60009765625
796.777688073308	2151.80004882813
797.499735823654	2169.19995117188
798.221693358334	2156.80004882813
798.943560685235	2123.39990234375
799.665337812239	2142.60009765625
800.387024747226	2148.80004882813
801.108621498075	2152.19995117188
801.830128072674	2135.39990234375
802.551544478902	2133.80004882813
803.272870724636	2132.60009765625
803.994106817761	2107.19995117188
804.715252766148	2119.80004882813
805.436308577687	2117.19995117188
806.157274260251	2102.60009765625
806.878149821721	2081.60009765625
807.598935269973	2079.19995117188
808.319630612886	2058
809.040235858336	2050.39990234375
809.760751014202	2064.60009765625
810.481176088361	2074.39990234375
811.201511088685	2066.19995117188
811.921756023059	2090.19995117188
812.641910899347	2084
813.361975725432	2099.60009765625
814.081950509188	2098.39990234375
814.801835258489	2105.39990234375
815.521629981206	2122.60009765625
816.241334685218	2101
816.960949378392	2123.80004882813
817.680474068606	2098
818.399908763731	2086
819.11925347164	2084
819.838508200202	2080.19995117188
820.55767295729	2079.80004882813
821.276747750778	2081.60009765625
821.995732588531	2062.39990234375
822.714627478425	2068.80004882813
823.433432428327	2064.19995117188
824.152147446105	2084
824.870772539632	2086
825.589307716775	2105.80004882813
826.307752985404	2118.80004882813
827.026108353378	2117.39990234375
827.744373828579	2100.60009765625
828.462549418867	2098.60009765625
829.180635132107	2090.19995117188
829.898630976168	2099
830.616536958915	2093.19995117188
831.334353088218	2111.60009765625
832.052079371938	2120.19995117188
832.769715817942	2119.39990234375
833.487262434092	2122.39990234375
834.204719228255	2116.39990234375
834.922086208293	2104.60009765625
835.639363382073	2105
836.356550757456	2138
837.073648342304	2123.39990234375
837.790656144484	2136.39990234375
838.507574171847	2123.80004882813
839.22440243227	2102.80004882813
839.941140933601	2088.19995117188
840.657789683706	2068.80004882813
841.374348690448	2095.19995117188
842.090817961686	2101.19995117188
842.807197505276	2121.80004882813
843.523487329083	2108.60009765625
844.23968744096	2134.60009765625
844.955797848771	2108.80004882813
845.671818560374	2128.19995117188
846.387749583622	2116.39990234375
847.103590926378	2129.39990234375
847.819342596497	2101
848.535004601833	2115.60009765625
849.25057695025	2094.60009765625
849.966059649598	2085.60009765625
850.681452707735	2109.60009765625
851.396756132513	2098
852.111969931789	2096
852.827094113419	2112.60009765625
853.542128685257	2113.60009765625
854.257073655158	2131.60009765625
854.971929030969	2121.60009765625
855.686694820551	2120.60009765625
856.40137103175	2102.19995117188
857.115957672423	2086.80004882813
857.830454750423	2093.19995117188
858.544862273597	2106
859.259180249797	2086.80004882813
859.97340868688	2112.80004882813
860.687547592688	2121.80004882813
861.401596975075	2142
862.115556841891	2137
862.829427200985	2137.80004882813
863.543208060205	2148.19995117188
864.256899427402	2135.19995117188
864.970501310423	2124.39990234375
865.684013717114	2116
866.397436655325	2100
867.110770132901	2125
867.824014157691	2123
868.537168737542	2114.60009765625
869.250233880299	2120.39990234375
869.963209593803	2117.19995117188
870.676095885902	2105.80004882813
871.388892764445	2106.80004882813
872.101600237276	2096.80004882813
872.814218312233	2097.19995117188
873.526746997165	2094.19995117188
874.239186299914	2091.39990234375
874.951536228323	2077.60009765625
875.663796790231	2069.19995117188
876.375967993487	2066.60009765625
877.088049845928	2072
877.8000423554	2087.39990234375
878.511945529739	2111.80004882813
879.22375937679	2109.39990234375
879.935483904388	2113.80004882813
880.64711912038	2115.39990234375
881.358665032604	2123.60009765625
882.070121648892	2108.19995117188
882.78148897709	2102.19995117188
883.492767025039	2096.19995117188
884.203955800571	2082.39990234375
884.915055311525	2061
885.626065565741	2059
886.336986571053	2040.59997558594
887.047818335298	2041.19995117188
887.758560866315	2050.19995117188
888.469214171937	2032.19995117188
889.179778260005	2049.60009765625
889.890253138347	2048.39990234375
890.600638814803	2015
891.310935297204	2018.40002441406
892.021142593385	2027
892.731260711183	2037.19995117188
893.441289658429	2049.19995117188
894.15122944295	2063.60009765625
894.861080072591	2084.19995117188
895.570841555173	2072
896.280513898534	2064.60009765625
896.990097110503	2073.39990234375
897.699591198913	2085.60009765625
898.408996171595	2101.60009765625
899.118312036375	2112.39990234375
899.827538801089	2119.80004882813
900.536676473561	2113
901.245725061628	2092.39990234375
901.954684573109	2106.60009765625
902.663555015838	2105.80004882813
903.372336397644	2090.80004882813
904.081028726351	2104.19995117188
904.789632009793	2122.19995117188
905.49814625579	2121.39990234375
906.20657147217	2145.60009765625
906.914907666765	2113.19995117188
907.623154847391	2134.60009765625
908.331313021885	2154.19995117188
909.039382198064	2146.19995117188
909.747362383754	2146.80004882813
910.455253586782	2147.60009765625
911.163055814972	2162
911.870769076143	2173
912.578393378126	2153
913.285928728738	2139
913.993375135802	2141
914.700732607145	2130.19995117188
915.408001150579	2134.60009765625
916.115180773937	2149
916.822271485037	2165.19995117188
917.529273291693	2179.80004882813
918.236186201733	2151
918.943010222971	2164.19995117188
919.649745363234	2151.60009765625
920.356391630333	2141.80004882813
921.062949032096	2091.80004882813
921.769417576333	2075.60009765625
922.475797270864	2082.80004882813
923.182088123512	2090.19995117188
923.888290142089	2094.60009765625
924.594403334414	2115
925.300427708304	2120.39990234375
926.006363271572	2133.60009765625
926.712210032039	2147.39990234375
927.417967997522	2151
928.123637175827	2128.80004882813
928.829217574776	2136
929.534709202184	2145.39990234375
930.240112065859	2128.19995117188
930.945426173621	2130.19995117188
931.650651533283	2108.80004882813
932.355788152653	2104
933.060836039547	2107
933.765795201776	2121.39990234375
934.470665647153	2112
935.175447383492	2134.80004882813
935.880140418599	2134.80004882813
936.584744760286	2142.39990234375
937.289260416366	2157.19995117188
937.993687394647	2177.39990234375
938.698025702939	2178.19995117188
939.402275349051	2176.80004882813
940.106436340793	2185.60009765625
940.810508685976	2172.80004882813
941.5144923924	2145.39990234375
942.21838746788	2142
942.922193920223	2152.19995117188
943.625911757231	2126.80004882813
944.329540986716	2107
945.033081616484	2083.80004882813
945.736533654334	2063.80004882813
946.439897108083	2072.39990234375
947.143171985529	2070.80004882813
947.846358294477	2064.60009765625
948.549456042732	2078.60009765625
949.2524652381	2090.80004882813
949.955385888382	2115.19995117188
950.658218001384	2120.80004882813
951.360961584907	2145.80004882813
952.063616646755	2133.39990234375
952.766183194733	2111.39990234375
953.468661236636	2116.60009765625
954.171050780271	2134.39990234375
954.873351833437	2114
955.575564403935	2117.80004882813
956.277688499565	2114.60009765625
956.97972412813	2098.39990234375
957.681671297424	2087.60009765625
958.383530015255	2101.39990234375
959.085300289414	2103.80004882813
959.786982127703	2122.19995117188
960.488575537918	2090.80004882813
961.190080527859	2091
961.891497105327	2102
962.592825278111	2073.80004882813
963.294065054012	2103.39990234375
963.995216440829	2092
964.696279446353	2121.39990234375
965.397254078383	2110.80004882813
966.098140344714	2114.80004882813
966.798938253139	2107.80004882813
967.499647811456	2103.19995117188
968.200269027458	2098.60009765625
968.900801908937	2089.60009765625
969.601246463685	2108.60009765625
970.3016026995	2087
971.001870624169	2105.39990234375
971.702050245491	2097.39990234375
972.402141571249	2101.39990234375
973.102144609245	2107.39990234375
973.802059367267	2116.80004882813
974.501885853103	2115.39990234375
975.201624074541	2136.19995117188
975.901274039379	2144.19995117188
976.600835755399	2127.39990234375
977.3003092304	2118.80004882813
977.999694472158	2102.60009765625
978.698991488473	2080.39990234375
979.39820028713	2077.60009765625
980.097320875915	2074.39990234375
980.796353262618	2078.60009765625
981.495297455024	2099
982.194153460919	2109.19995117188
982.892921288093	2122.39990234375
983.591600944331	2150.19995117188
984.290192437419	2146.60009765625
984.98869577514	2148.39990234375
985.687110965282	2137.80004882813
986.385438015629	2115.19995117188
987.083676933961	2109.60009765625
987.781827728069	2100.60009765625
988.479890405732	2093.80004882813
989.177864974732	2099.19995117188
989.875751442857	2088.39990234375
990.573549817888	2095.19995117188
991.271260107602	2116.60009765625
991.968882319786	2121
992.666416462217	2132.39990234375
993.363862542681	2122.60009765625
994.061220568959	2121.39990234375
994.758490548823	2107.39990234375
995.455672490061	2102.80004882813
996.152766400451	2097.80004882813
996.849772287773	2103
997.5466901598	2096
998.243520024317	2115.80004882813
998.940261889097	2093.80004882813
999.636915761923	2077.80004882813
1000.33348165057	2050.39990234375
1001.02995956281	2042
1001.72634950643	2050.19995117188
1002.42265148919	2075.19995117188
1003.11886551889	2083.39990234375
1003.81499160328	2091
1004.51102975015	2113.39990234375
1005.20697996727	2117
1005.90284226242	2114.80004882813
1006.59861664337	2115.60009765625
1007.2943031179	2126
1007.98990169377	2118.19995117188
1008.68541237876	2117
1009.38083518064	2111.60009765625
1010.07617010719	2154
1010.77141716617	2143.39990234375
1011.46657636536	2135.60009765625
1012.16164771253	2136.19995117188
1012.85663121546	2096.80004882813
1013.5515268819	2089.19995117188
1014.24633471963	2082.60009765625
1014.94105473642	2098.60009765625
1015.63568694004	2082.80004882813
1016.33023133826	2102.80004882813
1017.02468793885	2125.39990234375
1017.71905674957	2124.80004882813
1018.41333777819	2129.60009765625
1019.10753103249	2108.60009765625
1019.80163652022	2134
1020.49565424916	2119
1021.18958422707	2101.60009765625
1021.88342646171	2113.60009765625
1022.57718096085	2108.19995117188
1023.27084773227	2124.19995117188
1023.96442678371	2132
1024.65791812296	2135
1025.35132175776	2122.39990234375
1026.04463769589	2109.19995117188
1026.73786594511	2074.19995117188
1027.43100651318	2070.19995117188
1028.12405940786	2063.80004882813
1028.81702463692	2051
1029.50990220812	2054.19995117188
1030.20269212921	2064.19995117188
1030.89539440798	2065.19995117188
1031.58800905216	2056.19995117188
1032.28053606952	2024.80004882813
1032.97297546784	2027
1033.66532725485	2023.40002441406
1034.35759143832	2051.39990234375
1035.04976802602	2056.80004882813
1035.7418570257	2051.60009765625
1036.43385844511	2052.39990234375
1037.12577229202	2046.40002441406
1037.81759857419	2059.19995117188
1038.50933729937	2057.39990234375
1039.20098847531	2075.60009765625
1039.89255210978	2103.80004882813
1040.58402821053	2097
1041.27541678532	2086.80004882813
1041.96671784191	2069.60009765625
1042.65793138804	2074
1043.34905743147	2081.39990234375
1044.04009597996	2094
1044.73104704125	2084.39990234375
1045.42191062312	2089.60009765625
1046.1126867333	2098.60009765625
1046.80337537955	2082.19995117188
1047.49397656962	2107
1048.18449031127	2107.80004882813
1048.87491661225	2086
1049.5652554803	2081.60009765625
1050.25550692319	2052.60009765625
1050.94567094865	2040.19995117188
1051.63574756444	2044.19995117188
1052.32573677832	2066.80004882813
1053.01563859803	2069
1053.70545303131	2066.19995117188
1054.39518008592	2068.80004882813
1055.08481976961	2063.80004882813
1055.77437209013	2081
1056.46383705522	2053.19995117188
1057.15321467262	2071.19995117188
1057.8425049501	2082
1058.53170789539	2078.39990234375
1059.22082351624	2058.80004882813
1059.9098518204	2053.80004882813
1060.59879281561	2050.39990234375
1061.28764650962	2055.39990234375
1061.97641291016	2056.80004882813
1062.665092025	2064.39990234375
1063.35368386187	2094.39990234375
1064.04218842851	2089.80004882813
1064.73060573268	2082.80004882813
1065.4189357821	2060.80004882813
1066.10717858452	2027
1066.7953341477	2044.59997558594
1067.48340247936	2032.40002441406
1068.17138358725	2039
1068.85927747912	2048
1069.5470841627	2041.40002441406
1070.23480364573	2070.39990234375
1070.92243593595	2079.60009765625
1071.60998104111	2077.60009765625
1072.29743896894	2051
1072.98480972718	2045.40002441406
1073.67209332357	2044.40002441406
1074.35928976585	2041.80004882813
1075.04639906176	2070.60009765625
1075.73342121903	2085
1076.42035624541	2097.60009765625
1077.10720414862	2111.80004882813
1077.79396493641	2135.19995117188
1078.48063861651	2126.80004882813
1079.16722519666	2102.39990234375
1079.85372468459	2082.19995117188
1080.54013708804	2067
1081.22646241474	2064.19995117188
1081.91270067243	2065.19995117188
1082.59885186884	2063.39990234375
1083.28491601171	2083.60009765625
1083.97089310877	2093
1084.65678316774	2118.19995117188
1085.34258619637	2115
1086.02830220239	2107.80004882813
1086.71393119352	2093.80004882813
1087.39947317751	2100.60009765625
1088.08492816207	2092.80004882813
1088.77029615495	2102.39990234375
1089.45557716387	2099.39990234375
1090.14077119656	2105
1090.82587826075	2079
1091.51089836417	2096.80004882813
1092.19583151456	2087.39990234375
1092.88067771963	2094.19995117188
1093.56543698712	2075.80004882813
1094.25010932475	2081.19995117188
1094.93469474026	2056.60009765625
1095.61919324137	2077.80004882813
1096.3036048358	2083.19995117188
1096.98792953129	2113.60009765625
1097.67216733555	2097
1098.35631825632	2118.60009765625
1099.04038230132	2113.19995117188
1099.72435947828	2127.60009765625
1100.40824979492	2099.19995117188
1101.09205325895	2088.39990234375
1101.77576987812	2088.60009765625
1102.45939966014	2075.60009765625
1103.14294261273	2070.19995117188
1103.82639874362	2041
1104.50976806054	2015.19995117188
1105.19305057119	2044
1105.87624628331	2034
1106.55935520461	2066.80004882813
1107.24237734283	2076.60009765625
1107.92531270566	2072.80004882813
1108.60816130085	2077.39990234375
1109.2909231361	2080.60009765625
1109.97359821914	2083.39990234375
1110.65618655768	2066.80004882813
1111.33868815946	2101.19995117188
1112.02110303217	2096.80004882813
1112.70343118355	2122.19995117188
1113.3856726213	2132.80004882813
1114.06782735316	2120.39990234375
1114.74989538683	2111.19995117188
1115.43187673002	2096.39990234375
1116.11377139047	2067.80004882813
1116.79557937588	2076
1117.47730069397	2058.19995117188
1118.15893535245	2098.19995117188
1118.84048335904	2119.19995117188
1119.52194472146	2132.39990234375
1120.20331944741	2117.19995117188
1120.88460754462	2110.19995117188
1121.56580902079	2104.80004882813
1122.24692388364	2092
1122.92795214088	2085
1123.60889380022	2089
1124.28974886938	2082.60009765625
1124.97051735606	2127.19995117188
1125.65119926799	2142.80004882813
1126.33179461286	2147.60009765625
1127.0123033984	2169.39990234375
1127.6927256323	2172
1128.37306132229	2166.80004882813
1129.05331047606	2148.39990234375
1129.73347310134	2149.39990234375
1130.41354920582	2126.19995117188
1131.09353879722	2108.80004882813
1131.77344188324	2120.19995117188
1132.45325847159	2120.60009765625
1133.13298856999	2140.39990234375
1133.81263218612	2159.60009765625
1134.49218932772	2121.19995117188
1135.17166000247	2111.60009765625
1135.85104421809	2111
1136.53034198227	2098.19995117188
1137.20955330274	2057.60009765625
1137.88867818718	2044.80004882813
1138.56771664331	2043
1139.24666867883	2078.19995117188
1139.92553430144	2084
1140.60431351885	2106.80004882813
1141.28300633876	2103.19995117188
1141.96161276887	2088
1142.64013281689	2117
1143.31856649051	2110.19995117188
1143.99691379744	2126
1144.67517474538	2117.80004882813
1145.35334934203	2095
1146.03143759509	2118.60009765625
1146.70943951226	2095.80004882813
1147.38735510125	2069.60009765625
1148.06518436974	2070
1148.74292732545	2077.80004882813
1149.42058397606	2071.39990234375
1150.09815432928	2064.60009765625
1150.7756383928	2078.60009765625
1151.45303617432	2075.19995117188
1152.13034768155	2090.39990234375
1152.80757292217	2102.19995117188
1153.48471190389	2117.80004882813
1154.16176463439	2117
1154.83873112138	2117
1155.51561137255	2105.39990234375
1156.1924053956	2107
1156.86911319822	2112
1157.5457347881	2136.19995117188
1158.22227017294	2129.60009765625
1158.89871936044	2110.19995117188
1159.57508235828	2102.60009765625
1160.25135917416	2083
1160.92754981578	2086.39990234375
1161.60365429081	2060.60009765625
1162.27967260697	2073.80004882813
1162.95560477193	2069
1163.63145079339	2059.80004882813
1164.30721067904	2071.19995117188
1164.98288443657	2068.60009765625
1165.65847207367	2071.19995117188
1166.33397359803	2091.80004882813
1167.00938901735	2094
1167.6847183393	2080
1168.35996157157	2089.80004882813
1169.03511872187	2092.60009765625
1169.71018979787	2092.19995117188
1170.38517480726	2104.39990234375
1171.06007375773	2097.60009765625
1171.73488665696	2087.39990234375
1172.40961351265	2110.19995117188
1173.08425433247	2091.39990234375
1173.75880912412	2105
1174.43327789528	2134.60009765625
1175.10766065364	2145.39990234375
1175.78195740687	2146.39990234375
1176.45616816267	2190.19995117188
1177.13029292871	2201.80004882813
1177.80433171269	2198
1178.47828452229	2163
1179.15215136518	2140
1179.82593224905	2145.60009765625
1180.49962718159	2141
1181.17323617047	2153
1181.84675922337	2153.60009765625
1182.52019634799	2173.39990234375
1183.193547552	2164
1183.86681284307	2175.80004882813
1184.53999222889	2178
1185.21308571714	2192.39990234375
1185.8860933155	2193.19995117188
1186.55901503165	2168.39990234375
1187.23185087326	2187.19995117188
1187.90460084802	2186.60009765625
1188.5772649636	2203.80004882813
1189.24984322768	2201.39990234375
1189.92233564794	2205.39990234375
1190.59474223206	2218
1191.2670629877	2231
1191.93929792255	2234.80004882813
1192.61144704428	2231.19995117188
1193.28351036058	2220.80004882813
1193.9554878791	2173.80004882813
1194.62737960754	2168.19995117188
1195.29918555356	2189.60009765625
1195.97090572483	2211.39990234375
1196.64254012903	2198.80004882813
1197.31408877384	2178.80004882813
1197.98555166693	2200.39990234375
1198.65692881596	2172.80004882813
1199.32822022862	2161
1199.99942591256	2134.39990234375
1200.67054587548	2133.19995117188
1201.34158012503	2126.80004882813
1202.01252866889	2122.19995117188
1202.68339151473	2108.80004882813
1203.35416867021	2105.39990234375
1204.02486014301	2101.19995117188
1204.6954659408	2100.80004882813
1205.36598607124	2111.19995117188
1206.03642054201	2121.19995117188
1206.70676936078	2119.80004882813
1207.3770325352	2132.19995117188
1208.04721007295	2129
1208.7173019817	2118.80004882813
1209.38730826911	2117.80004882813
1210.05722894285	2092.39990234375
1210.72706401059	2093.39990234375
1211.39681347999	2073.19995117188
1212.06647735872	2090.60009765625
1212.73605565444	2105.39990234375
1213.40554837481	2083.39990234375
1214.07495552751	2092
1214.74427712019	2075.60009765625
1215.41351316052	2062.39990234375
1216.08266365617	2073.80004882813
1216.75172861479	2055.80004882813
1217.42070804405	2084.19995117188
1218.0896019516	2086.19995117188
1218.75841034513	2100.19995117188
1219.42713323227	2108.60009765625
1220.0957706207	2145.19995117188
1220.76432251808	2146.19995117188
1221.43278893207	2145.60009765625
1222.10116987032	2159
1222.7694653405	2136
1223.43767535026	2128
1224.10579990727	2113.19995117188
1224.77383901918	2112.60009765625
1225.44179269366	2110.60009765625
1226.10966093835	2099
1226.77744376093	2082.39990234375
1227.44514116904	2045.19995117188
1228.11275317034	2074.60009765625
1228.78027977249	2072.39990234375
1229.44772098315	2064.60009765625
1230.11507680996	2052.19995117188
1230.7823472606	2051.80004882813
1231.44953234271	2053.39990234375
1232.11663206394	2073.19995117188
1232.78364643195	2080.19995117188
1233.4505754544	2085.19995117188
1234.11741913894	2101.60009765625
1234.78417749322	2093.80004882813
1235.45085052489	2090.80004882813
1236.11743824162	2086.60009765625
1236.78394065104	2062
1237.45035776082	2060.19995117188
1238.1166895786	2064.39990234375
1238.78293611204	2054.60009765625
1239.44909736878	2073.60009765625
1240.11517335648	2069.19995117188
1240.78116408279	2058.60009765625
1241.44706955535	2068.80004882813
1242.11288978182	2046
1242.77862476985	2030.80004882813
1243.44427452708	2016
1244.10983906116	2023.40002441406
1244.77531837974	2020
1245.44071249047	2035.59997558594
1246.106021401	2032.19995117188
1246.77124511898	2074.19995117188
1247.43638365204	2063.39990234375
1248.10143700783	2053.60009765625
1248.76640519401	2071.19995117188
1249.43128821822	2054.60009765625
1250.0960860881	2043.59997558594
1250.76079881129	2039.19995117188
1251.42542639545	2019.40002441406
1252.08996884822	2029
1252.75442617723	2020
1253.41879839014	2038.80004882813
1254.08308549458	2062.19995117188
1254.74728749821	2069.80004882813
1255.41140440866	2047.40002441406
1256.07543623357	2052.39990234375
1256.73938298059	2056.80004882813
1257.40324465735	2060.19995117188
1258.0670212715	2045.40002441406
1258.73071283068	2038.80004882813
1259.39431934253	2050
1260.05784081468	2044.80004882813
1260.72127725479	2065.80004882813
1261.38462867049	2053.39990234375
1262.0478950694	2042.40002441406
1262.71107645919	2045.40002441406
1263.37417284748	2062.60009765625
1264.03718424191	2064
1264.70011065011	2074
1265.36295207974	2064
1266.02570853841	2073.39990234375
1266.68838003378	2068.60009765625
1267.35096657346	2085.39990234375
1268.01346816511	2078
1268.67588481636	2080.80004882813
1269.33821653483	2056.80004882813
1270.00046332817	2035.40002441406
1270.66262520401	2071
1271.32470216998	2072.19995117188
1271.98669423372	2056.80004882813
1272.64860140285	2034.19995117188
1273.31042368503	2023.40002441406
1273.97216108786	2027.80004882813
1274.633813619	2034.40002441406
1275.29538128606	2041.19995117188
1275.95686409669	2042.40002441406
1276.6182620585	2022.59997558594
1277.27957517914	2007.19995117188
1277.94080346624	2033
1278.60194692741	2024.80004882813
1279.2630055703	2017.19995117188
1279.92397940253	2032.59997558594
1280.58486843173	2028
1281.24567266552	2030.40002441406
1281.90639211155	2012
1282.56702677743	2022.80004882813
1283.2275766708	2024.59997558594
1283.88804179927	2037
1284.54842217049	2035
1285.20871779206	2055.60009765625
1285.86892867163	2056.39990234375
1286.52905481681	2081.39990234375
1287.18909623523	2069.60009765625
1287.84905293452	2051.60009765625
1288.5089249223	2064.60009765625
1289.16871220619	2055
1289.82841479383	2083.39990234375
1290.48803269282	2094.19995117188
1291.1475659108	2084.60009765625
1291.80701445539	2087
1292.46637833421	2062.60009765625
1293.12565755489	2066.60009765625
1293.78485212504	2063
1294.44396205229	2036.80004882813
1295.10298734425	2050.19995117188
1295.76192800856	2056.19995117188
1296.42078405283	2048.19995117188
1297.07955548467	2061.60009765625
1297.73824231171	2070.80004882813
1298.39684454158	2098.80004882813
1299.05536218188	2097.19995117188
1299.71379524023	2108.19995117188
1300.37214372427	2107
1301.03040764159	2086.60009765625
1301.68858699983	2097.19995117188
1302.34668180659	2090
1303.0046920695	2080.80004882813
1303.66261779617	2083.39990234375
1304.32045899422	2099.80004882813
1304.97821567126	2111.80004882813
1305.63588783492	2109.80004882813
1306.29347549279	2144
1306.95097865251	2108.80004882813
1307.60839732168	2082
1308.26573150791	2107.39990234375
1308.92298121883	2115.39990234375
1309.58014646204	2114.39990234375
1310.23722724517	2111.39990234375
1310.89422357581	2150.39990234375
1311.55113546158	2150.19995117188
1312.2079629101	2137.60009765625
1312.86470592898	2131.60009765625
1313.52136452582	2115.19995117188
1314.17793870824	2108.39990234375
1314.83442848386	2123.80004882813
1315.49083386027	2116.39990234375
1316.14715484509	2129.19995117188
1316.80339144594	2130.80004882813
1317.45954367041	2143.39990234375
1318.11561152611	2153.60009765625
1318.77159502067	2143
1319.42749416168	2145.60009765625
1320.08330895674	2135.80004882813
1320.73903941348	2141
1321.3946855395	2126.39990234375
1322.0502473424	2136.80004882813
1322.70572482978	2133
1323.36111800926	2149.60009765625
1324.01642688845	2122.19995117188
1324.67165147494	2131
1325.32679177634	2121.80004882813
1325.98184780025	2104.60009765625
1326.63681955429	2116.60009765625
1327.29170704605	2085.39990234375
1327.94651028314	2072.80004882813
1328.60122927316	2066.19995117188
1329.25586402371	2049
1329.9104145424	2056.39990234375
1330.56488083683	2072.39990234375
1331.2192629146	2074.39990234375
1331.87356078331	2095.80004882813
1332.52777445056	2097.39990234375
1333.18190392395	2105.19995117188
1333.83594921109	2097.39990234375
1334.48991031958	2103
1335.143787257	2075.60009765625
1335.79758003097	2091.19995117188
1336.45128864908	2111.39990234375
1337.10491311893	2114.19995117188
1337.75845344813	2097.19995117188
1338.41190964425	2090.19995117188
1339.06528171491	2095
1339.71856966771	2095.60009765625
1340.37177351023	2105.60009765625
1341.02489325007	2094
1341.67792889484	2085.60009765625
1342.33088045212	2056.19995117188
1342.98374792952	2064.19995117188
1343.63653133462	2067.80004882813
1344.28923067503	2056.60009765625
1344.94184595833	2069.19995117188
1345.59437719212	2090
1346.246824384	2142.39990234375
1346.89918754155	2133
1347.55146667238	2152.80004882813
1348.20366178407	2154.80004882813
1348.85577288421	2172.19995117188
1349.50779998041	2160.60009765625
1350.15974308024	2137
1350.8116021913	2136.39990234375
1351.46337732119	2157.80004882813
1352.11506847748	2153.39990234375
1352.76667566778	2143.19995117188
1353.41819889967	2136.39990234375
1354.06963818074	2148
1354.72099351858	2149.60009765625
1355.37226492079	2140
1356.02345239494	2145
1356.67455594862	2156
1357.32557558943	2171.60009765625
1357.97651132496	2208.60009765625
1358.62736316277	2219.39990234375
1359.27813111048	2247.19995117188
1359.92881517565	2274.80004882813
1360.57941536589	2276.19995117188
1361.22993168876	2272.39990234375
1361.88036415186	2279.60009765625
1362.53071276278	2287.19995117188
1363.1809775291	2282.19995117188
1363.8311584584	2260.80004882813
1364.48125555826	2259.80004882813
1365.13126883627	2214
1365.78119830001	2175
1366.43104395707	2155.19995117188
1367.08080581503	2125.19995117188
1367.73048388147	2122.39990234375
1368.38007816397	2106.60009765625
1369.02958867011	2105.19995117188
1369.67901540748	2107
1370.32835838365	2099
1370.9776176062	2081.60009765625
1371.62679308273	2070.39990234375
1372.27588482079	2098.19995117188
1372.92489282798	2110.60009765625
1373.57381711188	2123.60009765625
1374.22265768006	2135.39990234375
1374.87141454009	2106.60009765625
1375.52008769957	2076.39990234375
1376.16867716606	2066.80004882813
1376.81718294715	2081
1377.4656050504	2053
1378.1139434834	2050.60009765625
1378.76219825373	2050.19995117188
1379.41036936895	2064.80004882813
1380.05845683664	2036.80004882813
1380.70646066439	2040.59997558594
1381.35438085976	2024
1382.00221743032	2014.40002441406
1382.64997038366	2038.80004882813
1383.29763972735	2044.59997558594
1383.94522546895	2061.60009765625
1384.59272761605	2068.39990234375
1385.24014617621	2077.39990234375
1385.88748115701	2055
1386.53473256602	2032.40002441406
1387.18190041081	2026.40002441406
1387.82898469895	2022.40002441406
1388.47598543802	2014.80004882813
1389.12290263558	2030.59997558594
1389.7697362992	2015.80004882813
1390.41648643646	1990.40002441406
1391.06315305492	1996.59997558594
1391.70973616215	1992.59997558594
1392.35623576573	2010.19995117188
1393.00265187321	1993
1393.64898449217	1993
1394.29523363018	2007.19995117188
1394.94139929481	1995.59997558594
1395.58748149361	1985.19995117188
1396.23348023415	1977.40002441406
1396.87939552402	1981.80004882813
1397.52522737076	1959.19995117188
1398.17097578195	1916
1398.81664076514	1917
1399.46222232792	1888.19995117188
1400.10772047783	1891.59997558594
1400.75313522245	1898.19995117188
1401.39846656934	1916.40002441406
1402.04371452605	1931.80004882813
1402.68887910016	1949.40002441406
1403.33396029924	1920.40002441406
1403.97895813083	1916.80004882813
1404.6238726025	1928
1405.26870372182	1918.19995117188
1405.91345149634	1910.80004882813
1406.55811593363	1915.80004882813
1407.20269704125	1949.59997558594
1407.84719482676	1943.40002441406
1408.49160929772	1955.40002441406
1409.13594046168	1975
1409.78018832622	1973.59997558594
1410.42435289887	1983
1411.06843418722	1979.59997558594
1411.7124321988	1997.40002441406
1412.3563469412	2004.19995117188
1413.00017842194	2009.40002441406
1413.64392664861	2010.59997558594
1414.28759162875	2013.59997558594
1414.93117336992	1991.59997558594
1415.57467187967	1975.19995117188
1416.21808716557	1987.19995117188
1416.86141923516	2007.59997558594
1417.50466809601	1988.19995117188
1418.14783375567	1994.40002441406
1418.79091622169	1984.40002441406
1419.43391550162	1995.40002441406
1420.07683160303	1999.59997558594
1420.71966453346	1999.80004882813
1421.36241430046	1990.80004882813
1422.0050809116	1978.59997558594
1422.64766437442	1988.40002441406
1423.29016469647	2005.80004882813
1423.93258188531	2007
1424.57491594848	2018.59997558594
1425.21716689354	2011.40002441406
1425.85933472805	2012.40002441406
1426.50141945954	2035
1427.14342109557	2032.80004882813
1427.78533964369	2024
1428.42717511144	2012.80004882813
1429.06892750639	1984.19995117188
1429.71059683607	1958.59997558594
1430.35218310803	1971.80004882813
1430.99368632983	1984.19995117188
1431.635106509	1983
1432.2764436531	1998.19995117188
1432.91769776967	1983.19995117188
1433.55886886627	2004.19995117188
1434.19995695043	1992.40002441406
1434.84096202969	2003.59997558594
1435.48188411162	1997
1436.12272320375	1995.59997558594
1436.76347931363	1993.59997558594
1437.40415244879	1966.40002441406
1438.0447426168	1984.80004882813
1438.68524982518	1982
1439.32567408148	1985.59997558594
1439.96601539325	1973.59997558594
1440.60627376803	1955.80004882813
1441.24644921336	1972.59997558594
1441.88654173678	1958.19995117188
1442.52655134583	1948.80004882813
1443.16647804806	1964.80004882813
1443.806321851	1963.40002441406
1444.4460827622	1961.19995117188
1445.0857607892	1958.80004882813
1445.72535593953	1959.59997558594
1446.36486822074	1965
1447.00429764037	1976
1447.64364420595	1972
1448.28290792502	1977.80004882813
1448.92208880512	1968.40002441406
1449.56118685379	1970.59997558594
1450.20020207857	1954.59997558594
1450.83913448699	1959.40002441406
1451.47798408659	1985
1452.1167508849	1981.40002441406
1452.75543488947	1961.19995117188
1453.39403610782	1954.80004882813
1454.0325545475	1958.80004882813
1454.67099021603	1964.40002441406
1455.30934312097	1967.19995117188
1455.94761326982	1977.40002441406
1456.58580067014	1995
1457.22390532945	2002
1457.86192725529	1978.19995117188
1458.49986645519	1996.40002441406
1459.13772293668	1995.19995117188
1459.7754967073	1962
1460.41318777457	1956
1461.05079614604	1949.40002441406
1461.68832182922	1936.59997558594
1462.32576483166	1922.80004882813
1462.96312516087	1934.19995117188
1463.6004028244	1957.80004882813
1464.23759782977	1958.80004882813
1464.8747101845	1993
1465.51173989614	2017.59997558594
1466.14868697221	2024
1466.78555142024	2021.19995117188
1467.42233324774	2007.40002441406
1468.05903246227	1993.40002441406
1468.69564907133	1976.80004882813
1469.33218308246	1952.59997558594
1469.96863450317	1949.19995117188
1470.60500334102	1963.80004882813
1471.2412896035	1967.40002441406
1471.87749329816	1957.19995117188
1472.51361443251	1984
1473.14965301409	1985
1473.78560905041	1990
1474.421482549	1990.40002441406
1475.05727351739	1990.19995117188
1475.69298196309	1984.40002441406
1476.32860789364	1988.80004882813
1476.96415131654	1981.59997558594
1477.59961223934	1986.80004882813
1478.23499066954	1940.19995117188
1478.87028661467	1945.19995117188
1479.50550008226	1961.59997558594
1480.14063107981	1983.19995117188
1480.77567961486	1968.80004882813
1481.41064569492	1977.40002441406
1482.04552932752	1998
1482.68033052017	1978.80004882813
1483.31504928039	1984.19995117188
1483.9496856157	2002
1484.58423953363	2000.19995117188
1485.21871104168	1994.40002441406
1485.85310014738	1974.59997558594
1486.48740685824	1968.40002441406
1487.12163118178	1974
1487.75577312553	1950.19995117188
1488.38983269698	1950.40002441406
1489.02380990367	1934.19995117188
1489.65770475311	1963.19995117188
1490.29151725281	1972
1490.92524741029	1995.80004882813
1491.55889523306	1989.80004882813
1492.19246072863	1997.59997558594
1492.82594390453	1988.80004882813
1493.45934476826	1997.59997558594
1494.09266332734	2017.19995117188
1494.72589958928	2013.59997558594
1495.3590535616	2025.19995117188
1495.99212525181	2026.40002441406
1496.62511466741	2036.40002441406
1497.25802181592	2029.80004882813
1497.89084670485	2007
1498.52358934172	2008.19995117188
1499.15624973403	1992.19995117188
1499.7888278893	1986.19995117188
1500.42132381503	1999.19995117188
1501.05373751873	2021.59997558594
1501.68606900792	2046.40002441406
1502.31831829009	2064.60009765625
1502.95048537277	2060
1503.58257026346	2093.60009765625
1504.21457296966	2123.39990234375
1504.84649349889	2144.60009765625
1505.47833185864	2174.80004882813
1506.11008805644	2166.60009765625
1506.74176209978	2174.39990234375
1507.37335399617	2175
1508.00486375312	2148.19995117188
1508.63629137813	2133.60009765625
1509.2676368787	2128
1509.89890026235	2114.39990234375
1510.53008153658	2107.19995117188
1511.16118070889	2104.60009765625
1511.79219778677	2111.80004882813
1512.42313277775	2114.39990234375
1513.05398568932	2098.80004882813
1513.68475652898	2090.60009765625
1514.31544530424	2106.19995117188
1514.9460520226	2104.39990234375
1515.57657669155	2100.60009765625
1516.20701931861	2046.19995117188
1516.83737991127	2038
1517.46765847702	2019.19995117188
1518.09785502339	2028.59997558594
1518.72796955785	2018
1519.35800208792	2010.40002441406
1519.98795262109	2023
1520.61782116486	2023.40002441406
1521.24760772673	2021
1521.87731231419	2008.19995117188
1522.50693493475	2001
1523.1364755959	2020.40002441406
1523.76593430514	1999.40002441406
1524.39531106997	1997.40002441406
1525.02460589788	1998.19995117188
1525.65381879637	2005.80004882813
1526.28294977293	1971.59997558594
1526.91199883507	1961
1527.54096599027	1953
1528.16985124603	1946
1528.79865460984	1937
1529.4273760892	1946.80004882813
1530.05601569161	1940.19995117188
1530.68457342455	1940.19995117188
1531.31304929552	1950.80004882813
1531.94144331201	1960.19995117188
1532.56975548151	1962.40002441406
1533.19798581152	1974.40002441406
1533.82613430953	1969.19995117188
1534.45420098302	1980.19995117188
1535.08218583949	1970
1535.71008888643	1962.40002441406
1536.33791013134	1951
1536.96564958169	1967.19995117188
1537.59330724498	1958.40002441406
1538.22088312871	1956.19995117188
1538.84837724034	1957.40002441406
1539.47578958739	1955
1540.10312017733	1957.40002441406
1540.73036901765	1942
1541.35753611584	1926.59997558594
1541.98462147939	1917.80004882813
1542.61162511578	1941.59997558594
1543.2385470325	1925.80004882813
1543.86538723704	1934.40002441406
1544.49214573688	1952.19995117188
1545.11882253951	1944.59997558594
1545.74541765241	1955.80004882813
1546.37193108306	1966.19995117188
1546.99836283896	1947.19995117188
1547.62471292758	1960.19995117188
1548.25098135641	1935.80004882813
1548.87716813294	1921.59997558594
1549.50327326464	1924.59997558594
1550.12929675899	1917.40002441406
1550.75523862349	1913.19995117188
1551.38109886561	1944
1552.00687749284	1952
1552.63257451264	1966.59997558594
1553.25818993252	1959.80004882813
1553.88372375994	1951.80004882813
1554.50917600239	1942.40002441406
1555.13454666734	1906.19995117188
1555.75983576228	1906.19995117188
1556.38504329469	1896.59997558594
1557.01016927204	1892
1557.63521370181	1897.40002441406
1558.26017659149	1905.80004882813
1558.88505794854	1935
1559.50985778045	1915.80004882813
1560.13457609469	1929.19995117188
1560.75921289874	1932.80004882813
1561.38376820008	1932.59997558594
1562.00824200618	1923.80004882813
1562.63263432452	1933.40002441406
1563.25694516257	1935.19995117188
1563.88117452781	1932
1564.50532242772	1941.59997558594
1565.12938886976	1908
1565.75337386141	1901.19995117188
1566.37727741015	1911
1567.00109952345	1915
1567.62484020878	1909.19995117188
1568.24849947361	1891.40002441406
1568.87207732542	1923.19995117188
1569.49557377168	1922.19995117188
1570.11898881986	1925.80004882813
1570.74232247743	1946.59997558594
1571.36557475186	1946.80004882813
1571.98874565062	1980.59997558594
1572.61183518119	1977.40002441406
1573.23484335103	1985.59997558594
1573.85777016761	2010.80004882813
1574.4806156384	2008.19995117188
1575.10337977088	2010.19995117188
1575.7260625725	2028.19995117188
1576.34866405074	1999.59997558594
1576.97118421306	1996.80004882813
1577.59362306694	2029.59997558594
1578.21598061984	1997.19995117188
1578.83825687922	1993.59997558594
1579.46045185255	1975.19995117188
1580.08256554731	1977.19995117188
1580.70459797094	1961.80004882813
1581.32654913093	1943.19995117188
1581.94841903473	1940.40002441406
1582.57020768981	1908.80004882813
1583.19191510364	1919.80004882813
1583.81354128367	1912.19995117188
1584.43508623737	1892
1585.05654997221	1897.80004882813
1585.67793249564	1896
1586.29923381514	1894.19995117188
1586.92045393815	1884
1587.54159287216	1892.59997558594
1588.1626506246	1888.19995117188
1588.78362720296	1889
1589.40452261468	1892.19995117188
1590.02533686724	1884.19995117188
1590.64606996808	1900.19995117188
1591.26672192467	1892.19995117188
1591.88729274447	1878.40002441406
1592.50778243493	1871.19995117188
1593.12819100352	1862.19995117188
1593.7485184577	1856.59997558594
1594.36876480492	1854.40002441406
1594.98893005264	1844.40002441406
1595.60901420832	1836.59997558594
1596.22901727941	1843.80004882813
1596.84893927338	1837.59997558594
1597.46878019767	1841.40002441406
1598.08854005975	1853.59997558594
1598.70821886707	1860.40002441406
1599.32781662708	1873.40002441406
1599.94733334725	1877.80004882813
1600.56676903502	1866.19995117188
1601.18612369785	1882.19995117188
1601.8053973432	1874.59997558594
1602.42458997851	1856.59997558594
1603.04370161124	1861.59997558594
1603.66273224884	1850.40002441406
1604.28168189878	1833.80004882813
1604.90055056849	1822.19995117188
1605.51933826543	1832.80004882813
1606.13804499705	1813.19995117188
1606.75667077081	1812.19995117188
1607.37521559415	1825
1607.99367947452	1822
1608.61206241938	1829.59997558594
1609.23036443618	1824.59997558594
1609.84858553236	1823
1610.46672571537	1802
1611.08478499267	1814.59997558594
1611.7027633717	1843.40002441406
1612.3206608599	1836.40002441406
1612.93847746473	1815.40002441406
1613.55621319364	1809.19995117188
1614.17386805407	1809.40002441406
1614.79144205347	1799
1615.40893519928	1800.59997558594
1616.02634749895	1799.80004882813
1616.64367895993	1812.40002441406
1617.26092958966	1792.40002441406
1617.87809939559	1795.80004882813
1618.49518838516	1797.40002441406
1619.11219656582	1797.80004882813
1619.729123945	1774.59997558594
1620.34597053016	1794.59997558594
1620.96273632874	1787.19995117188
1621.57942134818	1765
1622.19602559592	1768.59997558594
1622.8125490794	1779.59997558594
1623.42899180607	1789.80004882813
1624.04535378337	1779.59997558594
1624.66163501874	1792.19995117188
1625.27783551963	1781.40002441406
1625.89395529346	1795.80004882813
1626.50999434768	1789
1627.12595268974	1781.59997558594
1627.74183032707	1768.80004882813
1628.3576272671	1769.59997558594
1628.97334351729	1739.80004882813
1629.58897908506	1740.19995117188
1630.20453397786	1758
1630.82000820313	1770
1631.43540176829	1787
1632.05071468079	1773.40002441406
1632.66594694807	1782
1633.28109857756	1771.80004882813
1633.8961695767	1779.80004882813
1634.51115995292	1774.59997558594
1635.12606971366	1779.19995117188
1635.74089886636	1798.19995117188
1636.35564741844	1802.19995117188
1636.97031537734	1800.19995117188
1637.58490275051	1795.40002441406
1638.19940954536	1815.40002441406
1638.81383576934	1798
1639.42818142987	1801.59997558594
1640.0424465344	1802
1640.65663109034	1811.80004882813
1641.27073510515	1827.19995117188
1641.88475858623	1824.80004882813
1642.49870154104	1819.80004882813
1643.11256397699	1813.19995117188
1643.72634590152	1813.40002441406
1644.34004732206	1815.19995117188
1644.95366824604	1847.40002441406
1645.56720868089	1844
1646.18066863404	1852.80004882813
1646.79404811291	1857.59997558594
1647.40734712494	1881.80004882813
1648.02056567755	1875.19995117188
1648.63370377817	1873.40002441406
1649.24676143423	1868.59997558594
1649.85973865316	1855.59997558594
1650.47263544238	1864.59997558594
1651.08545180932	1854.80004882813
1651.6981877614	1851
1652.31084330606	1837
1652.92341845071	1827.59997558594
1653.53591320278	1826.80004882813
1654.1483275697	1808.80004882813
1654.7606615589	1810.59997558594
1655.37291517778	1816.19995117188
1655.98508843379	1793
1656.59718133434	1757
1657.20919388685	1765.59997558594
1657.82112609875	1766.19995117188
1658.43297797747	1751.40002441406
1659.04474953041	1740
1659.65644076501	1746.80004882813
1660.26805168869	1733.40002441406
1660.87958230886	1713.19995117188
1661.49103263294	1716.40002441406
1662.10240266837	1716.80004882813
1662.71369242255	1688.19995117188
1663.32490190291	1699
1663.93603111687	1692
1664.54708007184	1703.19995117188
1665.15804877524	1700.80004882813
1665.7689372345	1709
1666.37974545703	1717.19995117188
1666.99047345024	1720.19995117188
1667.60112122156	1712.80004882813
1668.2116887784	1715.40002441406
1668.82217612818	1715.40002441406
1669.43258327831	1691
1670.04291023622	1658.40002441406
1670.65315700931	1655.40002441406
1671.263323605	1630.19995117188
1671.8734100307	1606.40002441406
1672.48341629384	1607.59997558594
1673.09334240182	1613.40002441406
1673.70318836206	1594.59997558594
1674.31295418197	1587.40002441406
1674.92263986896	1585.40002441406
1675.53224543046	1581.80004882813
1676.14177087386	1582.19995117188
1676.75121620658	1598.40002441406
1677.36058143604	1600.19995117188
1677.96986656964	1604.80004882813
1678.5790716148	1623.19995117188
1679.18819657892	1624.80004882813
1679.79724146943	1647.19995117188
1680.40620629372	1643
1681.0150910592	1652.19995117188
1681.6238957733	1674.19995117188
1682.23262044341	1681.19995117188
1682.84126507694	1671.19995117188
1683.4498296813	1671.19995117188
1684.0583142639	1674.59997558594
1684.66671883216	1664.59997558594
1685.27504339346	1659.19995117188
1685.88328795523	1663.40002441406
1686.49145252487	1659.40002441406
1687.09953710978	1656
1687.70754171737	1654
1688.31546635505	1658
1688.92331103021	1686.80004882813
1689.53107575028	1669
1690.13876052265	1667.80004882813
1690.74636535472	1671.59997558594
1691.3538902539	1669.40002441406
1691.96133522759	1639.80004882813
1692.5687002832	1632.19995117188
1693.17598542812	1614.19995117188
1693.78319066977	1592.59997558594
1694.39031601554	1575
1694.99736147283	1575.19995117188
1695.60432704905	1576.19995117188
1696.2112127516	1599.19995117188
1696.81801858788	1620.19995117188
1697.42474456528	1618.80004882813
1698.03139069121	1616.19995117188
1698.63795697307	1610.59997558594
1699.24444341826	1599.19995117188
1699.85085003417	1595.80004882813
1700.45717682821	1581.80004882813
1701.06342380778	1576.19995117188
1701.66959098026	1570
1702.27567835307	1569
1702.88168593359	1565.59997558594
1703.48761372922	1551.59997558594
1704.09346174737	1550.80004882813
1704.69922999542	1561.40002441406
1705.30491848077	1569.59997558594
1705.91052721083	1581.59997558594
1706.51605619297	1586
1707.12150543461	1579.40002441406
1707.72687494312	1571.59997558594
1708.33216472592	1565.80004882813
1708.93737479039	1566.40002441406
1709.54250514392	1548.80004882813
