634.977642221345	1955.40002441406
635.719821695905	1987.40002441406
636.461909203392	1982.80004882813
637.203904751776	1997
637.945808349023	1985.40002441406
638.687620003102	1985
639.42933972198	1991.80004882813
640.170967513616	1996.19995117188
640.912503385981	1968.40002441406
641.653947347041	1964.40002441406
642.395299404758	1942.59997558594
643.13655956709	1944
643.877727842014	1902.40002441406
644.61880423748	1908
645.359788761455	1889.59997558594
646.100681421905	1931
646.841482226789	1930.59997558594
647.582191184074	1942.19995117188
648.322808301711	1951
649.06333358767	1933.19995117188
649.803767049909	1938.80004882813
650.544108696385	1956.80004882813
651.28435853506	1966
652.024516573894	1990
652.764582820849	1982.80004882813
653.504557283875	2016.40002441406
654.244439970937	1999.19995117188
654.984230889991	2015.40002441406
655.723930048995	2014.19995117188
656.463537455909	2034.59997558594
657.203053118683	2036.80004882813
657.942477045275	2035
658.681809243647	2043.40002441406
659.421049721747	2025.40002441406
660.160198487535	2023
660.899255548962	2024.19995117188
661.638220913985	2025.40002441406
662.377094590559	2029.80004882813
663.115876586631	2025.19995117188
663.854566910165	2023.80004882813
664.593165569107	2023.19995117188
665.331672571406	2018.59997558594
666.07008792502	2020.59997558594
666.808411637902	2009
667.546643717996	1984.59997558594
668.284784173258	1972
669.022833011641	1968.40002441406
669.760790241089	1996.80004882813
670.498655869554	1981.59997558594
671.236429904987	1985.19995117188
671.97411235534	1977.19995117188
672.711703228551	1992.40002441406
673.449202532577	2006
674.186610275364	2044.19995117188
674.923926464857	2044.80004882813
675.661151109008	2080.60009765625
676.398284215759	2064.80004882813
677.135325793058	2089.39990234375
677.87227584885	2086.39990234375
678.609134391082	2100.60009765625
679.345901427696	2108.19995117188
680.082576966644	2094.80004882813
680.819161015861	2067.39990234375
681.555653583298	2080.60009765625
682.292054676895	2082.80004882813
683.028364304594	2065.39990234375
683.764582474344	2032
684.500709194083	2030.59997558594
685.236744471752	2038.40002441406
685.972688315294	2030.19995117188
686.708540732652	2011.19995117188
687.444301731762	2039.59997558594
688.179971320572	2046.19995117188
688.915549507013	2029
689.651036299034	2005.80004882813
690.386431704569	2020
691.121735731559	2012.19995117188
691.85694838794	2017.40002441406
692.592069681652	2013.80004882813
693.327099620632	1992.59997558594
694.062038212821	2000.80004882813
694.796885466149	2029.59997558594
695.531641388561	2018.59997558594
696.266305987987	2036.80004882813
697.000879272367	2028.80004882813
697.735361249632	2060
698.469751927722	2066.19995117188
699.204051314568	2084
699.938259418107	2063.60009765625
700.672376246272	2067.39990234375
701.406401806997	2081.80004882813
702.140336108212	2067.39990234375
702.874179157855	2062.60009765625
703.607930963856	2075
704.341591534147	2061.60009765625
705.07516087666	2057
705.808638999324	2056.19995117188
706.542025910073	2074.80004882813
707.275321616841	2066
708.008526127549	2078.80004882813
708.741639450132	2071.39990234375
709.474661592521	2061.39990234375
710.207592562641	2063.80004882813
710.940432368424	2078
711.673181017796	2077.19995117188
712.405838518687	2084.80004882813
713.138404879025	2071.80004882813
713.870880106731	2065.80004882813
714.603264209738	2070.19995117188
715.335557195971	2070.60009765625
716.067759073357	2069.60009765625
716.799869849816	2084.60009765625
717.531889533281	2087.80004882813
718.263818131673	2087.19995117188
718.995655652917	2066
719.727402104934	2048.39990234375
720.45905749565	2053
721.19062183299	2049.19995117188
721.922095124877	2051
722.653477379231	2049.60009765625
723.384768603973	2044.59997558594
724.11596880703	2062
724.847077996319	2052.39990234375
725.578096179762	2075.19995117188
726.309023365281	2075.60009765625
727.039859560792	2097
727.770604774222	2104.19995117188
728.501259013484	2104.19995117188
729.231822286501	2106.19995117188
729.962294601191	2108
730.692675965469	2094
731.42296638726	2074
732.153165874472	2052.80004882813
732.883274435032	2059.19995117188
733.613292076851	2067.39990234375
734.343218807843	2063
735.07305463593	2093.60009765625
735.802799569028	2075.39990234375
736.532453615048	2066.19995117188
737.262016781904	2058.80004882813
737.991489077517	2050.80004882813
738.720870509794	2052
739.450161086654	2066.19995117188
740.179360816009	2059.60009765625
740.908469705772	2081.39990234375
741.637487763854	2104.60009765625
742.366414998168	2110.39990234375
743.095251416623	2106.60009765625
743.823997027137	2096.60009765625
744.552651837618	2112.19995117188
745.281215855978	2097.19995117188
746.009689090124	2092.39990234375
746.738071547964	2101.80004882813
747.466363237419	2095.39990234375
748.194564166384	2079.60009765625
748.92267434278	2086.60009765625
749.650693774504	2084.80004882813
750.378622469476	2085.39990234375
751.106460435596	2101.60009765625
751.834207680771	2097
752.561864212909	2104.19995117188
753.289430039919	2089.60009765625
754.016905169707	2082.39990234375
754.744289610175	2090.60009765625
755.471583369231	2087.19995117188
756.198786454782	2088
756.925898874728	2083
757.652920636979	2092
758.379851749433	2089.60009765625
759.106692219996	2090.39990234375
759.833442056572	2114
760.560101267063	2118
761.28666985937	2134.80004882813
762.0131478414	2142.39990234375
762.739535221046	2141.80004882813
763.465832006219	2158.60009765625
764.192038204812	2145
764.918153824731	2138.60009765625
765.644178873872	2145.39990234375
766.370113360138	2158
767.095957291425	2178.19995117188
767.821710675635	2187
768.547373520665	2200.39990234375
769.272945834415	2257.80004882813
769.998427624781	2282.19995117188
770.723818899658	2282.39990234375
771.449119666949	2286.60009765625
772.174329934546	2287.39990234375
772.899449710347	2293.19995117188
773.624479002248	2284.19995117188
774.349417818145	2297.19995117188
775.074266165934	2315
775.799024053505	2327.39990234375
776.523691488757	2312.39990234375
777.248268479582	2258
777.972755033877	2238
778.69715115953	2214
779.421456864441	2194.60009765625
780.145672156493	2164.19995117188
780.869797043587	2173
781.593831533611	2149.80004882813
782.317775634457	2150.39990234375
783.041629354012	2143.19995117188
783.765392700174	2132.60009765625
784.489065680828	2126.39990234375
785.212648303866	2100.19995117188
785.936140577177	2100.60009765625
786.659542508652	2113.60009765625
787.382854106174	2100.80004882813
788.106075377639	2107.39990234375
788.829206330928	2103.19995117188
789.552246973933	2116.60009765625
790.275197314542	2120
790.998057360638	2134.60009765625
791.720827120108	2108
792.443506600841	2117.60009765625
793.166095810722	2127.80004882813
793.888594757635	2091.60009765625
794.611003449465	2103
795.333321894098	2100
796.055550099417	2108.80004882813
796.777688073308	2143.39990234375
797.499735823654	2153
798.221693358334	2111.19995117188
798.943560685235	2142
799.665337812239	2118.39990234375
800.387024747226	2116.39990234375
801.108621498075	2116.19995117188
801.830128072674	2124
802.551544478902	2127.39990234375
803.272870724636	2107.80004882813
803.994106817761	2125
804.715252766148	2121.19995117188
805.436308577687	2101.19995117188
806.157274260251	2091.80004882813
806.878149821721	2069.60009765625
807.598935269973	2094.19995117188
808.319630612886	2064.60009765625
809.040235858336	2053.39990234375
809.760751014202	2057.19995117188
810.481176088361	2067.19995117188
811.201511088685	2069.60009765625
811.921756023059	2060.19995117188
812.641910899347	2055.60009765625
813.361975725432	2064.80004882813
814.081950509188	2057.80004882813
814.801835258489	2065.39990234375
815.521629981206	2061.60009765625
816.241334685218	2067
816.960949378392	2059
817.680474068606	2060.60009765625
818.399908763731	2063
819.11925347164	2067.60009765625
819.838508200202	2069.39990234375
820.55767295729	2068.39990234375
821.276747750778	2083.19995117188
821.995732588531	2073.39990234375
822.714627478425	2071.80004882813
823.433432428327	2086.19995117188
824.152147446105	2085.39990234375
824.870772539632	2094.39990234375
825.589307716775	2104.19995117188
826.307752985404	2122.19995117188
827.026108353378	2120.19995117188
827.744373828579	2086.19995117188
828.462549418867	2084
829.180635132107	2090.19995117188
829.898630976168	2078
830.616536958915	2082.80004882813
831.334353088218	2104
832.052079371938	2101.80004882813
832.769715817942	2099.39990234375
833.487262434092	2077.60009765625
834.204719228255	2095
834.922086208293	2089.19995117188
835.639363382073	2077.19995117188
836.356550757456	2090.60009765625
837.073648342304	2083.60009765625
837.790656144484	2079.39990234375
838.507574171847	2089
839.22440243227	2078.19995117188
839.941140933601	2063.60009765625
840.657789683706	2067.39990234375
841.374348690448	2074.19995117188
842.090817961686	2095.39990234375
842.807197505276	2093.39990234375
843.523487329083	2107.80004882813
844.23968744096	2097
844.955797848771	2088.19995117188
845.671818560374	2102.80004882813
846.387749583622	2100.39990234375
847.103590926378	2099
847.819342596497	2085.19995117188
848.535004601833	2080.19995117188
849.25057695025	2056.60009765625
849.966059649598	2052.39990234375
850.681452707735	2076.60009765625
851.396756132513	2072.39990234375
852.111969931789	2086.60009765625
852.827094113419	2097.19995117188
853.542128685257	2083
854.257073655158	2088.39990234375
854.971929030969	2094
855.686694820551	2095.39990234375
856.40137103175	2103.19995117188
857.115957672423	2077
857.830454750423	2069.80004882813
858.544862273597	2056.60009765625
859.259180249797	2067.80004882813
859.97340868688	2075.80004882813
860.687547592688	2078.19995117188
861.401596975075	2097.39990234375
862.115556841891	2094.39990234375
862.829427200985	2103.19995117188
863.543208060205	2118
864.256899427402	2126.39990234375
864.970501310423	2112.19995117188
865.684013717114	2090.19995117188
866.397436655325	2082
867.110770132901	2066.60009765625
867.824014157691	2090.60009765625
868.537168737542	2087.60009765625
869.250233880299	2087.80004882813
869.963209593803	2096.80004882813
870.676095885902	2081.60009765625
871.388892764445	2074.80004882813
872.101600237276	2063.39990234375
872.814218312233	2064.60009765625
873.526746997165	2069.19995117188
874.239186299914	2054.60009765625
874.951536228323	2066.60009765625
875.663796790231	2062.19995117188
876.375967993487	2059.80004882813
877.088049845928	2059.60009765625
877.8000423554	2077.39990234375
878.511945529739	2074.60009765625
879.22375937679	2074
879.935483904388	2049.60009765625
880.64711912038	2067.19995117188
881.358665032604	2089.39990234375
882.070121648892	2063.80004882813
882.78148897709	2057.39990234375
883.492767025039	2043.80004882813
884.203955800571	2052
884.915055311525	2052
885.626065565741	2040.59997558594
886.336986571053	2029.40002441406
887.047818335298	2010
887.758560866315	2006.59997558594
888.469214171937	2027.59997558594
889.179778260005	2040.19995117188
889.890253138347	2035.59997558594
890.600638814803	2051.80004882813
891.310935297204	2011.80004882813
892.021142593385	2021.80004882813
892.731260711183	2024.80004882813
893.441289658429	2017.19995117188
894.15122944295	2039.19995117188
894.861080072591	2036.59997558594
895.570841555173	2038.59997558594
896.280513898534	2034.19995117188
896.990097110503	2035
897.699591198913	2046.19995117188
898.408996171595	2069.39990234375
899.118312036375	2072.19995117188
899.827538801089	2076
900.536676473561	2069
901.245725061628	2078.80004882813
901.954684573109	2069
902.663555015838	2085.60009765625
903.372336397644	2099
904.081028726351	2088.60009765625
904.789632009793	2101.80004882813
905.49814625579	2093.60009765625
906.20657147217	2097.19995117188
906.914907666765	2097.60009765625
907.623154847391	2090.39990234375
908.331313021885	2094
909.039382198064	2092
909.747362383754	2096.19995117188
910.455253586782	2112.80004882813
911.163055814972	2106.19995117188
911.870769076143	2096.80004882813
912.578393378126	2094.60009765625
913.285928728738	2094.60009765625
913.993375135802	2070.39990234375
914.700732607145	2061.80004882813
915.408001150579	2062.80004882813
916.115180773937	2085
916.822271485037	2094.80004882813
917.529273291693	2077.60009765625
918.236186201733	2092.80004882813
918.943010222971	2104
919.649745363234	2105
920.356391630333	2094.80004882813
921.062949032096	2059.19995117188
921.769417576333	2062.80004882813
922.475797270864	2057.80004882813
923.182088123512	2043.40002441406
923.888290142089	2060.60009765625
924.594403334414	2065.60009765625
925.300427708304	2086.80004882813
926.006363271572	2076
926.712210032039	2089
927.417967997522	2078.39990234375
928.123637175827	2082.60009765625
928.829217574776	2054
929.534709202184	2081.80004882813
930.240112065859	2068.80004882813
930.945426173621	2060.60009765625
931.650651533283	2030.40002441406
932.355788152653	2030.80004882813
933.060836039547	2040.19995117188
933.765795201776	2039
934.470665647153	2039.80004882813
935.175447383492	2041.59997558594
935.880140418599	2038.59997558594
936.584744760286	2053.19995117188
937.289260416366	2052.80004882813
937.993687394647	2079
938.698025702939	2065.60009765625
939.402275349051	2071.19995117188
940.106436340793	2088.60009765625
940.810508685976	2104.19995117188
941.5144923924	2087.80004882813
942.21838746788	2067.80004882813
942.922193920223	2088.80004882813
943.625911757231	2071.60009765625
944.329540986716	2039.80004882813
945.033081616484	2027.80004882813
945.736533654334	2038.59997558594
946.439897108083	2015.80004882813
947.143171985529	2018.40002441406
947.846358294477	2009.59997558594
948.549456042732	2027.19995117188
949.2524652381	2036.40002441406
949.955385888382	2038
950.658218001384	2047
951.360961584907	2043.40002441406
952.063616646755	2046.59997558594
952.766183194733	2057
953.468661236636	2040.59997558594
954.171050780271	2064.80004882813
954.873351833437	2066.19995117188
955.575564403935	2066.80004882813
956.277688499565	2057
956.97972412813	2040
957.681671297424	2042
958.383530015255	2040.19995117188
959.085300289414	2047
959.786982127703	2051
960.488575537918	2038
961.190080527859	2037.40002441406
961.891497105327	2028.80004882813
962.592825278111	2008.40002441406
963.294065054012	1989.19995117188
963.995216440829	2014.80004882813
964.696279446353	2022.80004882813
965.397254078383	2031.19995117188
966.098140344714	2048.19995117188
966.798938253139	2033.80004882813
967.499647811456	2017.19995117188
968.200269027458	2024.80004882813
968.900801908937	2010
969.601246463685	2002.19995117188
970.3016026995	2004.19995117188
971.001870624169	2004.19995117188
971.702050245491	2000
972.402141571249	2002
973.102144609245	2000.40002441406
973.802059367267	2020.19995117188
974.501885853103	2033.40002441406
975.201624074541	2043.19995117188
975.901274039379	2043.40002441406
976.600835755399	2048.19995117188
977.3003092304	2060.80004882813
977.999694472158	2038
978.698991488473	2044.19995117188
979.39820028713	2016.40002441406
980.097320875915	2018.19995117188
980.796353262618	2049.80004882813
981.495297455024	2041.19995117188
982.194153460919	2051.19995117188
982.892921288093	2048
983.591600944331	2051.19995117188
984.290192437419	2055.60009765625
984.98869577514	2050.19995117188
985.687110965282	2016.80004882813
986.385438015629	2015.19995117188
987.083676933961	2012
987.781827728069	2011.40002441406
988.479890405732	1996.19995117188
989.177864974732	2006.59997558594
989.875751442857	2015
990.573549817888	2030
991.271260107602	2047.59997558594
991.968882319786	2060.39990234375
992.666416462217	2050.19995117188
993.363862542681	2058.60009765625
994.061220568959	2040.19995117188
994.758490548823	2035.19995117188
995.455672490061	2044.40002441406
996.152766400451	2025.59997558594
996.849772287773	2027.40002441406
997.5466901598	2034.80004882813
998.243520024317	2017.19995117188
998.940261889097	2029.59997558594
999.636915761923	2024.40002441406
1000.33348165057	1998.40002441406
1001.02995956281	2005.59997558594
1001.72634950643	2003
1002.42265148919	2020
1003.11886551889	2019
1003.81499160328	2026.19995117188
1004.51102975015	2039
1005.20697996727	2041.19995117188
1005.90284226242	2049.19995117188
1006.59861664337	2051.19995117188
1007.2943031179	2070.80004882813
1007.98990169377	2051
1008.68541237876	2056
1009.38083518064	2040.59997558594
1010.07617010719	2054.19995117188
1010.77141716617	2053.60009765625
1011.46657636536	2051
1012.16164771253	2038.59997558594
1012.85663121546	2033.59997558594
1013.5515268819	2010.19995117188
1014.24633471963	2009
1014.94105473642	2002.19995117188
1015.63568694004	2009.59997558594
1016.33023133826	1989.80004882813
1017.02468793885	2019.40002441406
1017.71905674957	2019.40002441406
1018.41333777819	2014.80004882813
1019.10753103249	2015
1019.80163652022	2032.80004882813
1020.49565424916	2012.19995117188
1021.18958422707	2024.40002441406
1021.88342646171	2016.80004882813
1022.57718096085	2022
1023.27084773227	2018.19995117188
1023.96442678371	2029
1024.65791812296	2026
1025.35132175776	2009
1026.04463769589	2010
1026.73786594511	1977.80004882813
1027.43100651318	1979.59997558594
1028.12405940786	1979
1028.81702463692	1980
1029.50990220812	1975.59997558594
1030.20269212921	1994.80004882813
1030.89539440798	1998.80004882813
1031.58800905216	1996
1032.28053606952	1988.19995117188
1032.97297546784	1982.80004882813
1033.66532725485	1980
1034.35759143832	1983.80004882813
1035.04976802602	2001.19995117188
1035.7418570257	2008.19995117188
1036.43385844511	1979
1037.12577229202	1985
1037.81759857419	1979.80004882813
1038.50933729937	1994
1039.20098847531	1987.40002441406
1039.89255210978	2012
1040.58402821053	2007.40002441406
1041.27541678532	1996.40002441406
1041.96671784191	1989.40002441406
1042.65793138804	2003.80004882813
1043.34905743147	1995.59997558594
1044.04009597996	2000.19995117188
1044.73104704125	1996.40002441406
1045.42191062312	2020.59997558594
1046.1126867333	2000.80004882813
1046.80337537955	2001.59997558594
1047.49397656962	1998.40002441406
1048.18449031127	1994.80004882813
1048.87491661225	2000.19995117188
1049.5652554803	1970.19995117188
1050.25550692319	1968.59997558594
1050.94567094865	1952.40002441406
1051.63574756444	1947.40002441406
1052.32573677832	1980.40002441406
1053.01563859803	1962.19995117188
1053.70545303131	1962.80004882813
1054.39518008592	1972.40002441406
1055.08481976961	1962.80004882813
1055.77437209013	1986.40002441406
1056.46383705522	1988.40002441406
1057.15321467262	1986.80004882813
1057.8425049501	1998.19995117188
1058.53170789539	1984
1059.22082351624	1958.40002441406
1059.9098518204	1961.19995117188
1060.59879281561	1944.59997558594
1061.28764650962	1949
1061.97641291016	1967.19995117188
1062.665092025	1962.40002441406
1063.35368386187	1986
1064.04218842851	1969.40002441406
1064.73060573268	1963.80004882813
1065.4189357821	1946
1066.10717858452	1929.80004882813
1066.7953341477	1932.80004882813
1067.48340247936	1933.59997558594
1068.17138358725	1932
1068.85927747912	1926.59997558594
1069.5470841627	1955
1070.23480364573	1971.40002441406
1070.92243593595	1966
1071.60998104111	1978.80004882813
1072.29743896894	1957.80004882813
1072.98480972718	1959.59997558594
1073.67209332357	1966.40002441406
1074.35928976585	1952.59997558594
1075.04639906176	1963.40002441406
1075.73342121903	1986
1076.42035624541	1986.40002441406
1077.10720414862	1985.80004882813
1077.79396493641	1992
1078.48063861651	2005.80004882813
1079.16722519666	1992.40002441406
1079.85372468459	1970.19995117188
1080.54013708804	1970.80004882813
1081.22646241474	1957
1081.91270067243	1956.19995117188
1082.59885186884	1942.80004882813
1083.28491601171	1980.59997558594
1083.97089310877	1990.19995117188
1084.65678316774	1997.40002441406
1085.34258619637	1994.19995117188
1086.02830220239	2005.40002441406
1086.71393119352	2001.19995117188
1087.39947317751	1991.59997558594
1088.08492816207	1996.59997558594
1088.77029615495	1993
1089.45557716387	1997.59997558594
1090.14077119656	1987.40002441406
1090.82587826075	1980.59997558594
1091.51089836417	1974.19995117188
1092.19583151456	1977.19995117188
1092.88067771963	1978.40002441406
1093.56543698712	1966.80004882813
1094.25010932475	1951.19995117188
1094.93469474026	1946.40002441406
1095.61919324137	1944.59997558594
1096.3036048358	1964.19995117188
1096.98792953129	1952.80004882813
1097.67216733555	1988.19995117188
1098.35631825632	1987.80004882813
1099.04038230132	1981.19995117188
1099.72435947828	1962.80004882813
1100.40824979492	1976.80004882813
1101.09205325895	1948.59997558594
1101.77576987812	1966.19995117188
1102.45939966014	1938.80004882813
1103.14294261273	1935.59997558594
1103.82639874362	1919.40002441406
1104.50976806054	1908
1105.19305057119	1919
1105.87624628331	1939.59997558594
1106.55935520461	1946
1107.24237734283	1957.19995117188
1107.92531270566	1946.19995117188
1108.60816130085	1939.19995117188
1109.2909231361	1964.40002441406
1109.97359821914	1956.19995117188
1110.65618655768	1971.19995117188
1111.33868815946	1985.40002441406
1112.02110303217	1974.80004882813
1112.70343118355	1982
1113.3856726213	1983.59997558594
1114.06782735316	1990.40002441406
1114.74989538683	1977.40002441406
1115.43187673002	1975.40002441406
1116.11377139047	1961.59997558594
1116.79557937588	1968.80004882813
1117.47730069397	1946.19995117188
1118.15893535245	1951
1118.84048335904	1969.59997558594
1119.52194472146	1985
1120.20331944741	1988
1120.88460754462	1975.19995117188
1121.56580902079	1973.19995117188
1122.24692388364	1972.80004882813
1122.92795214088	1964.40002441406
1123.60889380022	1977.40002441406
1124.28974886938	1994.80004882813
1124.97051735606	1998.19995117188
1125.65119926799	2007.40002441406
1126.33179461286	2009.80004882813
1127.0123033984	2017.40002441406
1127.6927256323	2020
1128.37306132229	2018.19995117188
1129.05331047606	1999.40002441406
1129.73347310134	2004.59997558594
1130.41354920582	1998.40002441406
1131.09353879722	1999.80004882813
1131.77344188324	1981.40002441406
1132.45325847159	2013.59997558594
1133.13298856999	1995.19995117188
1133.81263218612	2009.59997558594
1134.49218932772	1995.80004882813
1135.17166000247	1972.40002441406
1135.85104421809	1980.59997558594
1136.53034198227	1958.80004882813
1137.20955330274	1952.59997558594
1137.88867818718	1927.40002441406
1138.56771664331	1929.40002441406
1139.24666867883	1929.80004882813
1139.92553430144	1942.59997558594
1140.60431351885	1974.59997558594
1141.28300633876	1970.80004882813
1141.96161276887	1972
1142.64013281689	1982.80004882813
1143.31856649051	1987
1143.99691379744	1973
1144.67517474538	1962
1145.35334934203	1966.80004882813
1146.03143759509	1964.80004882813
1146.70943951226	1966
1147.38735510125	1929.19995117188
1148.06518436974	1930.80004882813
1148.74292732545	1923.80004882813
1149.42058397606	1930
1150.09815432928	1927.19995117188
1150.7756383928	1929.19995117188
1151.45303617432	1944.80004882813
1152.13034768155	1946.59997558594
1152.80757292217	1953.59997558594
1153.48471190389	1976.59997558594
1154.16176463439	1982.40002441406
1154.83873112138	1966.80004882813
1155.51561137255	1977.19995117188
1156.1924053956	1971.80004882813
1156.86911319822	1969.59997558594
1157.5457347881	1985.80004882813
1158.22227017294	1978
1158.89871936044	1990.59997558594
1159.57508235828	1962.80004882813
1160.25135917416	1959
1160.92754981578	1966.40002441406
1161.60365429081	1964.40002441406
1162.27967260697	1947.80004882813
1162.95560477193	1942.19995117188
1163.63145079339	1956
1164.30721067904	1942
1164.98288443657	1935.80004882813
1165.65847207367	1921.80004882813
1166.33397359803	1940.19995117188
1167.00938901735	1948
1167.6847183393	1957.40002441406
1168.35996157157	1949.59997558594
1169.03511872187	1951
1169.71018979787	1978.19995117188
1170.38517480726	1960
1171.06007375773	1970.59997558594
1171.73488665696	1945.80004882813
1172.40961351265	1956
1173.08425433247	1953
1173.75880912412	1946.40002441406
1174.43327789528	1968.40002441406
1175.10766065364	1976.40002441406
1175.78195740687	1992.19995117188
1176.45616816267	2006.19995117188
1177.13029292871	2019.80004882813
1177.80433171269	2021.19995117188
1178.47828452229	2011.80004882813
1179.15215136518	2014.19995117188
1179.82593224905	1998.40002441406
1180.49962718159	1996.40002441406
1181.17323617047	2001.40002441406
1181.84675922337	2003.40002441406
1182.52019634799	2018.40002441406
1183.193547552	2003.19995117188
1183.86681284307	2010
1184.53999222889	2001.59997558594
1185.21308571714	2009.19995117188
1185.8860933155	1999.80004882813
1186.55901503165	2003.19995117188
1187.23185087326	2002.59997558594
1187.90460084802	2012
1188.5772649636	2012.80004882813
1189.24984322768	2015
1189.92233564794	2015.80004882813
1190.59474223206	2020.59997558594
1191.2670629877	2015.19995117188
1191.93929792255	2028
1192.61144704428	2015.40002441406
1193.28351036058	1992.80004882813
1193.9554878791	1989
1194.62737960754	1987.80004882813
1195.29918555356	1989.80004882813
1195.97090572483	1998
1196.64254012903	2002.19995117188
1197.31408877384	2001.19995117188
1197.98555166693	2000.80004882813
1198.65692881596	1989.80004882813
1199.32822022862	1985.40002441406
1199.99942591256	1975.80004882813
1200.67054587548	1983.80004882813
1201.34158012503	1970.40002441406
1202.01252866889	1944
1202.68339151473	1959.19995117188
1203.35416867021	1936
1204.02486014301	1931
1204.6954659408	1934.40002441406
1205.36598607124	1929.59997558594
1206.03642054201	1969
1206.70676936078	1968
1207.3770325352	1990.40002441406
1208.04721007295	1979
1208.7173019817	1959.40002441406
1209.38730826911	1970
1210.05722894285	1952.59997558594
1210.72706401059	1950.40002441406
1211.39681347999	1943.80004882813
1212.06647735872	1933.59997558594
1212.73605565444	1921.59997558594
1213.40554837481	1923.59997558594
1214.07495552751	1917.59997558594
1214.74427712019	1911.19995117188
1215.41351316052	1903
1216.08266365617	1905.59997558594
1216.75172861479	1920
1217.42070804405	1923
1218.0896019516	1917.40002441406
1218.75841034513	1919.40002441406
1219.42713323227	1928
1220.0957706207	1942
1220.76432251808	1943.19995117188
1221.43278893207	1951.80004882813
1222.10116987032	1962.59997558594
1222.7694653405	1957.19995117188
1223.43767535026	1944
1224.10579990727	1949.59997558594
1224.77383901918	1944.40002441406
1225.44179269366	1938.59997558594
1226.10966093835	1923.59997558594
1226.77744376093	1930.19995117188
1227.44514116904	1922.59997558594
1228.11275317034	1924.19995117188
1228.78027977249	1922.19995117188
1229.44772098315	1911.40002441406
1230.11507680996	1898.59997558594
1230.7823472606	1895.40002441406
1231.44953234271	1910.80004882813
1232.11663206394	1902.40002441406
1232.78364643195	1906.19995117188
1233.4505754544	1899.80004882813
1234.11741913894	1897
1234.78417749322	1891.80004882813
1235.45085052489	1903.19995117188
1236.11743824162	1888.19995117188
1236.78394065104	1879.59997558594
1237.45035776082	1874.19995117188
1238.1166895786	1888.80004882813
1238.78293611204	1910.19995117188
1239.44909736878	1917.19995117188
1240.11517335648	1914.59997558594
1240.78116408279	1917.19995117188
1241.44706955535	1909.80004882813
1242.11288978182	1891.19995117188
1242.77862476985	1887.80004882813
1243.44427452708	1880.80004882813
1244.10983906116	1861.80004882813
1244.77531837974	1884
1245.44071249047	1908.80004882813
1246.106021401	1901
1246.77124511898	1906.19995117188
1247.43638365204	1905.59997558594
1248.10143700783	1885.59997558594
1248.76640519401	1892.80004882813
1249.43128821822	1887.80004882813
1250.0960860881	1876
1250.76079881129	1883
1251.42542639545	1880.80004882813
1252.08996884822	1868
1252.75442617723	1876.19995117188
1253.41879839014	1881.40002441406
1254.08308549458	1896
1254.74728749821	1889.59997558594
1255.41140440866	1907
1256.07543623357	1917.40002441406
1256.73938298059	1899.40002441406
1257.40324465735	1881.40002441406
1258.0670212715	1873.59997558594
1258.73071283068	1873.80004882813
1259.39431934253	1885.40002441406
1260.05784081468	1876.59997558594
1260.72127725479	1875.40002441406
1261.38462867049	1882.40002441406
1262.0478950694	1874.40002441406
1262.71107645919	1880
1263.37417284748	1857.80004882813
1264.03718424191	1875.59997558594
1264.70011065011	1887.40002441406
1265.36295207974	1887.59997558594
1266.02570853841	1890.59997558594
1266.68838003378	1879.80004882813
1267.35096657346	1865.40002441406
1268.01346816511	1884.80004882813
1268.67588481636	1872.40002441406
1269.33821653483	1864.40002441406
1270.00046332817	1863.19995117188
1270.66262520401	1885.59997558594
1271.32470216998	1888
1271.98669423372	1861.19995117188
1272.64860140285	1860.40002441406
1273.31042368503	1835
1273.97216108786	1860.19995117188
1274.633813619	1860.80004882813
1275.29538128606	1861.80004882813
1275.95686409669	1879
1276.6182620585	1864.19995117188
1277.27957517914	1871.59997558594
1277.94080346624	1859.19995117188
1278.60194692741	1861.59997558594
1279.2630055703	1862.59997558594
1279.92397940253	1886.19995117188
1280.58486843173	1875
1281.24567266552	1862.40002441406
1281.90639211155	1846.59997558594
1282.56702677743	1847.80004882813
1283.2275766708	1847
1283.88804179927	1852
1284.54842217049	1860
1285.20871779206	1868.80004882813
1285.86892867163	1858.40002441406
1286.52905481681	1879.59997558594
1287.18909623523	1865.40002441406
1287.84905293452	1862.59997558594
1288.5089249223	1873.80004882813
1289.16871220619	1879.59997558594
1289.82841479383	1917.19995117188
1290.48803269282	1895
1291.1475659108	1906.40002441406
1291.80701445539	1895.19995117188
1292.46637833421	1890.80004882813
1293.12565755489	1885.80004882813
1293.78485212504	1886.19995117188
1294.44396205229	1859.80004882813
1295.10298734425	1870.19995117188
1295.76192800856	1865
1296.42078405283	1881.19995117188
1297.07955548467	1892.59997558594
1297.73824231171	1876.40002441406
1298.39684454158	1889.59997558594
1299.05536218188	1892
1299.71379524023	1921.40002441406
1300.37214372427	1924.19995117188
1301.03040764159	1915.59997558594
1301.68858699983	1909.40002441406
1302.34668180659	1901.19995117188
1303.0046920695	1922.40002441406
1303.66261779617	1919.80004882813
1304.32045899422	1922
1304.97821567126	1917
1305.63588783492	1919.80004882813
1306.29347549279	1935.59997558594
1306.95097865251	1922.19995117188
1307.60839732168	1924.40002441406
1308.26573150791	1930
1308.92298121883	1940.40002441406
1309.58014646204	1921.40002441406
1310.23722724517	1936.80004882813
1310.89422357581	1935
1311.55113546158	1923.59997558594
1312.2079629101	1932.40002441406
1312.86470592898	1920.19995117188
1313.52136452582	1938.59997558594
1314.17793870824	1951.80004882813
1314.83442848386	1947.40002441406
1315.49083386027	1936
1316.14715484509	1950.59997558594
1316.80339144594	1943.40002441406
1317.45954367041	1945.40002441406
1318.11561152611	1953.19995117188
1318.77159502067	1947
1319.42749416168	1941.40002441406
1320.08330895674	1960.59997558594
1320.73903941348	1934.80004882813
1321.3946855395	1930
1322.0502473424	1938
1322.70572482978	1922
1323.36111800926	1917.59997558594
1324.01642688845	1913.40002441406
1324.67165147494	1932.80004882813
1325.32679177634	1937.40002441406
1325.98184780025	1926.19995117188
1326.63681955429	1913.40002441406
1327.29170704605	1895.40002441406
1327.94651028314	1890
1328.60122927316	1871.80004882813
1329.25586402371	1882
1329.9104145424	1875.19995117188
1330.56488083683	1886.80004882813
1331.2192629146	1872.19995117188
1331.87356078331	1890
1332.52777445056	1890.80004882813
1333.18190392395	1884.19995117188
1333.83594921109	1890.59997558594
1334.48991031958	1886.19995117188
1335.143787257	1868.59997558594
1335.79758003097	1865.19995117188
1336.45128864908	1889.40002441406
1337.10491311893	1876.59997558594
1337.75845344813	1880
1338.41190964425	1898.59997558594
1339.06528171491	1888
1339.71856966771	1907.19995117188
1340.37177351023	1876
1341.02489325007	1878
1341.67792889484	1853.40002441406
1342.33088045212	1847
1342.98374792952	1861
1343.63653133462	1843.19995117188
1344.28923067503	1856.40002441406
1344.94184595833	1865.80004882813
1345.59437719212	1881.19995117188
1346.246824384	1887.59997558594
1346.89918754155	1884
1347.55146667238	1894
1348.20366178407	1909.40002441406
1348.85577288421	1908.40002441406
1349.50779998041	1912.40002441406
1350.15974308024	1894.59997558594
1350.8116021913	1896.59997558594
1351.46337732119	1897
1352.11506847748	1922
1352.76667566778	1913.40002441406
1353.41819889967	1901.59997558594
1354.06963818074	1896.59997558594
1354.72099351858	1900.19995117188
1355.37226492079	1906.80004882813
1356.02345239494	1900.80004882813
1356.67455594862	1934.40002441406
1357.32557558943	1942.19995117188
1357.97651132496	1972.40002441406
1358.62736316277	1973
1359.27813111048	1996.59997558594
1359.92881517565	2002.19995117188
1360.57941536589	2018.59997558594
1361.22993168876	2030
1361.88036415186	2050.39990234375
1362.53071276278	2047.19995117188
1363.1809775291	2050.39990234375
1363.8311584584	2047.59997558594
1364.48125555826	2040.40002441406
1365.13126883627	2009.19995117188
1365.78119830001	1989.40002441406
1366.43104395707	1953.19995117188
1367.08080581503	1945.19995117188
1367.73048388147	1915.19995117188
1368.38007816397	1921.40002441406
1369.02958867011	1928.40002441406
1369.67901540748	1922.80004882813
1370.32835838365	1917.80004882813
1370.9776176062	1902
1371.62679308273	1907.40002441406
1372.27588482079	1912.80004882813
1372.92489282798	1920.80004882813
1373.57381711188	1927.59997558594
1374.22265768006	1902.80004882813
1374.87141454009	1902.80004882813
1375.52008769957	1872.40002441406
1376.16867716606	1870.19995117188
1376.81718294715	1866
1377.4656050504	1860
1378.1139434834	1845.59997558594
1378.76219825373	1836.59997558594
1379.41036936895	1845.19995117188
1380.05845683664	1840
1380.70646066439	1858.19995117188
1381.35438085976	1853.19995117188
1382.00221743032	1835.19995117188
1382.64997038366	1865.40002441406
1383.29763972735	1861.59997558594
1383.94522546895	1866.80004882813
1384.59272761605	1871.19995117188
1385.24014617621	1861.19995117188
1385.88748115701	1856.40002441406
1386.53473256602	1841.80004882813
1387.18190041081	1841.19995117188
1387.82898469895	1833
1388.47598543802	1837.40002441406
1389.12290263558	1833.80004882813
1389.7697362992	1810.59997558594
1390.41648643646	1813.59997558594
1391.06315305492	1793.19995117188
1391.70973616215	1790.80004882813
1392.35623576573	1771.19995117188
1393.00265187321	1784
1393.64898449217	1795.80004882813
1394.29523363018	1803.80004882813
1394.94139929481	1808.59997558594
1395.58748149361	1802.40002441406
1396.23348023415	1792.80004882813
1396.87939552402	1788.80004882813
1397.52522737076	1793
1398.17097578195	1758.80004882813
1398.81664076514	1731
1399.46222232792	1735
1400.10772047783	1729.59997558594
1400.75313522245	1725
1401.39846656934	1739
1402.04371452605	1739.59997558594
1402.68887910016	1741.59997558594
1403.33396029924	1743.59997558594
1403.97895813083	1724.59997558594
1404.6238726025	1736.80004882813
1405.26870372182	1745.59997558594
1405.91345149634	1752
1406.55811593363	1748
1407.20269704125	1754.40002441406
1407.84719482676	1767.40002441406
1408.49160929772	1759
1409.13594046168	1775.40002441406
1409.78018832622	1770.40002441406
1410.42435289887	1785.80004882813
1411.06843418722	1786.19995117188
1411.7124321988	1780
1412.3563469412	1791.19995117188
1413.00017842194	1803.80004882813
1413.64392664861	1799.59997558594
1414.28759162875	1809.40002441406
1414.93117336992	1808.40002441406
1415.57467187967	1795
1416.21808716557	1780.80004882813
1416.86141923516	1794
1417.50466809601	1799.80004882813
1418.14783375567	1785
1418.79091622169	1784.40002441406
1419.43391550162	1781.80004882813
1420.07683160303	1792.40002441406
1420.71966453346	1800.40002441406
1421.36241430046	1808.40002441406
1422.0050809116	1789.59997558594
1422.64766437442	1796
1423.29016469647	1811.80004882813
1423.93258188531	1805
1424.57491594848	1797
1425.21716689354	1793
1425.85933472805	1787.40002441406
1426.50141945954	1803.59997558594
1427.14342109557	1799.80004882813
1427.78533964369	1785.19995117188
1428.42717511144	1803
1429.06892750639	1786.40002441406
1429.71059683607	1760.80004882813
1430.35218310803	1777
1430.99368632983	1775.59997558594
1431.635106509	1789.80004882813
1432.2764436531	1794.19995117188
1432.91769776967	1803.19995117188
1433.55886886627	1791.80004882813
1434.19995695043	1791.40002441406
1434.84096202969	1808.40002441406
1435.48188411162	1819.59997558594
1436.12272320375	1796.59997558594
1436.76347931363	1811.59997558594
1437.40415244879	1793
1438.0447426168	1788.19995117188
1438.68524982518	1789.40002441406
1439.32567408148	1788.80004882813
1439.96601539325	1812.19995117188
1440.60627376803	1768
1441.24644921336	1776.59997558594
1441.88654173678	1774.59997558594
1442.52655134583	1782.19995117188
1443.16647804806	1767
1443.806321851	1761.80004882813
1444.4460827622	1769.59997558594
1445.0857607892	1756.19995117188
1445.72535593953	1775.80004882813
1446.36486822074	1762
1447.00429764037	1757.19995117188
1447.64364420595	1754.40002441406
1448.28290792502	1748.40002441406
1448.92208880512	1738.40002441406
1449.56118685379	1753.80004882813
1450.20020207857	1763.59997558594
1450.83913448699	1749.19995117188
1451.47798408659	1748.19995117188
1452.1167508849	1751.19995117188
1452.75543488947	1757.59997558594
1453.39403610782	1739
1454.0325545475	1745
1454.67099021603	1743.19995117188
1455.30934312097	1771.59997558594
1455.94761326982	1769
1456.58580067014	1770.59997558594
1457.22390532945	1788.19995117188
1457.86192725529	1767.40002441406
1458.49986645519	1780.40002441406
1459.13772293668	1760
1459.7754967073	1754.80004882813
1460.41318777457	1749.80004882813
1461.05079614604	1739.59997558594
1461.68832182922	1731.59997558594
1462.32576483166	1721.80004882813
1462.96312516087	1737.19995117188
1463.6004028244	1746.19995117188
1464.23759782977	1748.59997558594
1464.8747101845	1770.40002441406
1465.51173989614	1792.80004882813
1466.14868697221	1782.80004882813
1466.78555142024	1792.59997558594
1467.42233324774	1786.40002441406
1468.05903246227	1760
1468.69564907133	1769.19995117188
1469.33218308246	1754.80004882813
1469.96863450317	1747.80004882813
1470.60500334102	1743.40002441406
1471.2412896035	1755.59997558594
1471.87749329816	1774.40002441406
1472.51361443251	1782.80004882813
1473.14965301409	1783.40002441406
1473.78560905041	1779
1474.421482549	1774.59997558594
1475.05727351739	1783.19995117188
1475.69298196309	1773.19995117188
1476.32860789364	1770.40002441406
1476.96415131654	1756.40002441406
1477.59961223934	1753.40002441406
1478.23499066954	1752.59997558594
1478.87028661467	1745
1479.50550008226	1761.19995117188
1480.14063107981	1758
1480.77567961486	1772.80004882813
1481.41064569492	1748.59997558594
1482.04552932752	1759.19995117188
1482.68033052017	1748
1483.31504928039	1763.59997558594
1483.9496856157	1771.80004882813
1484.58423953363	1771
1485.21871104168	1774.19995117188
1485.85310014738	1770.40002441406
1486.48740685824	1762
1487.12163118178	1782.80004882813
1487.75577312553	1759.19995117188
1488.38983269698	1769.19995117188
1489.02380990367	1759.19995117188
1489.65770475311	1775.59997558594
1490.29151725281	1773.19995117188
1490.92524741029	1798.40002441406
1491.55889523306	1781
1492.19246072863	1768.80004882813
1492.82594390453	1786
1493.45934476826	1792.59997558594
1494.09266332734	1781
1494.72589958928	1784.40002441406
1495.3590535616	1780.19995117188
1495.99212525181	1798.59997558594
1496.62511466741	1796.80004882813
1497.25802181592	1790
1497.89084670485	1773.59997558594
1498.52358934172	1792
1499.15624973403	1788.40002441406
1499.7888278893	1776.80004882813
1500.42132381503	1792.19995117188
1501.05373751873	1809.59997558594
1501.68606900792	1804.80004882813
1502.31831829009	1831
1502.95048537277	1845
1503.58257026346	1865.19995117188
1504.21457296966	1879.19995117188
1504.84649349889	1910.19995117188
1505.47833185864	1910
1506.11008805644	1928.59997558594
1506.74176209978	1911.59997558594
1507.37335399617	1899.40002441406
1508.00486375312	1890.59997558594
1508.63629137813	1871.19995117188
1509.2676368787	1855.59997558594
1509.89890026235	1869.80004882813
1510.53008153658	1863.80004882813
1511.16118070889	1859.40002441406
1511.79219778677	1867.80004882813
1512.42313277775	1855.19995117188
1513.05398568932	1849
1513.68475652898	1846.19995117188
1514.31544530424	1844.59997558594
1514.9460520226	1829.59997558594
1515.57657669155	1823.19995117188
1516.20701931861	1800.40002441406
1516.83737991127	1806
1517.46765847702	1787.80004882813
1518.09785502339	1783.59997558594
1518.72796955785	1794.40002441406
1519.35800208792	1777.59997558594
1519.98795262109	1784.19995117188
1520.61782116486	1790.40002441406
1521.24760772673	1779.59997558594
1521.87731231419	1775
1522.50693493475	1762
1523.1364755959	1759.59997558594
1523.76593430514	1756.40002441406
1524.39531106997	1770.59997558594
1525.02460589788	1766.40002441406
1525.65381879637	1762.19995117188
1526.28294977293	1758.19995117188
1526.91199883507	1746
1527.54096599027	1727
1528.16985124603	1717.19995117188
1528.79865460984	1724
1529.4273760892	1724.80004882813
1530.05601569161	1727.19995117188
1530.68457342455	1742.40002441406
1531.31304929552	1741.19995117188
1531.94144331201	1748.19995117188
1532.56975548151	1738.40002441406
1533.19798581152	1740.80004882813
1533.82613430953	1753
1534.45420098302	1756.19995117188
1535.08218583949	1771.59997558594
1535.71008888643	1755.80004882813
1536.33791013134	1736.19995117188
1536.96564958169	1760.80004882813
1537.59330724498	1757
1538.22088312871	1767.59997558594
1538.84837724034	1749.59997558594
1539.47578958739	1750.59997558594
1540.10312017733	1738.19995117188
1540.73036901765	1746.80004882813
1541.35753611584	1732.80004882813
1541.98462147939	1722.40002441406
1542.61162511578	1722.59997558594
1543.2385470325	1732.80004882813
1543.86538723704	1726
1544.49214573688	1730.40002441406
1545.11882253951	1725.40002441406
1545.74541765241	1741
1546.37193108306	1747.80004882813
1546.99836283896	1731
1547.62471292758	1746.59997558594
1548.25098135641	1711.80004882813
1548.87716813294	1706
1549.50327326464	1706
1550.12929675899	1704.80004882813
1550.75523862349	1702.19995117188
1551.38109886561	1719.80004882813
1552.00687749284	1734.40002441406
1552.63257451264	1734
1553.25818993252	1741.80004882813
1553.88372375994	1749
1554.50917600239	1717.80004882813
1555.13454666734	1711.80004882813
1555.75983576228	1700
1556.38504329469	1685.19995117188
1557.01016927204	1698.59997558594
1557.63521370181	1692.40002441406
1558.26017659149	1693.40002441406
1558.88505794854	1703.80004882813
1559.50985778045	1718.80004882813
1560.13457609469	1725.19995117188
1560.75921289874	1713
1561.38376820008	1706.40002441406
1562.00824200618	1722.80004882813
1562.63263432452	1712.59997558594
1563.25694516257	1710.40002441406
1563.88117452781	1691.59997558594
1564.50532242772	1695.80004882813
1565.12938886976	1691.80004882813
1565.75337386141	1683.40002441406
1566.37727741015	1686.59997558594
1567.00109952345	1679.40002441406
1567.62484020878	1687
1568.24849947361	1682
1568.87207732542	1703.40002441406
1569.49557377168	1691.40002441406
1570.11898881986	1717.40002441406
1570.74232247743	1707.40002441406
1571.36557475186	1723.59997558594
1571.98874565062	1733
1572.61183518119	1755
1573.23484335103	1755.19995117188
1573.85777016761	1758
1574.4806156384	1782.80004882813
1575.10337977088	1774.80004882813
1575.7260625725	1792.40002441406
1576.34866405074	1761.19995117188
1576.97118421306	1771.40002441406
1577.59362306694	1775.59997558594
1578.21598061984	1752
1578.83825687922	1758.80004882813
1579.46045185255	1751
1580.08256554731	1747.80004882813
1580.70459797094	1722
1581.32654913093	1720
1581.94841903473	1714.80004882813
1582.57020768981	1698
1583.19191510364	1694.19995117188
1583.81354128367	1685
1584.43508623737	1667.19995117188
1585.05654997221	1674.40002441406
1585.67793249564	1683
1586.29923381514	1657.40002441406
1586.92045393815	1662
1587.54159287216	1658.59997558594
1588.1626506246	1665
1588.78362720296	1640.59997558594
1589.40452261468	1665
1590.02533686724	1655.40002441406
1590.64606996808	1647.40002441406
1591.26672192467	1656.80004882813
1591.88729274447	1656.80004882813
1592.50778243493	1659
1593.12819100352	1648.59997558594
1593.7485184577	1654
1594.36876480492	1641.80004882813
1594.98893005264	1640
1595.60901420832	1648.59997558594
1596.22901727941	1638.80004882813
1596.84893927338	1634.19995117188
1597.46878019767	1636.19995117188
1598.08854005975	1643.40002441406
1598.70821886707	1666
1599.32781662708	1673.59997558594
1599.94733334725	1676
1600.56676903502	1670.80004882813
1601.18612369785	1661.40002441406
1601.8053973432	1677
1602.42458997851	1648.19995117188
1603.04370161124	1649
1603.66273224884	1630.19995117188
1604.28168189878	1625.59997558594
1604.90055056849	1624.80004882813
1605.51933826543	1614.80004882813
1606.13804499705	1628.40002441406
1606.75667077081	1613.19995117188
1607.37521559415	1610.19995117188
1607.99367947452	1610.59997558594
1608.61206241938	1642
1609.23036443618	1624.59997558594
1609.84858553236	1623.59997558594
1610.46672571537	1622
1611.08478499267	1632.40002441406
1611.7027633717	1611.19995117188
1612.3206608599	1640.80004882813
1612.93847746473	1623.80004882813
1613.55621319364	1620.59997558594
1614.17386805407	1610.80004882813
1614.79144205347	1609.59997558594
1615.40893519928	1607.80004882813
1616.02634749895	1609.40002441406
1616.64367895993	1606.80004882813
1617.26092958966	1592.59997558594
1617.87809939559	1600.80004882813
1618.49518838516	1591.19995117188
1619.11219656582	1590.19995117188
1619.729123945	1568.19995117188
1620.34597053016	1589.80004882813
1620.96273632874	1575.59997558594
1621.57942134818	1580.80004882813
1622.19602559592	1581.19995117188
1622.8125490794	1571.19995117188
1623.42899180607	1574
1624.04535378337	1567
1624.66163501874	1577.19995117188
1625.27783551963	1582
1625.89395529346	1574.40002441406
1626.50999434768	1560
1627.12595268974	1563.59997558594
1627.74183032707	1570.59997558594
1628.3576272671	1566.19995117188
1628.97334351729	1568.80004882813
1629.58897908506	1558.40002441406
1630.20453397786	1570.40002441406
1630.82000820313	1563.59997558594
1631.43540176829	1573.19995117188
1632.05071468079	1588.80004882813
1632.66594694807	1578.19995117188
1633.28109857756	1601.59997558594
1633.8961695767	1593.19995117188
1634.51115995292	1600.19995117188
1635.12606971366	1591
1635.74089886636	1591.80004882813
1636.35564741844	1586.19995117188
1636.97031537734	1610.19995117188
1637.58490275051	1581.80004882813
1638.19940954536	1598
1638.81383576934	1590
1639.42818142987	1583.59997558594
1640.0424465344	1611
1640.65663109034	1610.19995117188
1641.27073510515	1632.40002441406
1641.88475858623	1644
1642.49870154104	1628.80004882813
1643.11256397699	1628.80004882813
1643.72634590152	1617.80004882813
1644.34004732206	1622.40002441406
1644.95366824604	1642.19995117188
1645.56720868089	1634.40002441406
1646.18066863404	1645.80004882813
1646.79404811291	1638.19995117188
1647.40734712494	1652.40002441406
1648.02056567755	1651.19995117188
1648.63370377817	1666
1649.24676143423	1650.80004882813
1649.85973865316	1645
1650.47263544238	1654
1651.08545180932	1656.80004882813
1651.6981877614	1645.59997558594
1652.31084330606	1647.40002441406
1652.92341845071	1633
1653.53591320278	1640.59997558594
1654.1483275697	1620.40002441406
1654.7606615589	1611.19995117188
1655.37291517778	1604.19995117188
1655.98508843379	1595.80004882813
1656.59718133434	1586.40002441406
1657.20919388685	1587.59997558594
1657.82112609875	1580.40002441406
1658.43297797747	1577.59997558594
1659.04474953041	1561.59997558594
1659.65644076501	1547.40002441406
1660.26805168869	1564.19995117188
1660.87958230886	1533.59997558594
1661.49103263294	1539.59997558594
1662.10240266837	1525.80004882813
1662.71369242255	1528.19995117188
1663.32490190291	1506.59997558594
1663.93603111687	1527
1664.54708007184	1523
1665.15804877524	1541.40002441406
1665.7689372345	1537
1666.37974545703	1546.19995117188
1666.99047345024	1537.80004882813
1667.60112122156	1541
1668.2116887784	1526.40002441406
1668.82217612818	1540.80004882813
1669.43258327831	1512.19995117188
1670.04291023622	1500
1670.65315700931	1478.59997558594
1671.263323605	1458.19995117188
1671.8734100307	1439.80004882813
1672.48341629384	1440
1673.09334240182	1439.80004882813
1673.70318836206	1448.80004882813
1674.31295418197	1438.59997558594
1674.92263986896	1429.59997558594
1675.53224543046	1418.80004882813
1676.14177087386	1440.59997558594
1676.75121620658	1433
1677.36058143604	1440
1677.96986656964	1435.19995117188
1678.5790716148	1443.80004882813
1679.18819657892	1470.19995117188
1679.79724146943	1465
1680.40620629372	1475.80004882813
1681.0150910592	1489.40002441406
1681.6238957733	1495.40002441406
1682.23262044341	1497.19995117188
1682.84126507694	1495.40002441406
1683.4498296813	1494.40002441406
1684.0583142639	1487.40002441406
1684.66671883216	1491.59997558594
1685.27504339346	1484.80004882813
1685.88328795523	1485.80004882813
1686.49145252487	1492.40002441406
1687.09953710978	1476
1687.70754171737	1474.40002441406
1688.31546635505	1474.19995117188
1688.92331103021	1480.59997558594
1689.53107575028	1479
1690.13876052265	1493
1690.74636535472	1490.59997558594
1691.3538902539	1476.40002441406
1691.96133522759	1466.59997558594
1692.5687002832	1460.59997558594
1693.17598542812	1458.19995117188
1693.78319066977	1452.19995117188
1694.39031601554	1443.80004882813
1694.99736147283	1424
1695.60432704905	1438.19995117188
1696.2112127516	1450.19995117188
1696.81801858788	1464.40002441406
1697.42474456528	1466.19995117188
1698.03139069121	1459.59997558594
1698.63795697307	1461
1699.24444341826	1450.80004882813
1699.85085003417	1448.19995117188
1700.45717682821	1443.80004882813
1701.06342380778	1440.80004882813
1701.66959098026	1433.19995117188
1702.27567835307	1430.59997558594
1702.88168593359	1431.80004882813
1703.48761372922	1438.80004882813
1704.09346174737	1427.19995117188
1704.69922999542	1432.40002441406
1705.30491848077	1428.80004882813
1705.91052721083	1431.19995117188
1706.51605619297	1433.59997558594
1707.12150543461	1434
1707.72687494312	1423.59997558594
1708.33216472592	1414.80004882813
1708.93737479039	1394
1709.54250514392	1401.80004882813
