634.977642221345	2226.60009765625
635.719821695905	2222.19995117188
636.461909203392	2214.60009765625
637.203904751776	2203.39990234375
637.945808349023	2224.19995117188
638.687620003102	2202.19995117188
639.42933972198	2223.19995117188
640.170967513616	2215.60009765625
640.912503385981	2220.60009765625
641.653947347041	2207
642.395299404758	2197.60009765625
643.13655956709	2178.60009765625
643.877727842014	2156.39990234375
644.61880423748	2123.19995117188
645.359788761455	2123
646.100681421905	2131
646.841482226789	2171
647.582191184074	2183.19995117188
648.322808301711	2176
649.06333358767	2159.80004882813
649.803767049909	2158.60009765625
650.544108696385	2179.19995117188
651.28435853506	2198.19995117188
652.024516573894	2200.19995117188
652.764582820849	2216.39990234375
653.504557283875	2248
654.244439970937	2247.39990234375
654.984230889991	2250.19995117188
655.723930048995	2248.39990234375
656.463537455909	2258.39990234375
657.203053118683	2272.60009765625
657.942477045275	2275.19995117188
658.681809243647	2269.60009765625
659.421049721747	2267.19995117188
660.160198487535	2257.80004882813
660.899255548962	2258.80004882813
661.638220913985	2281.19995117188
662.377094590559	2257.39990234375
663.115876586631	2270.39990234375
663.854566910165	2279.60009765625
664.593165569107	2273
665.331672571406	2261.39990234375
666.07008792502	2265.60009765625
666.808411637902	2232.60009765625
667.546643717996	2237.60009765625
668.284784173258	2219.60009765625
669.022833011641	2236.19995117188
669.760790241089	2239.39990234375
670.498655869554	2215.39990234375
671.236429904987	2193
671.97411235534	2183.19995117188
672.711703228551	2207.80004882813
673.449202532577	2238
674.186610275364	2280.39990234375
674.923926464857	2295
675.661151109008	2316.39990234375
676.398284215759	2306.39990234375
677.135325793058	2311
677.87227584885	2312.39990234375
678.609134391082	2332
679.345901427696	2323.80004882813
680.082576966644	2338.60009765625
680.819161015861	2327.19995117188
681.555653583298	2307.39990234375
682.292054676895	2325.80004882813
683.028364304594	2334
683.764582474344	2298.39990234375
684.500709194083	2292.19995117188
685.236744471752	2295.39990234375
685.972688315294	2292.19995117188
686.708540732652	2266.80004882813
687.444301731762	2278.60009765625
688.179971320572	2289.80004882813
688.915549507013	2269.19995117188
689.651036299034	2284.19995117188
690.386431704569	2242.39990234375
691.121735731559	2259.60009765625
691.85694838794	2253.19995117188
692.592069681652	2240.19995117188
693.327099620632	2229
694.062038212821	2242.19995117188
694.796885466149	2245.19995117188
695.531641388561	2246.60009765625
696.266305987987	2279.39990234375
697.000879272367	2287
697.735361249632	2292.80004882813
698.469751927722	2304.39990234375
699.204051314568	2311
699.938259418107	2310
700.672376246272	2309.39990234375
701.406401806997	2315.19995117188
702.140336108212	2324.80004882813
702.874179157855	2324
703.607930963856	2333
704.341591534147	2319
705.07516087666	2290.19995117188
705.808638999324	2285
706.542025910073	2292.19995117188
707.275321616841	2313.80004882813
708.008526127549	2304
708.741639450132	2309.39990234375
709.474661592521	2298.39990234375
710.207592562641	2316.19995117188
710.940432368424	2334.19995117188
711.673181017796	2308.80004882813
712.405838518687	2329.80004882813
713.138404879025	2312.60009765625
713.870880106731	2298.19995117188
714.603264209738	2307.19995117188
715.335557195971	2315.80004882813
716.067759073357	2331.60009765625
716.799869849816	2312.39990234375
717.531889533281	2339.60009765625
718.263818131673	2343.80004882813
718.995655652917	2343.19995117188
719.727402104934	2315.80004882813
720.45905749565	2305.19995117188
721.19062183299	2295.60009765625
721.922095124877	2292.19995117188
722.653477379231	2296.39990234375
723.384768603973	2309.39990234375
724.11596880703	2315.19995117188
724.847077996319	2296.80004882813
725.578096179762	2316.60009765625
726.309023365281	2330.80004882813
727.039859560792	2327
727.770604774222	2336.19995117188
728.501259013484	2323.60009765625
729.231822286501	2316.39990234375
729.962294601191	2345.60009765625
730.692675965469	2325.60009765625
731.42296638726	2305.19995117188
732.153165874472	2293.19995117188
732.883274435032	2295.19995117188
733.613292076851	2305.80004882813
734.343218807843	2308.80004882813
735.07305463593	2335.19995117188
735.802799569028	2326
736.532453615048	2317
737.262016781904	2286.60009765625
737.991489077517	2296
738.720870509794	2323.80004882813
739.450161086654	2309
740.179360816009	2319.60009765625
740.908469705772	2335.19995117188
741.637487763854	2360
742.366414998168	2360
743.095251416623	2362.19995117188
743.823997027137	2358.39990234375
744.552651837618	2353.80004882813
745.281215855978	2362.60009765625
746.009689090124	2357.80004882813
746.738071547964	2346.39990234375
747.466363237419	2324.19995117188
748.194564166384	2313.80004882813
748.92267434278	2310.60009765625
749.650693774504	2304.60009765625
750.378622469476	2305.60009765625
751.106460435596	2333
751.834207680771	2333.39990234375
752.561864212909	2347.60009765625
753.289430039919	2342.39990234375
754.016905169707	2351.80004882813
754.744289610175	2334
755.471583369231	2357
756.198786454782	2337
756.925898874728	2330
757.652920636979	2317.60009765625
758.379851749433	2306
759.106692219996	2326.39990234375
759.833442056572	2337.39990234375
760.560101267063	2373.39990234375
761.28666985937	2369.80004882813
762.0131478414	2368.60009765625
762.739535221046	2378.19995117188
763.465832006219	2374.60009765625
764.192038204812	2380.19995117188
764.918153824731	2391.39990234375
765.644178873872	2396.80004882813
766.370113360138	2412.19995117188
767.095957291425	2433.80004882813
767.821710675635	2461
768.547373520665	2478.39990234375
769.272945834415	2510.39990234375
769.998427624781	2504
770.723818899658	2531.39990234375
771.449119666949	2553.80004882813
772.174329934546	2558
772.899449710347	2556.80004882813
773.624479002248	2569
774.349417818145	2577
775.074266165934	2584.60009765625
775.799024053505	2587.39990234375
776.523691488757	2588.19995117188
777.248268479582	2554.60009765625
777.972755033877	2521
778.69715115953	2482.60009765625
779.421456864441	2446.80004882813
780.145672156493	2397.60009765625
780.869797043587	2413
781.593831533611	2393
782.317775634457	2388.80004882813
783.041629354012	2371
783.765392700174	2350.19995117188
784.489065680828	2355.80004882813
785.212648303866	2345.19995117188
785.936140577177	2334.60009765625
786.659542508652	2331.80004882813
787.382854106174	2330
788.106075377639	2324.60009765625
788.829206330928	2335.80004882813
789.552246973933	2333
790.275197314542	2356.39990234375
790.998057360638	2356.60009765625
791.720827120108	2348.39990234375
792.443506600841	2377.39990234375
793.166095810722	2357.60009765625
793.888594757635	2349.60009765625
794.611003449465	2344.60009765625
795.333321894098	2354
796.055550099417	2366
796.777688073308	2384.39990234375
797.499735823654	2387
798.221693358334	2346.60009765625
798.943560685235	2341.19995117188
799.665337812239	2329
800.387024747226	2352.80004882813
801.108621498075	2349.60009765625
801.830128072674	2369.19995117188
802.551544478902	2368.39990234375
803.272870724636	2365.60009765625
803.994106817761	2390.19995117188
804.715252766148	2379.60009765625
805.436308577687	2356
806.157274260251	2339.80004882813
806.878149821721	2326.80004882813
807.598935269973	2299.80004882813
808.319630612886	2281.39990234375
809.040235858336	2292
809.760751014202	2287.80004882813
810.481176088361	2303.80004882813
811.201511088685	2321.39990234375
811.921756023059	2306.80004882813
812.641910899347	2297.60009765625
813.361975725432	2300
814.081950509188	2292.19995117188
814.801835258489	2292.80004882813
815.521629981206	2308.19995117188
816.241334685218	2304.60009765625
816.960949378392	2272.39990234375
817.680474068606	2268.80004882813
818.399908763731	2296.19995117188
819.11925347164	2295
819.838508200202	2292.80004882813
820.55767295729	2323.39990234375
821.276747750778	2332
821.995732588531	2322.60009765625
822.714627478425	2341.39990234375
823.433432428327	2322.19995117188
824.152147446105	2342.19995117188
824.870772539632	2329.39990234375
825.589307716775	2344.19995117188
826.307752985404	2366.39990234375
827.026108353378	2339.80004882813
827.744373828579	2345.19995117188
828.462549418867	2324.39990234375
829.180635132107	2327.80004882813
829.898630976168	2326.39990234375
830.616536958915	2350.39990234375
831.334353088218	2346.60009765625
832.052079371938	2361.60009765625
832.769715817942	2348
833.487262434092	2348.60009765625
834.204719228255	2338.39990234375
834.922086208293	2324
835.639363382073	2336
836.356550757456	2327.19995117188
837.073648342304	2333.80004882813
837.790656144484	2332.39990234375
838.507574171847	2330.19995117188
839.22440243227	2323.60009765625
839.941140933601	2318
840.657789683706	2341.39990234375
841.374348690448	2346.19995117188
842.090817961686	2353.39990234375
842.807197505276	2345
843.523487329083	2354.39990234375
844.23968744096	2356
844.955797848771	2327.19995117188
845.671818560374	2342.80004882813
846.387749583622	2342.39990234375
847.103590926378	2326.19995117188
847.819342596497	2300.60009765625
848.535004601833	2312.60009765625
849.25057695025	2280.39990234375
849.966059649598	2293.19995117188
850.681452707735	2287
851.396756132513	2277.60009765625
852.111969931789	2269.19995117188
852.827094113419	2323.19995117188
853.542128685257	2327.80004882813
854.257073655158	2343.80004882813
854.971929030969	2357.60009765625
855.686694820551	2339.19995117188
856.40137103175	2314.39990234375
857.115957672423	2318.19995117188
857.830454750423	2303.19995117188
858.544862273597	2292.80004882813
859.259180249797	2308.80004882813
859.97340868688	2309.19995117188
860.687547592688	2325.39990234375
861.401596975075	2335.39990234375
862.115556841891	2337.60009765625
862.829427200985	2349.60009765625
863.543208060205	2361.60009765625
864.256899427402	2351.60009765625
864.970501310423	2352
865.684013717114	2341.80004882813
866.397436655325	2326.60009765625
867.110770132901	2311
867.824014157691	2308.39990234375
868.537168737542	2319.19995117188
869.250233880299	2301.60009765625
869.963209593803	2324.60009765625
870.676095885902	2299
871.388892764445	2315.80004882813
872.101600237276	2304.39990234375
872.814218312233	2302.80004882813
873.526746997165	2307.39990234375
874.239186299914	2313.39990234375
874.951536228323	2313.19995117188
875.663796790231	2308.19995117188
876.375967993487	2324.60009765625
877.088049845928	2306.80004882813
877.8000423554	2314.60009765625
878.511945529739	2300.19995117188
879.22375937679	2298
879.935483904388	2287.19995117188
880.64711912038	2292
881.358665032604	2295.80004882813
882.070121648892	2276.39990234375
882.78148897709	2269
883.492767025039	2255.19995117188
884.203955800571	2275.80004882813
884.915055311525	2299.60009765625
885.626065565741	2296.60009765625
886.336986571053	2283.19995117188
887.047818335298	2262.19995117188
887.758560866315	2262.39990234375
888.469214171937	2277.19995117188
889.179778260005	2276.19995117188
889.890253138347	2275.19995117188
890.600638814803	2248.39990234375
891.310935297204	2233.19995117188
892.021142593385	2244.60009765625
892.731260711183	2268.19995117188
893.441289658429	2279.19995117188
894.15122944295	2282
894.861080072591	2281.19995117188
895.570841555173	2278
896.280513898534	2279.80004882813
896.990097110503	2264.80004882813
897.699591198913	2279.60009765625
898.408996171595	2311
899.118312036375	2295.39990234375
899.827538801089	2297.80004882813
900.536676473561	2307
901.245725061628	2319
901.954684573109	2333.80004882813
902.663555015838	2342.60009765625
903.372336397644	2332.80004882813
904.081028726351	2333
904.789632009793	2357.80004882813
905.49814625579	2368.19995117188
906.20657147217	2365.60009765625
906.914907666765	2339.39990234375
907.623154847391	2334
908.331313021885	2321.60009765625
909.039382198064	2303.80004882813
909.747362383754	2317
910.455253586782	2312.80004882813
911.163055814972	2315
911.870769076143	2311
912.578393378126	2310.19995117188
913.285928728738	2296.80004882813
913.993375135802	2306.80004882813
914.700732607145	2301.39990234375
915.408001150579	2298.60009765625
916.115180773937	2289.39990234375
916.822271485037	2322
917.529273291693	2287.80004882813
918.236186201733	2304.19995117188
918.943010222971	2320.39990234375
919.649745363234	2333.19995117188
920.356391630333	2315
921.062949032096	2296.39990234375
921.769417576333	2267.80004882813
922.475797270864	2278
923.182088123512	2285
923.888290142089	2314
924.594403334414	2286.60009765625
925.300427708304	2297
926.006363271572	2313.39990234375
926.712210032039	2311
927.417967997522	2294.80004882813
928.123637175827	2288
928.829217574776	2301.60009765625
929.534709202184	2313
930.240112065859	2282
930.945426173621	2286.60009765625
931.650651533283	2266
932.355788152653	2272.80004882813
933.060836039547	2256.80004882813
933.765795201776	2267
934.470665647153	2258.19995117188
935.175447383492	2252.80004882813
935.880140418599	2243.60009765625
936.584744760286	2253.39990234375
937.289260416366	2254.60009765625
937.993687394647	2250.19995117188
938.698025702939	2263
939.402275349051	2296.80004882813
940.106436340793	2286.80004882813
940.810508685976	2313.60009765625
941.5144923924	2307
942.21838746788	2285.39990234375
942.922193920223	2279.19995117188
943.625911757231	2297.19995117188
944.329540986716	2294.19995117188
945.033081616484	2267.80004882813
945.736533654334	2244.60009765625
946.439897108083	2255.60009765625
947.143171985529	2239.60009765625
947.846358294477	2239.39990234375
948.549456042732	2247.60009765625
949.2524652381	2256.39990234375
949.955385888382	2261.60009765625
950.658218001384	2269.60009765625
951.360961584907	2277
952.063616646755	2295.80004882813
952.766183194733	2281.39990234375
953.468661236636	2302.19995117188
954.171050780271	2272
954.873351833437	2276.39990234375
955.575564403935	2276.19995117188
956.277688499565	2255.80004882813
956.97972412813	2253.80004882813
957.681671297424	2245
958.383530015255	2273
959.085300289414	2258.39990234375
959.786982127703	2272.39990234375
960.488575537918	2276.80004882813
961.190080527859	2269.39990234375
961.891497105327	2241.60009765625
962.592825278111	2241.60009765625
963.294065054012	2220.39990234375
963.995216440829	2242.19995117188
964.696279446353	2231.19995117188
965.397254078383	2224.60009765625
966.098140344714	2244.19995117188
966.798938253139	2270.80004882813
967.499647811456	2237.80004882813
968.200269027458	2257
968.900801908937	2232.60009765625
969.601246463685	2214.19995117188
970.3016026995	2223.80004882813
971.001870624169	2201.19995117188
971.702050245491	2220
972.402141571249	2195
973.102144609245	2221.19995117188
973.802059367267	2212.39990234375
974.501885853103	2234.19995117188
975.201624074541	2237.39990234375
975.901274039379	2249.19995117188
976.600835755399	2283.19995117188
977.3003092304	2271.80004882813
977.999694472158	2267.60009765625
978.698991488473	2259.80004882813
979.39820028713	2251.80004882813
980.097320875915	2249.80004882813
980.796353262618	2244.60009765625
981.495297455024	2244.39990234375
982.194153460919	2247
982.892921288093	2256.39990234375
983.591600944331	2250.19995117188
984.290192437419	2240.19995117188
984.98869577514	2237.19995117188
985.687110965282	2242
986.385438015629	2241.60009765625
987.083676933961	2220.80004882813
987.781827728069	2224.80004882813
988.479890405732	2225.19995117188
989.177864974732	2224
989.875751442857	2222.39990234375
990.573549817888	2223.19995117188
991.271260107602	2256.60009765625
991.968882319786	2261.60009765625
992.666416462217	2269.80004882813
993.363862542681	2251.39990234375
994.061220568959	2259
994.758490548823	2223.60009765625
995.455672490061	2235.80004882813
996.152766400451	2230.19995117188
996.849772287773	2234.60009765625
997.5466901598	2232.39990234375
998.243520024317	2248.60009765625
998.940261889097	2245.60009765625
999.636915761923	2218.39990234375
1000.33348165057	2230.80004882813
1001.02995956281	2203.80004882813
1001.72634950643	2208.19995117188
1002.42265148919	2215.39990234375
1003.11886551889	2232.60009765625
1003.81499160328	2246.60009765625
1004.51102975015	2247.80004882813
1005.20697996727	2260
1005.90284226242	2239.19995117188
1006.59861664337	2236.80004882813
1007.2943031179	2229
1007.98990169377	2251
1008.68541237876	2256.80004882813
1009.38083518064	2274.60009765625
1010.07617010719	2282.19995117188
1010.77141716617	2297.19995117188
1011.46657636536	2277.80004882813
1012.16164771253	2283.19995117188
1012.85663121546	2264.80004882813
1013.5515268819	2229.80004882813
1014.24633471963	2226
1014.94105473642	2221
1015.63568694004	2204.60009765625
1016.33023133826	2209.60009765625
1017.02468793885	2208.19995117188
1017.71905674957	2229
1018.41333777819	2206.80004882813
1019.10753103249	2220.39990234375
1019.80163652022	2205
1020.49565424916	2221.19995117188
1021.18958422707	2238
1021.88342646171	2204.80004882813
1022.57718096085	2222
1023.27084773227	2251
1023.96442678371	2216.39990234375
1024.65791812296	2207.39990234375
1025.35132175776	2205.39990234375
1026.04463769589	2181
1026.73786594511	2160.80004882813
1027.43100651318	2175.60009765625
1028.12405940786	2164.60009765625
1028.81702463692	2163.39990234375
1029.50990220812	2169.39990234375
1030.20269212921	2197.80004882813
1030.89539440798	2201
1031.58800905216	2203
1032.28053606952	2205.19995117188
1032.97297546784	2190.60009765625
1033.66532725485	2200
1034.35759143832	2190.39990234375
1035.04976802602	2208.19995117188
1035.7418570257	2211.39990234375
1036.43385844511	2192.19995117188
1037.12577229202	2192.60009765625
1037.81759857419	2190.39990234375
1038.50933729937	2171
1039.20098847531	2183.80004882813
1039.89255210978	2207.80004882813
1040.58402821053	2217.80004882813
1041.27541678532	2208
1041.96671784191	2202.39990234375
1042.65793138804	2198.19995117188
1043.34905743147	2162.60009765625
1044.04009597996	2206
1044.73104704125	2207.19995117188
1045.42191062312	2205
1046.1126867333	2214.19995117188
1046.80337537955	2204.80004882813
1047.49397656962	2191.19995117188
1048.18449031127	2203.39990234375
1048.87491661225	2203.60009765625
1049.5652554803	2185.39990234375
1050.25550692319	2166.60009765625
1050.94567094865	2151.19995117188
1051.63574756444	2134
1052.32573677832	2156
1053.01563859803	2156
1053.70545303131	2165.60009765625
1054.39518008592	2153.19995117188
1055.08481976961	2156.19995117188
1055.77437209013	2164.39990234375
1056.46383705522	2185.60009765625
1057.15321467262	2202.19995117188
1057.8425049501	2185.19995117188
1058.53170789539	2181
1059.22082351624	2164.39990234375
1059.9098518204	2147.80004882813
1060.59879281561	2120.80004882813
1061.28764650962	2140.80004882813
1061.97641291016	2136.60009765625
1062.665092025	2173.19995117188
1063.35368386187	2158.39990234375
1064.04218842851	2160.60009765625
1064.73060573268	2134
1065.4189357821	2138
1066.10717858452	2122.80004882813
1066.7953341477	2119
1067.48340247936	2106.80004882813
1068.17138358725	2112.39990234375
1068.85927747912	2133
1069.5470841627	2125.80004882813
1070.23480364573	2144.60009765625
1070.92243593595	2148.60009765625
1071.60998104111	2172.80004882813
1072.29743896894	2173
1072.98480972718	2167.80004882813
1073.67209332357	2151.39990234375
1074.35928976585	2153.39990234375
1075.04639906176	2158
1075.73342121903	2161
1076.42035624541	2158.19995117188
1077.10720414862	2174.19995117188
1077.79396493641	2182.80004882813
1078.48063861651	2196.19995117188
1079.16722519666	2164
1079.85372468459	2170.60009765625
1080.54013708804	2158.60009765625
1081.22646241474	2139.80004882813
1081.91270067243	2136.60009765625
1082.59885186884	2155.19995117188
1083.28491601171	2149
1083.97089310877	2176.39990234375
1084.65678316774	2183.60009765625
1085.34258619637	2170
1086.02830220239	2196.80004882813
1086.71393119352	2200.39990234375
1087.39947317751	2190.19995117188
1088.08492816207	2174.80004882813
1088.77029615495	2199.39990234375
1089.45557716387	2198.60009765625
1090.14077119656	2191.80004882813
1090.82587826075	2167.39990234375
1091.51089836417	2147.19995117188
1092.19583151456	2136
1092.88067771963	2132.39990234375
1093.56543698712	2130.60009765625
1094.25010932475	2132.60009765625
1094.93469474026	2150.19995117188
1095.61919324137	2144.19995117188
1096.3036048358	2138
1096.98792953129	2134
1097.67216733555	2132.80004882813
1098.35631825632	2148.39990234375
1099.04038230132	2165
1099.72435947828	2158
1100.40824979492	2148.19995117188
1101.09205325895	2135.39990234375
1101.77576987812	2124.60009765625
1102.45939966014	2102.39990234375
1103.14294261273	2111.80004882813
1103.82639874362	2103.60009765625
1104.50976806054	2102
1105.19305057119	2103.60009765625
1105.87624628331	2119.80004882813
1106.55935520461	2127.19995117188
1107.24237734283	2138
1107.92531270566	2130.19995117188
1108.60816130085	2134.80004882813
1109.2909231361	2143.19995117188
1109.97359821914	2151.39990234375
1110.65618655768	2148.60009765625
1111.33868815946	2155.39990234375
1112.02110303217	2167.80004882813
1112.70343118355	2162.60009765625
1113.3856726213	2182.60009765625
1114.06782735316	2180
1114.74989538683	2163.60009765625
1115.43187673002	2155.80004882813
1116.11377139047	2134.80004882813
1116.79557937588	2115.80004882813
1117.47730069397	2117.19995117188
1118.15893535245	2105.19995117188
1118.84048335904	2128.39990234375
1119.52194472146	2144.19995117188
1120.20331944741	2151.39990234375
1120.88460754462	2141.60009765625
1121.56580902079	2132.60009765625
1122.24692388364	2147.39990234375
1122.92795214088	2139.19995117188
1123.60889380022	2158.60009765625
1124.28974886938	2175.60009765625
1124.97051735606	2200.80004882813
1125.65119926799	2218.39990234375
1126.33179461286	2213
1127.0123033984	2198
1127.6927256323	2212.80004882813
1128.37306132229	2179.80004882813
1129.05331047606	2166.19995117188
1129.73347310134	2171.60009765625
1130.41354920582	2178.19995117188
1131.09353879722	2178.19995117188
1131.77344188324	2164.39990234375
1132.45325847159	2164.39990234375
1133.13298856999	2173
1133.81263218612	2177.60009765625
1134.49218932772	2168.19995117188
1135.17166000247	2158.60009765625
1135.85104421809	2153.39990234375
1136.53034198227	2163
1137.20955330274	2108.39990234375
1137.88867818718	2110.60009765625
1138.56771664331	2096.60009765625
1139.24666867883	2107.60009765625
1139.92553430144	2130.39990234375
1140.60431351885	2127.19995117188
1141.28300633876	2149.60009765625
1141.96161276887	2149
1142.64013281689	2173.60009765625
1143.31856649051	2164.39990234375
1143.99691379744	2154.80004882813
1144.67517474538	2129
1145.35334934203	2150.19995117188
1146.03143759509	2124.39990234375
1146.70943951226	2123
1147.38735510125	2111.39990234375
1148.06518436974	2096.60009765625
1148.74292732545	2115
1149.42058397606	2108.39990234375
1150.09815432928	2105.19995117188
1150.7756383928	2093.80004882813
1151.45303617432	2094.80004882813
1152.13034768155	2097.19995117188
1152.80757292217	2117.39990234375
1153.48471190389	2132.39990234375
1154.16176463439	2146.60009765625
1154.83873112138	2147.80004882813
1155.51561137255	2134.19995117188
1156.1924053956	2139.80004882813
1156.86911319822	2142
1157.5457347881	2155
1158.22227017294	2155.60009765625
1158.89871936044	2142
1159.57508235828	2145.80004882813
1160.25135917416	2150.39990234375
1160.92754981578	2137.19995117188
1161.60365429081	2135.60009765625
1162.27967260697	2119.80004882813
1162.95560477193	2111.39990234375
1163.63145079339	2104.39990234375
1164.30721067904	2104.19995117188
1164.98288443657	2096.39990234375
1165.65847207367	2103
1166.33397359803	2091.19995117188
1167.00938901735	2106
1167.6847183393	2101
1168.35996157157	2110.19995117188
1169.03511872187	2111.80004882813
1169.71018979787	2121.19995117188
1170.38517480726	2126.39990234375
1171.06007375773	2132
1171.73488665696	2120.39990234375
1172.40961351265	2119.80004882813
1173.08425433247	2108.60009765625
1173.75880912412	2108
1174.43327789528	2113
1175.10766065364	2136.19995117188
1175.78195740687	2147.39990234375
1176.45616816267	2147.39990234375
1177.13029292871	2162
1177.80433171269	2171.80004882813
1178.47828452229	2168.60009765625
1179.15215136518	2150.39990234375
1179.82593224905	2164.80004882813
1180.49962718159	2156.39990234375
1181.17323617047	2155.80004882813
1181.84675922337	2141.60009765625
1182.52019634799	2159.60009765625
1183.193547552	2189.19995117188
1183.86681284307	2173.19995117188
1184.53999222889	2176.80004882813
1185.21308571714	2175.60009765625
1185.8860933155	2174.19995117188
1186.55901503165	2146
1187.23185087326	2155.39990234375
1187.90460084802	2166
1188.5772649636	2153.60009765625
1189.24984322768	2152.80004882813
1189.92233564794	2170
1190.59474223206	2151.39990234375
1191.2670629877	2151.60009765625
1191.93929792255	2164.39990234375
1192.61144704428	2150.39990234375
1193.28351036058	2136.19995117188
1193.9554878791	2139.39990234375
1194.62737960754	2129
1195.29918555356	2109.80004882813
1195.97090572483	2137
1196.64254012903	2136
1197.31408877384	2157.80004882813
1197.98555166693	2155.80004882813
1198.65692881596	2138
1199.32822022862	2140.39990234375
1199.99942591256	2123
1200.67054587548	2124.60009765625
1201.34158012503	2123
1202.01252866889	2092.19995117188
1202.68339151473	2098.60009765625
1203.35416867021	2091.60009765625
1204.02486014301	2083
1204.6954659408	2083.60009765625
1205.36598607124	2098.39990234375
1206.03642054201	2096.60009765625
1206.70676936078	2125.39990234375
1207.3770325352	2130
1208.04721007295	2109.60009765625
1208.7173019817	2116.60009765625
1209.38730826911	2121.19995117188
1210.05722894285	2083.60009765625
1210.72706401059	2086.80004882813
1211.39681347999	2086.60009765625
1212.06647735872	2084.80004882813
1212.73605565444	2070.60009765625
1213.40554837481	2073.39990234375
1214.07495552751	2087.60009765625
1214.74427712019	2077.39990234375
1215.41351316052	2074.39990234375
1216.08266365617	2083
1216.75172861479	2092
1217.42070804405	2078.80004882813
1218.0896019516	2080.60009765625
1218.75841034513	2057.39990234375
1219.42713323227	2078.60009765625
1220.0957706207	2077
1220.76432251808	2090.39990234375
1221.43278893207	2091
1222.10116987032	2100.39990234375
1222.7694653405	2099.19995117188
1223.43767535026	2097.39990234375
1224.10579990727	2097.19995117188
1224.77383901918	2073.80004882813
1225.44179269366	2077.19995117188
1226.10966093835	2083.39990234375
1226.77744376093	2066.60009765625
1227.44514116904	2076.60009765625
1228.11275317034	2084.80004882813
1228.78027977249	2085.60009765625
1229.44772098315	2080.39990234375
1230.11507680996	2081.60009765625
1230.7823472606	2086.39990234375
1231.44953234271	2069.19995117188
1232.11663206394	2063.39990234375
1232.78364643195	2051.19995117188
1233.4505754544	2036.59997558594
1234.11741913894	2030.40002441406
1234.78417749322	2029.59997558594
1235.45085052489	2053
1236.11743824162	2028.19995117188
1236.78394065104	2029
1237.45035776082	2024.40002441406
1238.1166895786	2057.80004882813
1238.78293611204	2064
1239.44909736878	2057.39990234375
1240.11517335648	2046
1240.78116408279	2046.19995117188
1241.44706955535	2073.39990234375
1242.11288978182	2068.39990234375
1242.77862476985	2051.80004882813
1243.44427452708	2049.80004882813
1244.10983906116	2040
1244.77531837974	2042.80004882813
1245.44071249047	2020
1246.106021401	2017.40002441406
1246.77124511898	2045.19995117188
1247.43638365204	2032.59997558594
1248.10143700783	2042.19995117188
1248.76640519401	2039
1249.43128821822	2039.59997558594
1250.0960860881	2041.80004882813
1250.76079881129	2033.40002441406
1251.42542639545	2019
1252.08996884822	2014
1252.75442617723	2008.19995117188
1253.41879839014	2030.59997558594
1254.08308549458	2046.59997558594
1254.74728749821	2024.59997558594
1255.41140440866	2058.39990234375
1256.07543623357	2046.19995117188
1256.73938298059	2023.19995117188
1257.40324465735	2041.80004882813
1258.0670212715	2015.80004882813
1258.73071283068	2006.40002441406
1259.39431934253	2027.59997558594
1260.05784081468	2016.19995117188
1260.72127725479	2017.40002441406
1261.38462867049	2003.40002441406
1262.0478950694	2013
1262.71107645919	1995.19995117188
1263.37417284748	1994
1264.03718424191	2009.80004882813
1264.70011065011	2009.19995117188
1265.36295207974	2017.19995117188
1266.02570853841	2028.40002441406
1266.68838003378	2028.59997558594
1267.35096657346	2014.80004882813
1268.01346816511	2014
1268.67588481636	1994.80004882813
1269.33821653483	1986
1270.00046332817	1996.59997558594
1270.66262520401	2015.40002441406
1271.32470216998	2031.59997558594
1271.98669423372	2001.19995117188
1272.64860140285	1991
1273.31042368503	1987
1273.97216108786	1978.40002441406
1274.633813619	1993
1275.29538128606	2008
1275.95686409669	2016.59997558594
1276.6182620585	2005.59997558594
1277.27957517914	2032.59997558594
1277.94080346624	1997.19995117188
1278.60194692741	2001.40002441406
1279.2630055703	2020.19995117188
1279.92397940253	2002.40002441406
1280.58486843173	2011.40002441406
1281.24567266552	2014.80004882813
1281.90639211155	2002.59997558594
1282.56702677743	1982.59997558594
1283.2275766708	2005.40002441406
1283.88804179927	2002.40002441406
1284.54842217049	1971.59997558594
1285.20871779206	1981.59997558594
1285.86892867163	1981.40002441406
1286.52905481681	1982.80004882813
1287.18909623523	1996.19995117188
1287.84905293452	2010.40002441406
1288.5089249223	2024.40002441406
1289.16871220619	1996.19995117188
1289.82841479383	2015.40002441406
1290.48803269282	2021
1291.1475659108	2029.40002441406
1291.80701445539	2013.80004882813
1292.46637833421	2004
1293.12565755489	2006.19995117188
1293.78485212504	1996.80004882813
1294.44396205229	2000
1295.10298734425	1990.40002441406
1295.76192800856	1980
1296.42078405283	1978.59997558594
1297.07955548467	1969.80004882813
1297.73824231171	2009.40002441406
1298.39684454158	2013.40002441406
1299.05536218188	2018.19995117188
1299.71379524023	2041.59997558594
1300.37214372427	2036
1301.03040764159	2036.40002441406
1301.68858699983	2038.40002441406
1302.34668180659	2030.40002441406
1303.0046920695	2022.19995117188
1303.66261779617	2023.19995117188
1304.32045899422	2046.40002441406
1304.97821567126	2045.40002441406
1305.63588783492	2040.80004882813
1306.29347549279	2028.40002441406
1306.95097865251	2041.40002441406
1307.60839732168	2036.40002441406
1308.26573150791	2049.19995117188
1308.92298121883	2054.60009765625
1309.58014646204	2041.59997558594
1310.23722724517	2042.19995117188
1310.89422357581	2045
1311.55113546158	2057.39990234375
1312.2079629101	2049.80004882813
1312.86470592898	2064
1313.52136452582	2056.80004882813
1314.17793870824	2058.60009765625
1314.83442848386	2069.19995117188
1315.49083386027	2055.19995117188
1316.14715484509	2045.59997558594
1316.80339144594	2052.60009765625
1317.45954367041	2072.39990234375
1318.11561152611	2075
1318.77159502067	2057.19995117188
1319.42749416168	2063.39990234375
1320.08330895674	2062
1320.73903941348	2064.19995117188
1321.3946855395	2067.80004882813
1322.0502473424	2044.59997558594
1322.70572482978	2038
1323.36111800926	2036.19995117188
1324.01642688845	2024.80004882813
1324.67165147494	2030.80004882813
1325.32679177634	2035.40002441406
1325.98184780025	2028.40002441406
1326.63681955429	2025.59997558594
1327.29170704605	2012.80004882813
1327.94651028314	2023.59997558594
1328.60122927316	2004.19995117188
1329.25586402371	2006.40002441406
1329.9104145424	1981.19995117188
1330.56488083683	1991.19995117188
1331.2192629146	1981.80004882813
1331.87356078331	1995
1332.52777445056	1996.40002441406
1333.18190392395	2008.80004882813
1333.83594921109	2004.59997558594
1334.48991031958	2002.80004882813
1335.143787257	1983.80004882813
1335.79758003097	1965.19995117188
1336.45128864908	1979
1337.10491311893	2005.59997558594
1337.75845344813	1995.40002441406
1338.41190964425	2010.80004882813
1339.06528171491	2004.59997558594
1339.71856966771	1991.19995117188
1340.37177351023	1978.80004882813
1341.02489325007	1965.59997558594
1341.67792889484	1945.59997558594
1342.33088045212	1944
1342.98374792952	1945.40002441406
1343.63653133462	1954.80004882813
1344.28923067503	1954.59997558594
1344.94184595833	1963.80004882813
1345.59437719212	1969.40002441406
1346.246824384	1959.80004882813
1346.89918754155	1970
1347.55146667238	1976
1348.20366178407	1986.59997558594
1348.85577288421	1987.19995117188
1349.50779998041	1990
1350.15974308024	2001
1350.8116021913	1976.40002441406
1351.46337732119	1993.59997558594
1352.11506847748	1975.19995117188
1352.76667566778	1983.19995117188
1353.41819889967	1964.80004882813
1354.06963818074	1975.59997558594
1354.72099351858	1978.40002441406
1355.37226492079	1998.59997558594
1356.02345239494	1999.59997558594
1356.67455594862	2010.80004882813
1357.32557558943	2043.59997558594
1357.97651132496	2044.40002441406
1358.62736316277	2062.80004882813
1359.27813111048	2086.80004882813
1359.92881517565	2095
1360.57941536589	2141.80004882813
1361.22993168876	2130
1361.88036415186	2158
1362.53071276278	2154.39990234375
1363.1809775291	2156.80004882813
1363.8311584584	2179.60009765625
1364.48125555826	2181
1365.13126883627	2150.39990234375
1365.78119830001	2121.39990234375
1366.43104395707	2111.80004882813
1367.08080581503	2102.60009765625
1367.73048388147	2074.19995117188
1368.38007816397	2057.19995117188
1369.02958867011	2062.19995117188
1369.67901540748	2056.80004882813
1370.32835838365	2049.19995117188
1370.9776176062	2034.80004882813
1371.62679308273	2037.59997558594
1372.27588482079	2037.80004882813
1372.92489282798	2038.40002441406
1373.57381711188	2024.59997558594
1374.22265768006	2011.40002441406
1374.87141454009	1993.59997558594
1375.52008769957	1982.40002441406
1376.16867716606	1981.80004882813
1376.81718294715	1970.59997558594
1377.4656050504	1963
1378.1139434834	1938.80004882813
1378.76219825373	1956.19995117188
1379.41036936895	1977
1380.05845683664	1969
1380.70646066439	1971.59997558594
1381.35438085976	1983.19995117188
1382.00221743032	1981.59997558594
1382.64997038366	1987.19995117188
1383.29763972735	1989.19995117188
1383.94522546895	1988.19995117188
1384.59272761605	1977.80004882813
1385.24014617621	1976.59997558594
1385.88748115701	1998.40002441406
1386.53473256602	1982
1387.18190041081	1972.80004882813
1387.82898469895	1961.59997558594
1388.47598543802	1957
1389.12290263558	1942.80004882813
1389.7697362992	1923.80004882813
1390.41648643646	1914.80004882813
1391.06315305492	1902.40002441406
1391.70973616215	1898.40002441406
1392.35623576573	1913.59997558594
1393.00265187321	1891.19995117188
1393.64898449217	1892.40002441406
1394.29523363018	1896.80004882813
1394.94139929481	1905.19995117188
1395.58748149361	1917
1396.23348023415	1892
1396.87939552402	1898
1397.52522737076	1892.19995117188
1398.17097578195	1879.19995117188
1398.81664076514	1857.19995117188
1399.46222232792	1826.40002441406
1400.10772047783	1827.40002441406
1400.75313522245	1824.59997558594
1401.39846656934	1839.40002441406
1402.04371452605	1838.40002441406
1402.68887910016	1848
1403.33396029924	1838
1403.97895813083	1854
1404.6238726025	1860
1405.26870372182	1867
1405.91345149634	1885.59997558594
1406.55811593363	1875.40002441406
1407.20269704125	1871
1407.84719482676	1876.80004882813
1408.49160929772	1874.80004882813
1409.13594046168	1881.59997558594
1409.78018832622	1884.40002441406
1410.42435289887	1893.19995117188
1411.06843418722	1875.80004882813
1411.7124321988	1875.19995117188
1412.3563469412	1894.19995117188
1413.00017842194	1902.19995117188
1413.64392664861	1884.59997558594
1414.28759162875	1895.19995117188
1414.93117336992	1894.40002441406
1415.57467187967	1883
1416.21808716557	1881.19995117188
1416.86141923516	1882.40002441406
1417.50466809601	1903
1418.14783375567	1898.59997558594
1418.79091622169	1897.59997558594
1419.43391550162	1885.80004882813
1420.07683160303	1886.19995117188
1420.71966453346	1882.59997558594
1421.36241430046	1893.80004882813
1422.0050809116	1892.59997558594
1422.64766437442	1900.59997558594
1423.29016469647	1904.40002441406
1423.93258188531	1908.80004882813
1424.57491594848	1900.19995117188
1425.21716689354	1904.80004882813
1425.85933472805	1907.59997558594
1426.50141945954	1902.40002441406
1427.14342109557	1905
1427.78533964369	1897.40002441406
1428.42717511144	1876.40002441406
1429.06892750639	1881.19995117188
1429.71059683607	1870.19995117188
1430.35218310803	1858.19995117188
1430.99368632983	1880.19995117188
1431.635106509	1866.59997558594
1432.2764436531	1873.80004882813
1432.91769776967	1900.19995117188
1433.55886886627	1915
1434.19995695043	1910.40002441406
1434.84096202969	1898.80004882813
1435.48188411162	1913.19995117188
1436.12272320375	1889
1436.76347931363	1904
1437.40415244879	1913.19995117188
1438.0447426168	1904.40002441406
1438.68524982518	1889.80004882813
1439.32567408148	1899.19995117188
1439.96601539325	1886.59997558594
1440.60627376803	1889.19995117188
1441.24644921336	1886.59997558594
1441.88654173678	1874.40002441406
1442.52655134583	1890.40002441406
1443.16647804806	1874
1443.806321851	1872.19995117188
1444.4460827622	1865.19995117188
1445.0857607892	1875.19995117188
1445.72535593953	1863
1446.36486822074	1857.80004882813
1447.00429764037	1845
1447.64364420595	1849.59997558594
1448.28290792502	1841.40002441406
1448.92208880512	1842.80004882813
1449.56118685379	1853.19995117188
1450.20020207857	1837.40002441406
1450.83913448699	1839
1451.47798408659	1875.59997558594
1452.1167508849	1853
1452.75543488947	1857.80004882813
1453.39403610782	1857
1454.0325545475	1845.80004882813
1454.67099021603	1849
1455.30934312097	1853.59997558594
1455.94761326982	1864.19995117188
1456.58580067014	1867
1457.22390532945	1859.40002441406
1457.86192725529	1857
1458.49986645519	1855.59997558594
1459.13772293668	1850.40002441406
1459.7754967073	1840
1460.41318777457	1842.80004882813
1461.05079614604	1842.40002441406
1461.68832182922	1834.59997558594
1462.32576483166	1837.19995117188
1462.96312516087	1824.59997558594
1463.6004028244	1838
1464.23759782977	1838
1464.8747101845	1849
1465.51173989614	1876.59997558594
1466.14868697221	1877.59997558594
1466.78555142024	1860.19995117188
1467.42233324774	1877.59997558594
1468.05903246227	1873.59997558594
1468.69564907133	1839.40002441406
1469.33218308246	1842.40002441406
1469.96863450317	1845
1470.60500334102	1856
1471.2412896035	1849
1471.87749329816	1867.19995117188
1472.51361443251	1874
1473.14965301409	1883.40002441406
1473.78560905041	1871.19995117188
1474.421482549	1872.40002441406
1475.05727351739	1895.19995117188
1475.69298196309	1870.59997558594
1476.32860789364	1868.40002441406
1476.96415131654	1874.19995117188
1477.59961223934	1861.19995117188
1478.23499066954	1864.80004882813
1478.87028661467	1863
1479.50550008226	1865.19995117188
1480.14063107981	1861
1480.77567961486	1852.80004882813
1481.41064569492	1834.80004882813
1482.04552932752	1844.19995117188
1482.68033052017	1832.59997558594
1483.31504928039	1851.80004882813
1483.9496856157	1850.19995117188
1484.58423953363	1856.59997558594
1485.21871104168	1851.40002441406
1485.85310014738	1844.59997558594
1486.48740685824	1844.40002441406
1487.12163118178	1843.40002441406
1487.75577312553	1849.40002441406
1488.38983269698	1855.19995117188
1489.02380990367	1827.59997558594
1489.65770475311	1837.40002441406
1490.29151725281	1852.19995117188
1490.92524741029	1855.80004882813
1491.55889523306	1866.59997558594
1492.19246072863	1854.19995117188
1492.82594390453	1861.59997558594
1493.45934476826	1854.80004882813
1494.09266332734	1845.59997558594
1494.72589958928	1852.80004882813
1495.3590535616	1871.19995117188
1495.99212525181	1882.59997558594
1496.62511466741	1892.40002441406
1497.25802181592	1870
1497.89084670485	1870.19995117188
1498.52358934172	1863.80004882813
1499.15624973403	1873.40002441406
1499.7888278893	1893.59997558594
1500.42132381503	1871.59997558594
1501.05373751873	1888.40002441406
1501.68606900792	1888.19995117188
1502.31831829009	1910.80004882813
1502.95048537277	1922.80004882813
1503.58257026346	1943.19995117188
1504.21457296966	1963
1504.84649349889	1997.80004882813
1505.47833185864	1995
1506.11008805644	1994
1506.74176209978	2000.80004882813
1507.37335399617	1986.40002441406
1508.00486375312	1971.59997558594
1508.63629137813	1977
1509.2676368787	1951.59997558594
1509.89890026235	1944.19995117188
1510.53008153658	1981.40002441406
1511.16118070889	1953.59997558594
1511.79219778677	1963.40002441406
1512.42313277775	1946
1513.05398568932	1953.80004882813
1513.68475652898	1923.40002441406
1514.31544530424	1923.19995117188
1514.9460520226	1913.80004882813
1515.57657669155	1911.19995117188
1516.20701931861	1897.80004882813
1516.83737991127	1895
1517.46765847702	1879
1518.09785502339	1867
1518.72796955785	1868.40002441406
1519.35800208792	1869.80004882813
1519.98795262109	1872.80004882813
1520.61782116486	1854
1521.24760772673	1867.19995117188
1521.87731231419	1864.19995117188
1522.50693493475	1854.19995117188
1523.1364755959	1861.19995117188
1523.76593430514	1839
1524.39531106997	1841.19995117188
1525.02460589788	1842.59997558594
1525.65381879637	1856
1526.28294977293	1828.80004882813
1526.91199883507	1839.19995117188
1527.54096599027	1797
1528.16985124603	1786.40002441406
1528.79865460984	1806
1529.4273760892	1795.80004882813
1530.05601569161	1791.80004882813
1530.68457342455	1817.40002441406
1531.31304929552	1806
1531.94144331201	1831.59997558594
1532.56975548151	1821
1533.19798581152	1842.80004882813
1533.82613430953	1829.80004882813
1534.45420098302	1845.80004882813
1535.08218583949	1848.19995117188
1535.71008888643	1856.59997558594
1536.33791013134	1832.40002441406
1536.96564958169	1828
1537.59330724498	1822.80004882813
1538.22088312871	1830.80004882813
1538.84837724034	1801.59997558594
1539.47578958739	1817.80004882813
1540.10312017733	1804.19995117188
1540.73036901765	1806
1541.35753611584	1820.40002441406
1541.98462147939	1806
1542.61162511578	1798.80004882813
1543.2385470325	1799.19995117188
1543.86538723704	1798.80004882813
1544.49214573688	1796.80004882813
1545.11882253951	1803
1545.74541765241	1805.59997558594
1546.37193108306	1788.59997558594
1546.99836283896	1791.59997558594
1547.62471292758	1801.40002441406
1548.25098135641	1801.19995117188
1548.87716813294	1792.80004882813
1549.50327326464	1797.59997558594
1550.12929675899	1789.40002441406
1550.75523862349	1806.59997558594
1551.38109886561	1805.80004882813
1552.00687749284	1813.59997558594
1552.63257451264	1810.80004882813
1553.25818993252	1816.59997558594
1553.88372375994	1809.80004882813
1554.50917600239	1797.40002441406
1555.13454666734	1787.59997558594
1555.75983576228	1771
1556.38504329469	1789
1557.01016927204	1778.40002441406
1557.63521370181	1777.19995117188
1558.26017659149	1783.59997558594
1558.88505794854	1789.40002441406
1559.50985778045	1794.80004882813
1560.13457609469	1769.80004882813
1560.75921289874	1765.19995117188
1561.38376820008	1761.80004882813
1562.00824200618	1769
1562.63263432452	1770.80004882813
1563.25694516257	1776.40002441406
1563.88117452781	1774.19995117188
1564.50532242772	1787
1565.12938886976	1768.80004882813
1565.75337386141	1764
1566.37727741015	1774.80004882813
1567.00109952345	1762.19995117188
1567.62484020878	1780.40002441406
1568.24849947361	1766.19995117188
1568.87207732542	1786.19995117188
1569.49557377168	1784.40002441406
1570.11898881986	1783
1570.74232247743	1789.59997558594
1571.36557475186	1795
1571.98874565062	1810.40002441406
1572.61183518119	1813.80004882813
1573.23484335103	1811.59997558594
1573.85777016761	1839
1574.4806156384	1839.80004882813
1575.10337977088	1857.19995117188
1575.7260625725	1839.40002441406
1576.34866405074	1841.80004882813
1576.97118421306	1852.19995117188
1577.59362306694	1844.40002441406
1578.21598061984	1857.40002441406
1578.83825687922	1850.40002441406
1579.46045185255	1845
1580.08256554731	1841
1580.70459797094	1820.59997558594
1581.32654913093	1805.40002441406
1581.94841903473	1819.59997558594
1582.57020768981	1789.80004882813
1583.19191510364	1775.59997558594
1583.81354128367	1772.59997558594
1584.43508623737	1761.19995117188
1585.05654997221	1774.80004882813
1585.67793249564	1751.80004882813
1586.29923381514	1745.80004882813
1586.92045393815	1733.59997558594
1587.54159287216	1735.19995117188
1588.1626506246	1714.80004882813
1588.78362720296	1721.19995117188
1589.40452261468	1721.19995117188
1590.02533686724	1720.59997558594
1590.64606996808	1721.40002441406
1591.26672192467	1724.59997558594
1591.88729274447	1708.80004882813
1592.50778243493	1717.80004882813
1593.12819100352	1706.40002441406
1593.7485184577	1715.80004882813
1594.36876480492	1699.80004882813
1594.98893005264	1689.80004882813
1595.60901420832	1692.40002441406
1596.22901727941	1700
1596.84893927338	1690.80004882813
1597.46878019767	1708.40002441406
1598.08854005975	1723.40002441406
1598.70821886707	1735.80004882813
1599.32781662708	1749.19995117188
1599.94733334725	1774.40002441406
1600.56676903502	1762.40002441406
1601.18612369785	1761.40002441406
1601.8053973432	1745.59997558594
1602.42458997851	1742.80004882813
1603.04370161124	1709.59997558594
1603.66273224884	1708
1604.28168189878	1714.59997558594
1604.90055056849	1704.40002441406
1605.51933826543	1707.40002441406
1606.13804499705	1709
1606.75667077081	1693
1607.37521559415	1706.59997558594
1607.99367947452	1689
1608.61206241938	1694.40002441406
1609.23036443618	1693.59997558594
1609.84858553236	1688
1610.46672571537	1683.59997558594
1611.08478499267	1694.40002441406
1611.7027633717	1703
1612.3206608599	1699.80004882813
1612.93847746473	1688.19995117188
1613.55621319364	1686
1614.17386805407	1681.80004882813
1614.79144205347	1670.40002441406
1615.40893519928	1670
1616.02634749895	1651.40002441406
1616.64367895993	1652
1617.26092958966	1642.59997558594
1617.87809939559	1657.40002441406
1618.49518838516	1654.80004882813
1619.11219656582	1661.19995117188
1619.729123945	1655.80004882813
1620.34597053016	1653
1620.96273632874	1652.40002441406
1621.57942134818	1656.40002441406
1622.19602559592	1657.19995117188
1622.8125490794	1660
1623.42899180607	1656.40002441406
1624.04535378337	1648
1624.66163501874	1662.59997558594
1625.27783551963	1657.19995117188
1625.89395529346	1646.80004882813
1626.50999434768	1647
1627.12595268974	1659.59997558594
1627.74183032707	1642.19995117188
1628.3576272671	1651.40002441406
1628.97334351729	1634.19995117188
1629.58897908506	1622.40002441406
1630.20453397786	1621
1630.82000820313	1629.19995117188
1631.43540176829	1640.19995117188
1632.05071468079	1645.80004882813
1632.66594694807	1660
1633.28109857756	1672
1633.8961695767	1672.80004882813
1634.51115995292	1657.19995117188
1635.12606971366	1665.80004882813
1635.74089886636	1647.80004882813
1636.35564741844	1647
1636.97031537734	1654.19995117188
1637.58490275051	1648.19995117188
1638.19940954536	1662
1638.81383576934	1673.19995117188
1639.42818142987	1669.80004882813
1640.0424465344	1682.40002441406
1640.65663109034	1690.19995117188
1641.27073510515	1709
1641.88475858623	1703
1642.49870154104	1710.40002441406
1643.11256397699	1697.80004882813
1643.72634590152	1702.19995117188
1644.34004732206	1702.80004882813
1644.95366824604	1696.80004882813
1645.56720868089	1699.59997558594
1646.18066863404	1698.19995117188
1646.79404811291	1712.40002441406
1647.40734712494	1707.59997558594
1648.02056567755	1694
1648.63370377817	1705.19995117188
1649.24676143423	1723.80004882813
1649.85973865316	1708.80004882813
1650.47263544238	1724.80004882813
1651.08545180932	1729.40002441406
1651.6981877614	1732.80004882813
1652.31084330606	1714
1652.92341845071	1714.19995117188
1653.53591320278	1705.19995117188
1654.1483275697	1689.19995117188
1654.7606615589	1678.40002441406
1655.37291517778	1680.59997558594
1655.98508843379	1674.80004882813
1656.59718133434	1659.19995117188
1657.20919388685	1662.80004882813
1657.82112609875	1655.59997558594
1658.43297797747	1656.40002441406
1659.04474953041	1633.59997558594
1659.65644076501	1641.59997558594
1660.26805168869	1634.40002441406
1660.87958230886	1614.19995117188
1661.49103263294	1611.19995117188
1662.10240266837	1608
1662.71369242255	1605.19995117188
1663.32490190291	1620
1663.93603111687	1614.59997558594
1664.54708007184	1613.80004882813
1665.15804877524	1611.19995117188
1665.7689372345	1615
1666.37974545703	1616
1666.99047345024	1616.19995117188
1667.60112122156	1602.40002441406
1668.2116887784	1597.40002441406
1668.82217612818	1577.80004882813
1669.43258327831	1571.59997558594
1670.04291023622	1550.80004882813
1670.65315700931	1532.59997558594
1671.263323605	1534
1671.8734100307	1514.59997558594
1672.48341629384	1512
1673.09334240182	1508
1673.70318836206	1511.80004882813
1674.31295418197	1503.59997558594
1674.92263986896	1502.19995117188
1675.53224543046	1507.40002441406
1676.14177087386	1508
1676.75121620658	1510
1677.36058143604	1513.80004882813
1677.96986656964	1518.80004882813
1678.5790716148	1534.80004882813
1679.18819657892	1530.40002441406
1679.79724146943	1548.59997558594
1680.40620629372	1543.59997558594
1681.0150910592	1556
1681.6238957733	1563.59997558594
1682.23262044341	1555.80004882813
1682.84126507694	1566
1683.4498296813	1565.40002441406
1684.0583142639	1549.19995117188
1684.66671883216	1560.40002441406
1685.27504339346	1564.59997558594
1685.88328795523	1545.80004882813
1686.49145252487	1537.40002441406
1687.09953710978	1527
1687.70754171737	1538.40002441406
1688.31546635505	1540
1688.92331103021	1533.40002441406
1689.53107575028	1550.40002441406
1690.13876052265	1544.80004882813
1690.74636535472	1548.40002441406
1691.3538902539	1545
1691.96133522759	1534
1692.5687002832	1521
1693.17598542812	1515.59997558594
1693.78319066977	1509.59997558594
1694.39031601554	1520.40002441406
1694.99736147283	1510.59997558594
1695.60432704905	1515.19995117188
1696.2112127516	1533.19995117188
1696.81801858788	1537.40002441406
1697.42474456528	1550.19995117188
1698.03139069121	1544.19995117188
1698.63795697307	1547
1699.24444341826	1541
1699.85085003417	1518.19995117188
1700.45717682821	1517.40002441406
1701.06342380778	1527.19995117188
1701.66959098026	1511
1702.27567835307	1518.19995117188
1702.88168593359	1517.59997558594
1703.48761372922	1508.59997558594
1704.09346174737	1515.80004882813
1704.69922999542	1510.19995117188
1705.30491848077	1496.40002441406
1705.91052721083	1501
1706.51605619297	1493.80004882813
1707.12150543461	1494
1707.72687494312	1469
1708.33216472592	1475.80004882813
1708.93737479039	1459.40002441406
1709.54250514392	1465.59997558594
