634.977642221345	1746.80004882813
635.719821695905	1755.19995117188
636.461909203392	1740
637.203904751776	1734
637.945808349023	1751.80004882813
638.687620003102	1763
639.42933972198	1767.40002441406
640.170967513616	1763.19995117188
640.912503385981	1761
641.653947347041	1763
642.395299404758	1756.59997558594
643.13655956709	1755.59997558594
643.877727842014	1742.19995117188
644.61880423748	1733.80004882813
645.359788761455	1701.59997558594
646.100681421905	1723.19995117188
646.841482226789	1733.80004882813
647.582191184074	1734.19995117188
648.322808301711	1735.40002441406
649.06333358767	1722
649.803767049909	1714.19995117188
650.544108696385	1739.80004882813
651.28435853506	1750.40002441406
652.024516573894	1765.19995117188
652.764582820849	1765
653.504557283875	1779.80004882813
654.244439970937	1789.59997558594
654.984230889991	1786.80004882813
655.723930048995	1792.59997558594
656.463537455909	1806.40002441406
657.203053118683	1796.40002441406
657.942477045275	1814.40002441406
658.681809243647	1802.40002441406
659.421049721747	1787.19995117188
660.160198487535	1787.19995117188
660.899255548962	1785.19995117188
661.638220913985	1799.80004882813
662.377094590559	1796.80004882813
663.115876586631	1800.19995117188
663.854566910165	1804.40002441406
664.593165569107	1800.80004882813
665.331672571406	1792
666.07008792502	1795.19995117188
666.808411637902	1780
667.546643717996	1766.80004882813
668.284784173258	1767.80004882813
669.022833011641	1760.40002441406
669.760790241089	1763.80004882813
670.498655869554	1749.59997558594
671.236429904987	1747.59997558594
671.97411235534	1735
672.711703228551	1766
673.449202532577	1765
674.186610275364	1796
674.923926464857	1812
675.661151109008	1816.40002441406
676.398284215759	1804.59997558594
677.135325793058	1806.19995117188
677.87227584885	1801.59997558594
678.609134391082	1827.40002441406
679.345901427696	1841.59997558594
680.082576966644	1822
680.819161015861	1827.19995117188
681.555653583298	1829.40002441406
682.292054676895	1824.19995117188
683.028364304594	1814.80004882813
683.764582474344	1800.40002441406
684.500709194083	1795.59997558594
685.236744471752	1788
685.972688315294	1791.59997558594
686.708540732652	1806.59997558594
687.444301731762	1793
688.179971320572	1800
688.915549507013	1808.40002441406
689.651036299034	1780.59997558594
690.386431704569	1777.19995117188
691.121735731559	1777
691.85694838794	1773.19995117188
692.592069681652	1760.59997558594
693.327099620632	1757.80004882813
694.062038212821	1747.80004882813
694.796885466149	1749.19995117188
695.531641388561	1785.80004882813
696.266305987987	1807.80004882813
697.000879272367	1812.80004882813
697.735361249632	1829.40002441406
698.469751927722	1832.19995117188
699.204051314568	1830.19995117188
699.938259418107	1813
700.672376246272	1815.59997558594
701.406401806997	1835.40002441406
702.140336108212	1815.80004882813
702.874179157855	1818.19995117188
703.607930963856	1815
704.341591534147	1826.80004882813
705.07516087666	1810.40002441406
705.808638999324	1815.80004882813
706.542025910073	1828.19995117188
707.275321616841	1835.80004882813
708.008526127549	1840.59997558594
708.741639450132	1810
709.474661592521	1818.19995117188
710.207592562641	1815.19995117188
710.940432368424	1822.59997558594
711.673181017796	1827.80004882813
712.405838518687	1826.80004882813
713.138404879025	1814.59997558594
713.870880106731	1803.80004882813
714.603264209738	1801
715.335557195971	1827.80004882813
716.067759073357	1832.80004882813
716.799869849816	1825.59997558594
717.531889533281	1826.19995117188
718.263818131673	1837.40002441406
718.995655652917	1829.59997558594
719.727402104934	1848.40002441406
720.45905749565	1838.80004882813
721.19062183299	1836.80004882813
721.922095124877	1826.80004882813
722.653477379231	1824
723.384768603973	1823
724.11596880703	1822
724.847077996319	1799.40002441406
725.578096179762	1805
726.309023365281	1820.59997558594
727.039859560792	1829.59997558594
727.770604774222	1812.80004882813
728.501259013484	1797.40002441406
729.231822286501	1809.59997558594
729.962294601191	1817
730.692675965469	1808.40002441406
731.42296638726	1789.80004882813
732.153165874472	1812.59997558594
732.883274435032	1821.40002441406
733.613292076851	1839.80004882813
734.343218807843	1850.80004882813
735.07305463593	1848.40002441406
735.802799569028	1842.80004882813
736.532453615048	1817.80004882813
737.262016781904	1815
737.991489077517	1814.59997558594
738.720870509794	1820.40002441406
739.450161086654	1811
740.179360816009	1817.40002441406
740.908469705772	1828.59997558594
741.637487763854	1853.19995117188
742.366414998168	1859.59997558594
743.095251416623	1851
743.823997027137	1870.80004882813
744.552651837618	1865.59997558594
745.281215855978	1868.40002441406
746.009689090124	1869.80004882813
746.738071547964	1849.40002441406
747.466363237419	1828
748.194564166384	1835.19995117188
748.92267434278	1821.80004882813
749.650693774504	1829.19995117188
750.378622469476	1828
751.106460435596	1847.40002441406
751.834207680771	1838.80004882813
752.561864212909	1832.40002441406
753.289430039919	1841.40002441406
754.016905169707	1842.19995117188
754.744289610175	1831.80004882813
755.471583369231	1820.40002441406
756.198786454782	1830.19995117188
756.925898874728	1826.40002441406
757.652920636979	1831.19995117188
758.379851749433	1820.40002441406
759.106692219996	1835.19995117188
759.833442056572	1834
760.560101267063	1869.40002441406
761.28666985937	1879.59997558594
762.0131478414	1882.59997558594
762.739535221046	1871.59997558594
763.465832006219	1884.19995117188
764.192038204812	1880.40002441406
764.918153824731	1900.19995117188
765.644178873872	1902.19995117188
766.370113360138	1923.40002441406
767.095957291425	1919.19995117188
767.821710675635	1921.80004882813
768.547373520665	1929.80004882813
769.272945834415	1966.19995117188
769.998427624781	1972.59997558594
770.723818899658	2009.80004882813
771.449119666949	2004.40002441406
772.174329934546	2030.80004882813
772.899449710347	2030.59997558594
773.624479002248	2037.19995117188
774.349417818145	2043.19995117188
775.074266165934	2035.80004882813
775.799024053505	2027.19995117188
776.523691488757	2029
777.248268479582	2021.40002441406
777.972755033877	1988
778.69715115953	1949
779.421456864441	1939.80004882813
780.145672156493	1919.80004882813
780.869797043587	1914.59997558594
781.593831533611	1907.40002441406
782.317775634457	1904.19995117188
783.041629354012	1896.19995117188
783.765392700174	1885.19995117188
784.489065680828	1872.80004882813
785.212648303866	1870.59997558594
785.936140577177	1867.59997558594
786.659542508652	1855.80004882813
787.382854106174	1852.59997558594
788.106075377639	1856.80004882813
788.829206330928	1876.59997558594
789.552246973933	1879
790.275197314542	1872.40002441406
790.998057360638	1870.80004882813
791.720827120108	1866
792.443506600841	1860.59997558594
793.166095810722	1854.40002441406
793.888594757635	1842
794.611003449465	1853.59997558594
795.333321894098	1856.59997558594
796.055550099417	1846.40002441406
796.777688073308	1870.80004882813
797.499735823654	1852.40002441406
798.221693358334	1843.40002441406
798.943560685235	1831.59997558594
799.665337812239	1820
800.387024747226	1827.19995117188
801.108621498075	1833.19995117188
801.830128072674	1847.80004882813
802.551544478902	1862.59997558594
803.272870724636	1869.19995117188
803.994106817761	1870.19995117188
804.715252766148	1867.40002441406
805.436308577687	1857.59997558594
806.157274260251	1836
806.878149821721	1837.40002441406
807.598935269973	1834.19995117188
808.319630612886	1833.80004882813
809.040235858336	1819.19995117188
809.760751014202	1834.80004882813
810.481176088361	1848.19995117188
811.201511088685	1846.80004882813
811.921756023059	1849.80004882813
812.641910899347	1824.59997558594
813.361975725432	1836.80004882813
814.081950509188	1829.19995117188
814.801835258489	1826.80004882813
815.521629981206	1810
816.241334685218	1804.19995117188
816.960949378392	1791.40002441406
817.680474068606	1810.40002441406
818.399908763731	1821.80004882813
819.11925347164	1829.80004882813
819.838508200202	1821.59997558594
820.55767295729	1834
821.276747750778	1828
821.995732588531	1836.80004882813
822.714627478425	1825.40002441406
823.433432428327	1835.19995117188
824.152147446105	1838.59997558594
824.870772539632	1844.80004882813
825.589307716775	1841
826.307752985404	1844
827.026108353378	1854.80004882813
827.744373828579	1848.80004882813
828.462549418867	1852
829.180635132107	1852.80004882813
829.898630976168	1856.59997558594
830.616536958915	1874.80004882813
831.334353088218	1864
832.052079371938	1869.80004882813
832.769715817942	1860.40002441406
833.487262434092	1864
834.204719228255	1869
834.922086208293	1838.19995117188
835.639363382073	1863.40002441406
836.356550757456	1839
837.073648342304	1855.80004882813
837.790656144484	1839.19995117188
838.507574171847	1854.19995117188
839.22440243227	1852.40002441406
839.941140933601	1844.40002441406
840.657789683706	1841.80004882813
841.374348690448	1848
842.090817961686	1853.59997558594
842.807197505276	1871
843.523487329083	1863.80004882813
844.23968744096	1869.19995117188
844.955797848771	1855.40002441406
845.671818560374	1852.40002441406
846.387749583622	1835
847.103590926378	1848
847.819342596497	1824.40002441406
848.535004601833	1830
849.25057695025	1834.19995117188
849.966059649598	1816.59997558594
850.681452707735	1813.59997558594
851.396756132513	1797.59997558594
852.111969931789	1803.80004882813
852.827094113419	1809.40002441406
853.542128685257	1802.40002441406
854.257073655158	1814.40002441406
854.971929030969	1822.19995117188
855.686694820551	1827
856.40137103175	1818.40002441406
857.115957672423	1825.80004882813
857.830454750423	1825.19995117188
858.544862273597	1826
859.259180249797	1820.80004882813
859.97340868688	1829
860.687547592688	1852.80004882813
861.401596975075	1860.40002441406
862.115556841891	1874.19995117188
862.829427200985	1859.80004882813
863.543208060205	1868.80004882813
864.256899427402	1853.80004882813
864.970501310423	1850.40002441406
865.684013717114	1827.19995117188
866.397436655325	1837.59997558594
867.110770132901	1842.19995117188
867.824014157691	1827.80004882813
868.537168737542	1823.19995117188
869.250233880299	1821.19995117188
869.963209593803	1843
870.676095885902	1842
871.388892764445	1839.80004882813
872.101600237276	1863.59997558594
872.814218312233	1848
873.526746997165	1833.40002441406
874.239186299914	1844.19995117188
874.951536228323	1848.40002441406
875.663796790231	1828.19995117188
876.375967993487	1830.40002441406
877.088049845928	1819.80004882813
877.8000423554	1817.59997558594
878.511945529739	1806.19995117188
879.22375937679	1794.40002441406
879.935483904388	1790.59997558594
880.64711912038	1800.80004882813
881.358665032604	1808.40002441406
882.070121648892	1803
882.78148897709	1811.80004882813
883.492767025039	1814.19995117188
884.203955800571	1805.59997558594
884.915055311525	1812.19995117188
885.626065565741	1819.19995117188
886.336986571053	1826.19995117188
887.047818335298	1809.80004882813
887.758560866315	1809
888.469214171937	1801
889.179778260005	1831.80004882813
889.890253138347	1816
890.600638814803	1804
891.310935297204	1791.59997558594
892.021142593385	1809.59997558594
892.731260711183	1812
893.441289658429	1813.40002441406
894.15122944295	1814.40002441406
894.861080072591	1801.80004882813
895.570841555173	1815.19995117188
896.280513898534	1836.59997558594
896.990097110503	1834
897.699591198913	1812.59997558594
898.408996171595	1836.40002441406
899.118312036375	1830.40002441406
899.827538801089	1835.19995117188
900.536676473561	1828.40002441406
901.245725061628	1814
901.954684573109	1832.19995117188
902.663555015838	1852.80004882813
903.372336397644	1856.40002441406
904.081028726351	1849.19995117188
904.789632009793	1859.80004882813
905.49814625579	1867
906.20657147217	1872.80004882813
906.914907666765	1868.80004882813
907.623154847391	1834.80004882813
908.331313021885	1854.19995117188
909.039382198064	1833.40002441406
909.747362383754	1828.59997558594
910.455253586782	1817.80004882813
911.163055814972	1840.19995117188
911.870769076143	1816.59997558594
912.578393378126	1815.40002441406
913.285928728738	1814.19995117188
913.993375135802	1811.59997558594
914.700732607145	1810
915.408001150579	1826.80004882813
916.115180773937	1834.40002441406
916.822271485037	1844.80004882813
917.529273291693	1836
918.236186201733	1831.19995117188
918.943010222971	1836.19995117188
919.649745363234	1837.19995117188
920.356391630333	1812.40002441406
921.062949032096	1823.59997558594
921.769417576333	1812.40002441406
922.475797270864	1821.80004882813
923.182088123512	1839.80004882813
923.888290142089	1831.19995117188
924.594403334414	1835.40002441406
925.300427708304	1847
926.006363271572	1832.19995117188
926.712210032039	1847.59997558594
927.417967997522	1846.19995117188
928.123637175827	1845.40002441406
928.829217574776	1836.80004882813
929.534709202184	1855.40002441406
930.240112065859	1849
930.945426173621	1829.80004882813
931.650651533283	1830.40002441406
932.355788152653	1831.19995117188
933.060836039547	1832
933.765795201776	1832.59997558594
934.470665647153	1820.40002441406
935.175447383492	1824.59997558594
935.880140418599	1811.80004882813
936.584744760286	1799.40002441406
937.289260416366	1801
937.993687394647	1816
938.698025702939	1814.19995117188
939.402275349051	1831.40002441406
940.106436340793	1841.80004882813
940.810508685976	1829
941.5144923924	1828.59997558594
942.21838746788	1832.80004882813
942.922193920223	1811.40002441406
943.625911757231	1820.40002441406
944.329540986716	1805.80004882813
945.033081616484	1812.59997558594
945.736533654334	1787.59997558594
946.439897108083	1782.19995117188
947.143171985529	1790
947.846358294477	1775.40002441406
948.549456042732	1785.80004882813
949.2524652381	1784.40002441406
949.955385888382	1797.80004882813
950.658218001384	1777
951.360961584907	1798.40002441406
952.063616646755	1792
952.766183194733	1799.80004882813
953.468661236636	1825.40002441406
954.171050780271	1813.19995117188
954.873351833437	1815.80004882813
955.575564403935	1813.80004882813
956.277688499565	1809.40002441406
956.97972412813	1812.59997558594
957.681671297424	1808.59997558594
958.383530015255	1815.80004882813
959.085300289414	1807
959.786982127703	1810
960.488575537918	1802.19995117188
961.190080527859	1787.59997558594
961.891497105327	1799
962.592825278111	1775.19995117188
963.294065054012	1791
963.995216440829	1797
964.696279446353	1807.80004882813
965.397254078383	1807.59997558594
966.098140344714	1811.59997558594
966.798938253139	1814
967.499647811456	1806.19995117188
968.200269027458	1790.19995117188
968.900801908937	1793.59997558594
969.601246463685	1780.80004882813
970.3016026995	1789.80004882813
971.001870624169	1764.19995117188
971.702050245491	1778.19995117188
972.402141571249	1754.19995117188
973.102144609245	1753
973.802059367267	1757.80004882813
974.501885853103	1759.80004882813
975.201624074541	1759.19995117188
975.901274039379	1776.59997558594
976.600835755399	1784.19995117188
977.3003092304	1793
977.999694472158	1793.19995117188
978.698991488473	1785.19995117188
979.39820028713	1793
980.097320875915	1793
980.796353262618	1796.19995117188
981.495297455024	1811.40002441406
982.194153460919	1810.80004882813
982.892921288093	1799.19995117188
983.591600944331	1812.40002441406
984.290192437419	1820
984.98869577514	1812.40002441406
985.687110965282	1807.80004882813
986.385438015629	1798.19995117188
987.083676933961	1795.80004882813
987.781827728069	1774.19995117188
988.479890405732	1775.19995117188
989.177864974732	1795.19995117188
989.875751442857	1779.40002441406
990.573549817888	1794.40002441406
991.271260107602	1801.80004882813
991.968882319786	1810.80004882813
992.666416462217	1821.80004882813
993.363862542681	1782
994.061220568959	1794.59997558594
994.758490548823	1778.19995117188
995.455672490061	1781.40002441406
996.152766400451	1775
996.849772287773	1783
997.5466901598	1787.80004882813
998.243520024317	1794.59997558594
998.940261889097	1774.19995117188
999.636915761923	1763.80004882813
1000.33348165057	1761.40002441406
1001.02995956281	1749
1001.72634950643	1761
1002.42265148919	1751.59997558594
1003.11886551889	1754.40002441406
1003.81499160328	1768.80004882813
1004.51102975015	1771.40002441406
1005.20697996727	1780.40002441406
1005.90284226242	1791.19995117188
1006.59861664337	1768.40002441406
1007.2943031179	1787.59997558594
1007.98990169377	1780.19995117188
1008.68541237876	1792.40002441406
1009.38083518064	1790.59997558594
1010.07617010719	1816
1010.77141716617	1816
1011.46657636536	1831
1012.16164771253	1820.19995117188
1012.85663121546	1816.80004882813
1013.5515268819	1804.80004882813
1014.24633471963	1790.80004882813
1014.94105473642	1771.40002441406
1015.63568694004	1775
1016.33023133826	1780.40002441406
1017.02468793885	1772.40002441406
1017.71905674957	1769.40002441406
1018.41333777819	1794
1019.10753103249	1779.80004882813
1019.80163652022	1774.59997558594
1020.49565424916	1800
1021.18958422707	1787
1021.88342646171	1777.59997558594
1022.57718096085	1788.19995117188
1023.27084773227	1799.80004882813
1023.96442678371	1784.19995117188
1024.65791812296	1774.59997558594
1025.35132175776	1766.59997558594
1026.04463769589	1751.80004882813
1026.73786594511	1737.59997558594
1027.43100651318	1729.19995117188
1028.12405940786	1746.40002441406
1028.81702463692	1744.19995117188
1029.50990220812	1752.19995117188
1030.20269212921	1739.40002441406
1030.89539440798	1741.59997558594
1031.58800905216	1751.59997558594
1032.28053606952	1749.59997558594
1032.97297546784	1749.19995117188
1033.66532725485	1741.40002441406
1034.35759143832	1745.80004882813
1035.04976802602	1753.59997558594
1035.7418570257	1746.19995117188
1036.43385844511	1759.59997558594
1037.12577229202	1742
1037.81759857419	1741.19995117188
1038.50933729937	1742.19995117188
1039.20098847531	1758.40002441406
1039.89255210978	1764.40002441406
1040.58402821053	1754.40002441406
1041.27541678532	1773.80004882813
1041.96671784191	1748.59997558594
1042.65793138804	1738.80004882813
1043.34905743147	1739.19995117188
1044.04009597996	1750.80004882813
1044.73104704125	1748.19995117188
1045.42191062312	1744
1046.1126867333	1774.40002441406
1046.80337537955	1740.40002441406
1047.49397656962	1747.80004882813
1048.18449031127	1760.19995117188
1048.87491661225	1755.19995117188
1049.5652554803	1763.80004882813
1050.25550692319	1747
1050.94567094865	1765.40002441406
1051.63574756444	1754
1052.32573677832	1768.19995117188
1053.01563859803	1751.80004882813
1053.70545303131	1751.19995117188
1054.39518008592	1747.19995117188
1055.08481976961	1719.40002441406
1055.77437209013	1727.59997558594
1056.46383705522	1731.59997558594
1057.15321467262	1733.80004882813
1057.8425049501	1726.19995117188
1058.53170789539	1726.80004882813
1059.22082351624	1735.59997558594
1059.9098518204	1729.19995117188
1060.59879281561	1734.59997558594
1061.28764650962	1724.80004882813
1061.97641291016	1750
1062.665092025	1768.59997558594
1063.35368386187	1747.80004882813
1064.04218842851	1754.40002441406
1064.73060573268	1719.59997558594
1065.4189357821	1718.40002441406
1066.10717858452	1707.59997558594
1066.7953341477	1707.80004882813
1067.48340247936	1713.19995117188
1068.17138358725	1714
1068.85927747912	1715.40002441406
1069.5470841627	1723
1070.23480364573	1730
1070.92243593595	1744.19995117188
1071.60998104111	1731
1072.29743896894	1734.59997558594
1072.98480972718	1746.40002441406
1073.67209332357	1720.19995117188
1074.35928976585	1735.59997558594
1075.04639906176	1733.19995117188
1075.73342121903	1759.40002441406
1076.42035624541	1742.40002441406
1077.10720414862	1742.40002441406
1077.79396493641	1746.40002441406
1078.48063861651	1744.59997558594
1079.16722519666	1746.59997558594
1079.85372468459	1728
1080.54013708804	1726.59997558594
1081.22646241474	1715.40002441406
1081.91270067243	1720.80004882813
1082.59885186884	1726.19995117188
1083.28491601171	1738.80004882813
1083.97089310877	1755.40002441406
1084.65678316774	1758
1085.34258619637	1776.19995117188
1086.02830220239	1776.80004882813
1086.71393119352	1781.40002441406
1087.39947317751	1775
1088.08492816207	1770.80004882813
1088.77029615495	1758.80004882813
1089.45557716387	1757.59997558594
1090.14077119656	1763.59997558594
1090.82587826075	1763
1091.51089836417	1770.59997558594
1092.19583151456	1766.80004882813
1092.88067771963	1767
1093.56543698712	1749.80004882813
1094.25010932475	1754.80004882813
1094.93469474026	1755
1095.61919324137	1754.19995117188
1096.3036048358	1746
1096.98792953129	1741.80004882813
1097.67216733555	1742.59997558594
1098.35631825632	1721.40002441406
1099.04038230132	1734.59997558594
1099.72435947828	1753
1100.40824979492	1747.19995117188
1101.09205325895	1732.19995117188
1101.77576987812	1720
1102.45939966014	1715
1103.14294261273	1708.19995117188
1103.82639874362	1685.80004882813
1104.50976806054	1689.59997558594
1105.19305057119	1698.40002441406
1105.87624628331	1714.59997558594
1106.55935520461	1710.40002441406
1107.24237734283	1724
1107.92531270566	1726.40002441406
1108.60816130085	1716.59997558594
1109.2909231361	1730.19995117188
1109.97359821914	1733
1110.65618655768	1745.59997558594
1111.33868815946	1774
1112.02110303217	1746.40002441406
1112.70343118355	1754.80004882813
1113.3856726213	1761.19995117188
1114.06782735316	1753.19995117188
1114.74989538683	1742.80004882813
1115.43187673002	1753.40002441406
1116.11377139047	1729
1116.79557937588	1718.19995117188
1117.47730069397	1719.80004882813
1118.15893535245	1721
1118.84048335904	1731
1119.52194472146	1738.40002441406
1120.20331944741	1749.40002441406
1120.88460754462	1724
1121.56580902079	1733
1122.24692388364	1751.59997558594
1122.92795214088	1745.40002441406
1123.60889380022	1759.40002441406
1124.28974886938	1775
1124.97051735606	1794
1125.65119926799	1790
1126.33179461286	1786.19995117188
1127.0123033984	1775.59997558594
1127.6927256323	1771.59997558594
1128.37306132229	1782.40002441406
1129.05331047606	1779.40002441406
1129.73347310134	1773.80004882813
1130.41354920582	1786
1131.09353879722	1770
1131.77344188324	1750
1132.45325847159	1753.59997558594
1133.13298856999	1771.40002441406
1133.81263218612	1767
1134.49218932772	1765.19995117188
1135.17166000247	1758
1135.85104421809	1752.80004882813
1136.53034198227	1736.80004882813
1137.20955330274	1718.40002441406
1137.88867818718	1713.40002441406
1138.56771664331	1712.40002441406
1139.24666867883	1734.59997558594
1139.92553430144	1715.19995117188
1140.60431351885	1728
1141.28300633876	1741
1141.96161276887	1747.59997558594
1142.64013281689	1750.59997558594
1143.31856649051	1756.80004882813
1143.99691379744	1744.19995117188
1144.67517474538	1737.40002441406
1145.35334934203	1737.40002441406
1146.03143759509	1736.80004882813
1146.70943951226	1726.80004882813
1147.38735510125	1704.19995117188
1148.06518436974	1696.40002441406
1148.74292732545	1691.19995117188
1149.42058397606	1703.40002441406
1150.09815432928	1685.19995117188
1150.7756383928	1701.40002441406
1151.45303617432	1683.19995117188
1152.13034768155	1687.59997558594
1152.80757292217	1704.59997558594
1153.48471190389	1711.40002441406
1154.16176463439	1723
1154.83873112138	1716
1155.51561137255	1718
1156.1924053956	1712.40002441406
1156.86911319822	1719
1157.5457347881	1724.40002441406
1158.22227017294	1730.80004882813
1158.89871936044	1742.59997558594
1159.57508235828	1740.59997558594
1160.25135917416	1739.59997558594
1160.92754981578	1716.59997558594
1161.60365429081	1728
1162.27967260697	1740.59997558594
1162.95560477193	1719.80004882813
1163.63145079339	1721.59997558594
1164.30721067904	1734.19995117188
1164.98288443657	1708.80004882813
1165.65847207367	1721.19995117188
1166.33397359803	1725.80004882813
1167.00938901735	1708.59997558594
1167.6847183393	1722.19995117188
1168.35996157157	1720.40002441406
1169.03511872187	1717.59997558594
1169.71018979787	1737.40002441406
1170.38517480726	1736.19995117188
1171.06007375773	1730.80004882813
1171.73488665696	1725
1172.40961351265	1727.59997558594
1173.08425433247	1731.59997558594
1173.75880912412	1723.19995117188
1174.43327789528	1714.80004882813
1175.10766065364	1730.80004882813
1175.78195740687	1744.80004882813
1176.45616816267	1756.40002441406
1177.13029292871	1769.40002441406
1177.80433171269	1762.40002441406
1178.47828452229	1756.80004882813
1179.15215136518	1751
1179.82593224905	1739.59997558594
1180.49962718159	1759.40002441406
1181.17323617047	1762.59997558594
1181.84675922337	1751.80004882813
1182.52019634799	1760.59997558594
1183.193547552	1776.80004882813
1183.86681284307	1782.19995117188
1184.53999222889	1787.59997558594
1185.21308571714	1793.19995117188
1185.8860933155	1785.59997558594
1186.55901503165	1800.59997558594
1187.23185087326	1792
1187.90460084802	1787.80004882813
1188.5772649636	1774.19995117188
1189.24984322768	1761.80004882813
1189.92233564794	1762.40002441406
1190.59474223206	1756.59997558594
1191.2670629877	1761.80004882813
1191.93929792255	1773.40002441406
1192.61144704428	1769.80004882813
1193.28351036058	1777.59997558594
1193.9554878791	1764.80004882813
1194.62737960754	1754
1195.29918555356	1728.80004882813
1195.97090572483	1734
1196.64254012903	1756.19995117188
1197.31408877384	1743.59997558594
1197.98555166693	1738.40002441406
1198.65692881596	1748
1199.32822022862	1732.80004882813
1199.99942591256	1732.19995117188
1200.67054587548	1719
1201.34158012503	1722
1202.01252866889	1733
1202.68339151473	1722.59997558594
1203.35416867021	1716.80004882813
1204.02486014301	1705.40002441406
1204.6954659408	1703.19995117188
1205.36598607124	1720
1206.03642054201	1721.40002441406
1206.70676936078	1721.80004882813
1207.3770325352	1730.80004882813
1208.04721007295	1739.59997558594
1208.7173019817	1710.19995117188
1209.38730826911	1692.19995117188
1210.05722894285	1699.59997558594
1210.72706401059	1704.19995117188
1211.39681347999	1687.59997558594
1212.06647735872	1701.19995117188
1212.73605565444	1705.80004882813
1213.40554837481	1686.19995117188
1214.07495552751	1697.59997558594
1214.74427712019	1696.40002441406
1215.41351316052	1715
1216.08266365617	1717.80004882813
1216.75172861479	1722.40002441406
1217.42070804405	1715.80004882813
1218.0896019516	1718.19995117188
1218.75841034513	1701
1219.42713323227	1697.59997558594
1220.0957706207	1704.80004882813
1220.76432251808	1710.19995117188
1221.43278893207	1707.59997558594
1222.10116987032	1727
1222.7694653405	1714.40002441406
1223.43767535026	1716.59997558594
1224.10579990727	1724
1224.77383901918	1714.19995117188
1225.44179269366	1707.40002441406
1226.10966093835	1702.19995117188
1226.77744376093	1713.80004882813
1227.44514116904	1720.19995117188
1228.11275317034	1710
1228.78027977249	1712.19995117188
1229.44772098315	1707.59997558594
1230.11507680996	1709.19995117188
1230.7823472606	1717.59997558594
1231.44953234271	1710.59997558594
1232.11663206394	1707.80004882813
1232.78364643195	1694
1233.4505754544	1695.80004882813
1234.11741913894	1677.59997558594
1234.78417749322	1677.40002441406
1235.45085052489	1683.80004882813
1236.11743824162	1671.40002441406
1236.78394065104	1661.19995117188
1237.45035776082	1659
1238.1166895786	1676.80004882813
1238.78293611204	1680.59997558594
1239.44909736878	1690
1240.11517335648	1690.19995117188
1240.78116408279	1697.40002441406
1241.44706955535	1704.19995117188
1242.11288978182	1709
1242.77862476985	1722.80004882813
1243.44427452708	1681.19995117188
1244.10983906116	1688.59997558594
1244.77531837974	1685.80004882813
1245.44071249047	1672.59997558594
1246.106021401	1682
1246.77124511898	1688.19995117188
1247.43638365204	1685.19995117188
1248.10143700783	1683.40002441406
1248.76640519401	1685
1249.43128821822	1666.59997558594
1250.0960860881	1671.40002441406
1250.76079881129	1660.40002441406
1251.42542639545	1684.19995117188
1252.08996884822	1675.80004882813
1252.75442617723	1684.19995117188
1253.41879839014	1672.40002441406
1254.08308549458	1689.19995117188
1254.74728749821	1682.19995117188
1255.41140440866	1686.59997558594
1256.07543623357	1681.80004882813
1256.73938298059	1701.59997558594
1257.40324465735	1692.80004882813
1258.0670212715	1665.80004882813
1258.73071283068	1674.59997558594
1259.39431934253	1678
1260.05784081468	1663.40002441406
1260.72127725479	1658.19995117188
1261.38462867049	1648.59997558594
1262.0478950694	1652.59997558594
1262.71107645919	1661.19995117188
1263.37417284748	1654.40002441406
1264.03718424191	1683
1264.70011065011	1684
1265.36295207974	1674.59997558594
1266.02570853841	1669.80004882813
1266.68838003378	1674
1267.35096657346	1650.59997558594
1268.01346816511	1660.59997558594
1268.67588481636	1632.59997558594
1269.33821653483	1637.80004882813
1270.00046332817	1626.80004882813
1270.66262520401	1651.59997558594
1271.32470216998	1663.59997558594
1271.98669423372	1657.40002441406
1272.64860140285	1642.19995117188
1273.31042368503	1652.19995117188
1273.97216108786	1647.19995117188
1274.633813619	1661.40002441406
1275.29538128606	1676
1275.95686409669	1678.40002441406
1276.6182620585	1668.40002441406
1277.27957517914	1668
1277.94080346624	1670.59997558594
1278.60194692741	1661.40002441406
1279.2630055703	1674.19995117188
1279.92397940253	1684.40002441406
1280.58486843173	1691.40002441406
1281.24567266552	1678
1281.90639211155	1672.59997558594
1282.56702677743	1660
1283.2275766708	1661.19995117188
1283.88804179927	1658.80004882813
1284.54842217049	1657
1285.20871779206	1655.40002441406
1285.86892867163	1655.40002441406
1286.52905481681	1673.59997558594
1287.18909623523	1686.59997558594
1287.84905293452	1680
1288.5089249223	1681.59997558594
1289.16871220619	1685.80004882813
1289.82841479383	1670
1290.48803269282	1685.19995117188
1291.1475659108	1687.40002441406
1291.80701445539	1670.40002441406
1292.46637833421	1665.40002441406
1293.12565755489	1668.59997558594
1293.78485212504	1651.19995117188
1294.44396205229	1644.80004882813
1295.10298734425	1625
1295.76192800856	1653
1296.42078405283	1619
1297.07955548467	1620.19995117188
1297.73824231171	1631.80004882813
1298.39684454158	1663
1299.05536218188	1653.80004882813
1299.71379524023	1664.19995117188
1300.37214372427	1667.19995117188
1301.03040764159	1664
1301.68858699983	1648.80004882813
1302.34668180659	1668.80004882813
1303.0046920695	1666
1303.66261779617	1681.40002441406
1304.32045899422	1697.59997558594
1304.97821567126	1696.80004882813
1305.63588783492	1691.80004882813
1306.29347549279	1691
1306.95097865251	1691.59997558594
1307.60839732168	1698.59997558594
1308.26573150791	1691.40002441406
1308.92298121883	1704
1309.58014646204	1701.40002441406
1310.23722724517	1704.40002441406
1310.89422357581	1692.80004882813
1311.55113546158	1682
1312.2079629101	1692.59997558594
1312.86470592898	1701
1313.52136452582	1711.80004882813
1314.17793870824	1724
1314.83442848386	1706.40002441406
1315.49083386027	1714.59997558594
1316.14715484509	1709.19995117188
1316.80339144594	1704.40002441406
1317.45954367041	1698.40002441406
1318.11561152611	1707.40002441406
1318.77159502067	1695.59997558594
1319.42749416168	1706.80004882813
1320.08330895674	1691
1320.73903941348	1698.40002441406
1321.3946855395	1689.80004882813
1322.0502473424	1691.19995117188
1322.70572482978	1679.40002441406
1323.36111800926	1674.40002441406
1324.01642688845	1658.59997558594
1324.67165147494	1660.59997558594
1325.32679177634	1684.19995117188
1325.98184780025	1680.80004882813
1326.63681955429	1671.59997558594
1327.29170704605	1666.80004882813
1327.94651028314	1660.40002441406
1328.60122927316	1654.40002441406
1329.25586402371	1653
1329.9104145424	1662.40002441406
1330.56488083683	1665.80004882813
1331.2192629146	1648.40002441406
1331.87356078331	1651.19995117188
1332.52777445056	1656.80004882813
1333.18190392395	1655.19995117188
1333.83594921109	1660.19995117188
1334.48991031958	1658.59997558594
1335.143787257	1644
1335.79758003097	1632.40002441406
1336.45128864908	1646.80004882813
1337.10491311893	1638.80004882813
1337.75845344813	1654.59997558594
1338.41190964425	1640.19995117188
1339.06528171491	1657.59997558594
1339.71856966771	1630.59997558594
1340.37177351023	1642
1341.02489325007	1639.19995117188
1341.67792889484	1623
1342.33088045212	1622
1342.98374792952	1629
1343.63653133462	1636
1344.28923067503	1640.59997558594
1344.94184595833	1638.19995117188
1345.59437719212	1656
1346.246824384	1649.19995117188
1346.89918754155	1662.80004882813
1347.55146667238	1670.59997558594
1348.20366178407	1687.59997558594
1348.85577288421	1677.19995117188
1349.50779998041	1676.59997558594
1350.15974308024	1687.59997558594
1350.8116021913	1686.80004882813
1351.46337732119	1689.40002441406
1352.11506847748	1680.40002441406
1352.76667566778	1658.19995117188
1353.41819889967	1661.40002441406
1354.06963818074	1665.40002441406
1354.72099351858	1680
1355.37226492079	1686.40002441406
1356.02345239494	1692.59997558594
1356.67455594862	1711.19995117188
1357.32557558943	1726.59997558594
1357.97651132496	1748.80004882813
1358.62736316277	1750.19995117188
1359.27813111048	1768.80004882813
1359.92881517565	1794.80004882813
1360.57941536589	1810.19995117188
1361.22993168876	1816
1361.88036415186	1823.59997558594
1362.53071276278	1815.40002441406
1363.1809775291	1827
1363.8311584584	1836.80004882813
1364.48125555826	1837
1365.13126883627	1832.80004882813
1365.78119830001	1799.19995117188
1366.43104395707	1769
1367.08080581503	1758
1367.73048388147	1732.40002441406
1368.38007816397	1725.80004882813
1369.02958867011	1723.19995117188
1369.67901540748	1726.80004882813
1370.32835838365	1718.19995117188
1370.9776176062	1712.59997558594
1371.62679308273	1713.80004882813
1372.27588482079	1693.80004882813
1372.92489282798	1689.19995117188
1373.57381711188	1712
1374.22265768006	1687
1374.87141454009	1662
1375.52008769957	1654.40002441406
1376.16867716606	1641.40002441406
1376.81718294715	1644.80004882813
1377.4656050504	1635.19995117188
1378.1139434834	1647.19995117188
1378.76219825373	1650.59997558594
1379.41036936895	1657
1380.05845683664	1653.40002441406
1380.70646066439	1651
1381.35438085976	1670.59997558594
1382.00221743032	1659.59997558594
1382.64997038366	1651.59997558594
1383.29763972735	1637.19995117188
1383.94522546895	1644.19995117188
1384.59272761605	1650.80004882813
1385.24014617621	1653.80004882813
1385.88748115701	1659
1386.53473256602	1663.80004882813
1387.18190041081	1644.40002441406
1387.82898469895	1631.19995117188
1388.47598543802	1643.59997558594
1389.12290263558	1624.80004882813
1389.7697362992	1629.59997558594
1390.41648643646	1623.80004882813
1391.06315305492	1606.19995117188
1391.70973616215	1612.40002441406
1392.35623576573	1595
1393.00265187321	1594.80004882813
1393.64898449217	1613.40002441406
1394.29523363018	1612.59997558594
1394.94139929481	1613.40002441406
1395.58748149361	1618.80004882813
1396.23348023415	1605.80004882813
1396.87939552402	1589.40002441406
1397.52522737076	1583.19995117188
1398.17097578195	1580.40002441406
1398.81664076514	1557
1399.46222232792	1550.80004882813
1400.10772047783	1546.40002441406
1400.75313522245	1545.19995117188
1401.39846656934	1552
1402.04371452605	1556
1402.68887910016	1571.40002441406
1403.33396029924	1556.80004882813
1403.97895813083	1572.80004882813
1404.6238726025	1583.40002441406
1405.26870372182	1589.40002441406
1405.91345149634	1605
1406.55811593363	1591.19995117188
1407.20269704125	1601.59997558594
1407.84719482676	1583
1408.49160929772	1578.59997558594
1409.13594046168	1566.80004882813
1409.78018832622	1578
1410.42435289887	1576.59997558594
1411.06843418722	1590.40002441406
1411.7124321988	1579.19995117188
1412.3563469412	1583.40002441406
1413.00017842194	1584.59997558594
1413.64392664861	1597
1414.28759162875	1602.59997558594
1414.93117336992	1603
1415.57467187967	1592.40002441406
1416.21808716557	1581.19995117188
1416.86141923516	1596.80004882813
1417.50466809601	1602.59997558594
1418.14783375567	1594.59997558594
1418.79091622169	1597
1419.43391550162	1593
1420.07683160303	1602.40002441406
1420.71966453346	1608.80004882813
1421.36241430046	1609
1422.0050809116	1608.80004882813
1422.64766437442	1602.80004882813
1423.29016469647	1608
1423.93258188531	1613.19995117188
1424.57491594848	1619.40002441406
1425.21716689354	1611.19995117188
1425.85933472805	1606
1426.50141945954	1601.19995117188
1427.14342109557	1590
1427.78533964369	1591.19995117188
1428.42717511144	1581.59997558594
1429.06892750639	1593.80004882813
1429.71059683607	1568.19995117188
1430.35218310803	1570.19995117188
1430.99368632983	1567.59997558594
1431.635106509	1576.19995117188
1432.2764436531	1581.40002441406
1432.91769776967	1582.80004882813
1433.55886886627	1591.19995117188
1434.19995695043	1602.59997558594
1434.84096202969	1594.19995117188
1435.48188411162	1601.59997558594
1436.12272320375	1590.40002441406
1436.76347931363	1593
1437.40415244879	1596
1438.0447426168	1595.80004882813
1438.68524982518	1585.59997558594
1439.32567408148	1598.59997558594
1439.96601539325	1578.40002441406
1440.60627376803	1581.59997558594
1441.24644921336	1586.40002441406
1441.88654173678	1581.40002441406
1442.52655134583	1582.59997558594
1443.16647804806	1580
1443.806321851	1570.59997558594
1444.4460827622	1568.40002441406
1445.0857607892	1583.40002441406
1445.72535593953	1566.40002441406
1446.36486822074	1571.40002441406
1447.00429764037	1565.19995117188
1447.64364420595	1557
1448.28290792502	1556.19995117188
1448.92208880512	1565.40002441406
1449.56118685379	1566.80004882813
1450.20020207857	1557.40002441406
1450.83913448699	1559.59997558594
1451.47798408659	1560.80004882813
1452.1167508849	1576.59997558594
1452.75543488947	1576.40002441406
1453.39403610782	1571
1454.0325545475	1565.59997558594
1454.67099021603	1570.40002441406
1455.30934312097	1569.80004882813
1455.94761326982	1556.80004882813
1456.58580067014	1554.59997558594
1457.22390532945	1553.80004882813
1457.86192725529	1570.59997558594
1458.49986645519	1565.19995117188
1459.13772293668	1576.19995117188
1459.7754967073	1567.59997558594
1460.41318777457	1574.40002441406
1461.05079614604	1573.59997558594
1461.68832182922	1563.59997558594
1462.32576483166	1553.59997558594
1462.96312516087	1550.19995117188
1463.6004028244	1550.59997558594
1464.23759782977	1555.40002441406
1464.8747101845	1577.80004882813
1465.51173989614	1582
1466.14868697221	1584.59997558594
1466.78555142024	1575
1467.42233324774	1581
1468.05903246227	1572.19995117188
1468.69564907133	1561.59997558594
1469.33218308246	1561.80004882813
1469.96863450317	1564.59997558594
1470.60500334102	1559.40002441406
1471.2412896035	1570.19995117188
1471.87749329816	1588.59997558594
1472.51361443251	1587.59997558594
1473.14965301409	1598.40002441406
1473.78560905041	1593.40002441406
1474.421482549	1588.80004882813
1475.05727351739	1576.80004882813
1475.69298196309	1583.19995117188
1476.32860789364	1600.19995117188
1476.96415131654	1593
1477.59961223934	1594.80004882813
1478.23499066954	1598
1478.87028661467	1597.59997558594
1479.50550008226	1600.80004882813
1480.14063107981	1590.80004882813
1480.77567961486	1575
1481.41064569492	1578
1482.04552932752	1571.59997558594
1482.68033052017	1578.59997558594
1483.31504928039	1560
1483.9496856157	1579.40002441406
1484.58423953363	1563
1485.21871104168	1571
1485.85310014738	1571.19995117188
1486.48740685824	1579
1487.12163118178	1570
1487.75577312553	1573
1488.38983269698	1565.80004882813
1489.02380990367	1577
1489.65770475311	1576.40002441406
1490.29151725281	1579.80004882813
1490.92524741029	1589.59997558594
1491.55889523306	1593.19995117188
1492.19246072863	1578.80004882813
1492.82594390453	1589.40002441406
1493.45934476826	1587.19995117188
1494.09266332734	1590.80004882813
1494.72589958928	1596.59997558594
1495.3590535616	1606
1495.99212525181	1618.19995117188
1496.62511466741	1614.19995117188
1497.25802181592	1616.80004882813
1497.89084670485	1610.40002441406
1498.52358934172	1610.40002441406
1499.15624973403	1615.59997558594
1499.7888278893	1624.19995117188
1500.42132381503	1639.59997558594
1501.05373751873	1649.40002441406
1501.68606900792	1665.80004882813
1502.31831829009	1667.19995117188
1502.95048537277	1691.40002441406
1503.58257026346	1705.59997558594
1504.21457296966	1708
1504.84649349889	1729.19995117188
1505.47833185864	1740.19995117188
1506.11008805644	1731.40002441406
1506.74176209978	1719.59997558594
1507.37335399617	1702.59997558594
1508.00486375312	1716.80004882813
1508.63629137813	1687.80004882813
1509.2676368787	1701.40002441406
1509.89890026235	1689
1510.53008153658	1717.19995117188
1511.16118070889	1710.59997558594
1511.79219778677	1702.40002441406
1512.42313277775	1713.59997558594
1513.05398568932	1683
1513.68475652898	1678.59997558594
1514.31544530424	1669.80004882813
1514.9460520226	1664
1515.57657669155	1657.80004882813
1516.20701931861	1644.59997558594
1516.83737991127	1618.59997558594
1517.46765847702	1607.40002441406
1518.09785502339	1605.80004882813
1518.72796955785	1612.40002441406
1519.35800208792	1604.40002441406
1519.98795262109	1602.59997558594
1520.61782116486	1599.80004882813
1521.24760772673	1598.59997558594
1521.87731231419	1601.80004882813
1522.50693493475	1596.19995117188
1523.1364755959	1594.80004882813
1523.76593430514	1589.59997558594
1524.39531106997	1585
1525.02460589788	1582.80004882813
1525.65381879637	1582.59997558594
1526.28294977293	1579.40002441406
1526.91199883507	1570.19995117188
1527.54096599027	1555.19995117188
1528.16985124603	1558.80004882813
1528.79865460984	1541
1529.4273760892	1557
1530.05601569161	1551.19995117188
1530.68457342455	1574.59997558594
1531.31304929552	1567.59997558594
1531.94144331201	1585.40002441406
1532.56975548151	1591.40002441406
1533.19798581152	1606
1533.82613430953	1594.19995117188
1534.45420098302	1599.80004882813
1535.08218583949	1604
1535.71008888643	1584
1536.33791013134	1575.40002441406
1536.96564958169	1579.59997558594
1537.59330724498	1563.19995117188
1538.22088312871	1572
1538.84837724034	1566.40002441406
1539.47578958739	1558.19995117188
1540.10312017733	1571
1540.73036901765	1549.80004882813
1541.35753611584	1554.19995117188
1541.98462147939	1541.19995117188
1542.61162511578	1543.59997558594
1543.2385470325	1553.19995117188
1543.86538723704	1557.40002441406
1544.49214573688	1540.19995117188
1545.11882253951	1551.59997558594
1545.74541765241	1561.80004882813
1546.37193108306	1545.40002441406
1546.99836283896	1539.59997558594
1547.62471292758	1538.19995117188
1548.25098135641	1547.40002441406
1548.87716813294	1547.80004882813
1549.50327326464	1553.19995117188
1550.12929675899	1555.19995117188
1550.75523862349	1548
1551.38109886561	1563.40002441406
1552.00687749284	1571
1552.63257451264	1565.59997558594
1553.25818993252	1562.59997558594
1553.88372375994	1565.19995117188
1554.50917600239	1545.59997558594
1555.13454666734	1546.80004882813
1555.75983576228	1537.19995117188
1556.38504329469	1529
1557.01016927204	1539.19995117188
1557.63521370181	1551.80004882813
1558.26017659149	1537.59997558594
1558.88505794854	1526.80004882813
1559.50985778045	1537
1560.13457609469	1545.59997558594
1560.75921289874	1543.59997558594
1561.38376820008	1559.80004882813
1562.00824200618	1538
1562.63263432452	1549.19995117188
1563.25694516257	1562
1563.88117452781	1554.19995117188
1564.50532242772	1543.59997558594
1565.12938886976	1543.59997558594
1565.75337386141	1541.40002441406
1566.37727741015	1536
1567.00109952345	1547
1567.62484020878	1545.40002441406
1568.24849947361	1545.80004882813
1568.87207732542	1555.19995117188
1569.49557377168	1559.40002441406
1570.11898881986	1570
1570.74232247743	1561.59997558594
1571.36557475186	1562.59997558594
1571.98874565062	1551
1572.61183518119	1570.80004882813
1573.23484335103	1582.19995117188
1573.85777016761	1586.19995117188
1574.4806156384	1588.40002441406
1575.10337977088	1594.19995117188
1575.7260625725	1586.59997558594
1576.34866405074	1602
1576.97118421306	1594.59997558594
1577.59362306694	1593
1578.21598061984	1603.59997558594
1578.83825687922	1600
1579.46045185255	1599.59997558594
1580.08256554731	1587.80004882813
1580.70459797094	1576.19995117188
1581.32654913093	1585
1581.94841903473	1572.80004882813
1582.57020768981	1562
1583.19191510364	1550.80004882813
1583.81354128367	1536.40002441406
1584.43508623737	1524.80004882813
1585.05654997221	1541.59997558594
1585.67793249564	1520.40002441406
1586.29923381514	1512.40002441406
1586.92045393815	1508
1587.54159287216	1506
1588.1626506246	1493.59997558594
1588.78362720296	1504.19995117188
1589.40452261468	1499.40002441406
1590.02533686724	1496.59997558594
1590.64606996808	1494.59997558594
1591.26672192467	1492.19995117188
1591.88729274447	1487.19995117188
1592.50778243493	1482
1593.12819100352	1476.80004882813
1593.7485184577	1476.19995117188
1594.36876480492	1485.19995117188
1594.98893005264	1462.59997558594
1595.60901420832	1450.40002441406
1596.22901727941	1468.80004882813
1596.84893927338	1477.59997558594
1597.46878019767	1487.40002441406
1598.08854005975	1498.40002441406
1598.70821886707	1500.19995117188
1599.32781662708	1519.59997558594
1599.94733334725	1518.19995117188
1600.56676903502	1527.19995117188
1601.18612369785	1534.80004882813
1601.8053973432	1510.19995117188
1602.42458997851	1502.59997558594
1603.04370161124	1502.80004882813
1603.66273224884	1480.40002441406
1604.28168189878	1470
1604.90055056849	1469.80004882813
1605.51933826543	1482
1606.13804499705	1466.59997558594
1606.75667077081	1468.19995117188
1607.37521559415	1471.80004882813
1607.99367947452	1454
1608.61206241938	1458.80004882813
1609.23036443618	1450.19995117188
1609.84858553236	1458.19995117188
1610.46672571537	1442.40002441406
1611.08478499267	1466.59997558594
1611.7027633717	1461.59997558594
1612.3206608599	1469
1612.93847746473	1468.40002441406
1613.55621319364	1471.40002441406
1614.17386805407	1464.40002441406
1614.79144205347	1468
1615.40893519928	1446
1616.02634749895	1454.19995117188
1616.64367895993	1434.59997558594
1617.26092958966	1438.40002441406
1617.87809939559	1450.59997558594
1618.49518838516	1457.59997558594
1619.11219656582	1458.80004882813
1619.729123945	1441.19995117188
1620.34597053016	1442
1620.96273632874	1439.80004882813
1621.57942134818	1434.80004882813
1622.19602559592	1454.40002441406
1622.8125490794	1452.19995117188
1623.42899180607	1450.40002441406
1624.04535378337	1448.80004882813
1624.66163501874	1444.40002441406
1625.27783551963	1437.40002441406
1625.89395529346	1441.80004882813
1626.50999434768	1430.59997558594
1627.12595268974	1420.40002441406
1627.74183032707	1419.19995117188
1628.3576272671	1418
1628.97334351729	1405.59997558594
1629.58897908506	1404.80004882813
1630.20453397786	1403.80004882813
1630.82000820313	1399.40002441406
1631.43540176829	1407.19995117188
1632.05071468079	1409.80004882813
1632.66594694807	1414.59997558594
1633.28109857756	1430.40002441406
1633.8961695767	1435.19995117188
1634.51115995292	1434.19995117188
1635.12606971366	1433.19995117188
1635.74089886636	1443.40002441406
1636.35564741844	1438.40002441406
1636.97031537734	1439
1637.58490275051	1447
1638.19940954536	1463.59997558594
1638.81383576934	1454.19995117188
1639.42818142987	1455.59997558594
1640.0424465344	1477
1640.65663109034	1466.80004882813
1641.27073510515	1495.19995117188
1641.88475858623	1489.59997558594
1642.49870154104	1483.80004882813
1643.11256397699	1486.40002441406
1643.72634590152	1494
1644.34004732206	1491
1644.95366824604	1490.80004882813
1645.56720868089	1490
1646.18066863404	1490.59997558594
1646.79404811291	1511.40002441406
1647.40734712494	1504.59997558594
1648.02056567755	1509.40002441406
1648.63370377817	1503
1649.24676143423	1512.59997558594
1649.85973865316	1510.19995117188
1650.47263544238	1511.40002441406
1651.08545180932	1540.80004882813
1651.6981877614	1536.80004882813
1652.31084330606	1523.19995117188
1652.92341845071	1521.80004882813
1653.53591320278	1507.80004882813
1654.1483275697	1491.59997558594
1654.7606615589	1491.40002441406
1655.37291517778	1474
1655.98508843379	1466.59997558594
1656.59718133434	1461.19995117188
1657.20919388685	1447.19995117188
1657.82112609875	1451.40002441406
1658.43297797747	1443.59997558594
1659.04474953041	1434.40002441406
1659.65644076501	1428.80004882813
1660.26805168869	1424.59997558594
1660.87958230886	1413
1661.49103263294	1413
1662.10240266837	1414
1662.71369242255	1418.40002441406
1663.32490190291	1415.59997558594
1663.93603111687	1426.40002441406
1664.54708007184	1419.40002441406
1665.15804877524	1418.40002441406
1665.7689372345	1414.80004882813
1666.37974545703	1413
1666.99047345024	1405.40002441406
1667.60112122156	1408.40002441406
1668.2116887784	1400
1668.82217612818	1394.80004882813
1669.43258327831	1386
1670.04291023622	1382.80004882813
1670.65315700931	1366
1671.263323605	1359.19995117188
1671.8734100307	1353.80004882813
1672.48341629384	1341.80004882813
1673.09334240182	1347
1673.70318836206	1341.19995117188
1674.31295418197	1332.19995117188
1674.92263986896	1342.40002441406
1675.53224543046	1326
1676.14177087386	1322.40002441406
1676.75121620658	1322.80004882813
1677.36058143604	1336.40002441406
1677.96986656964	1335.59997558594
1678.5790716148	1337
1679.18819657892	1343.59997558594
1679.79724146943	1340.40002441406
1680.40620629372	1354.59997558594
1681.0150910592	1358.80004882813
1681.6238957733	1371.80004882813
1682.23262044341	1356.40002441406
1682.84126507694	1363.19995117188
1683.4498296813	1367.40002441406
1684.0583142639	1374.40002441406
1684.66671883216	1367.40002441406
1685.27504339346	1353.80004882813
1685.88328795523	1359.40002441406
1686.49145252487	1351.80004882813
1687.09953710978	1346.59997558594
1687.70754171737	1351.59997558594
1688.31546635505	1357.40002441406
1688.92331103021	1361.59997558594
1689.53107575028	1371.59997558594
1690.13876052265	1367.80004882813
1690.74636535472	1369
1691.3538902539	1354.59997558594
1691.96133522759	1357.80004882813
1692.5687002832	1348
1693.17598542812	1353.59997558594
1693.78319066977	1333.59997558594
1694.39031601554	1350
1694.99736147283	1336
1695.60432704905	1356.19995117188
1696.2112127516	1355.40002441406
1696.81801858788	1377.40002441406
1697.42474456528	1371.40002441406
1698.03139069121	1375.80004882813
1698.63795697307	1358.59997558594
1699.24444341826	1367.80004882813
1699.85085003417	1348
1700.45717682821	1353
1701.06342380778	1347
1701.66959098026	1345.59997558594
1702.27567835307	1348.80004882813
1702.88168593359	1349.40002441406
1703.48761372922	1330.19995117188
1704.09346174737	1330
1704.69922999542	1332.80004882813
1705.30491848077	1326
1705.91052721083	1319.80004882813
1706.51605619297	1322.80004882813
1707.12150543461	1329
1707.72687494312	1309.59997558594
1708.33216472592	1305
1708.93737479039	1307.40002441406
1709.54250514392	1304.19995117188
