634.977642221345	2665.80004882813
635.719821695905	2655.80004882813
636.461909203392	2653.60009765625
637.203904751776	2658.60009765625
637.945808349023	2667
638.687620003102	2695.60009765625
639.42933972198	2709.19995117188
640.170967513616	2723.19995117188
640.912503385981	2704.19995117188
641.653947347041	2709.19995117188
642.395299404758	2684.80004882813
643.13655956709	2662.19995117188
643.877727842014	2641
644.61880423748	2615.80004882813
645.359788761455	2606.60009765625
646.100681421905	2615.60009765625
646.841482226789	2659.19995117188
647.582191184074	2696
648.322808301711	2690.19995117188
649.06333358767	2661
649.803767049909	2645.19995117188
650.544108696385	2662.19995117188
651.28435853506	2685.80004882813
652.024516573894	2696.60009765625
652.764582820849	2731
653.504557283875	2729.19995117188
654.244439970937	2774.19995117188
654.984230889991	2771.39990234375
655.723930048995	2812.19995117188
656.463537455909	2792.80004882813
657.203053118683	2821.80004882813
657.942477045275	2813.19995117188
658.681809243647	2831
659.421049721747	2834.39990234375
660.160198487535	2819.19995117188
660.899255548962	2826.39990234375
661.638220913985	2817.19995117188
662.377094590559	2795.19995117188
663.115876586631	2785.80004882813
663.854566910165	2803.19995117188
664.593165569107	2803.60009765625
665.331672571406	2802.19995117188
666.07008792502	2784.80004882813
666.808411637902	2768
667.546643717996	2751.60009765625
668.284784173258	2744.39990234375
669.022833011641	2751.80004882813
669.760790241089	2759.39990234375
670.498655869554	2749
671.236429904987	2726.39990234375
671.97411235534	2719.80004882813
672.711703228551	2736.80004882813
673.449202532577	2741.19995117188
674.186610275364	2784
674.923926464857	2807.19995117188
675.661151109008	2818.80004882813
676.398284215759	2824.80004882813
677.135325793058	2818
677.87227584885	2830.80004882813
678.609134391082	2871.60009765625
679.345901427696	2886
680.082576966644	2891.80004882813
680.819161015861	2894.80004882813
681.555653583298	2874.19995117188
682.292054676895	2842.80004882813
683.028364304594	2803
683.764582474344	2790
684.500709194083	2779
685.236744471752	2780
685.972688315294	2762
686.708540732652	2748.60009765625
687.444301731762	2798.39990234375
688.179971320572	2794.19995117188
688.915549507013	2761.60009765625
689.651036299034	2752.19995117188
690.386431704569	2736.39990234375
691.121735731559	2717.60009765625
691.85694838794	2688.19995117188
692.592069681652	2690.80004882813
693.327099620632	2672.19995117188
694.062038212821	2668
694.796885466149	2700.80004882813
695.531641388561	2750
696.266305987987	2784.80004882813
697.000879272367	2813.80004882813
697.735361249632	2843.60009765625
698.469751927722	2847
699.204051314568	2848.19995117188
699.938259418107	2819.39990234375
700.672376246272	2781.80004882813
701.406401806997	2793.19995117188
702.140336108212	2792.80004882813
702.874179157855	2803.19995117188
703.607930963856	2810.80004882813
704.341591534147	2794.60009765625
705.07516087666	2794.39990234375
705.808638999324	2825.19995117188
706.542025910073	2844.19995117188
707.275321616841	2830.80004882813
708.008526127549	2847.60009765625
708.741639450132	2809.39990234375
709.474661592521	2814.60009765625
710.207592562641	2812.80004882813
710.940432368424	2814.39990234375
711.673181017796	2799.39990234375
712.405838518687	2808
713.138404879025	2774.19995117188
713.870880106731	2776.80004882813
714.603264209738	2772.39990234375
715.335557195971	2797.19995117188
716.067759073357	2809.80004882813
716.799869849816	2812.19995117188
717.531889533281	2820.60009765625
718.263818131673	2829.80004882813
718.995655652917	2847.39990234375
719.727402104934	2843
720.45905749565	2858.80004882813
721.19062183299	2854.60009765625
721.922095124877	2821.39990234375
722.653477379231	2804.80004882813
723.384768603973	2806.80004882813
724.11596880703	2783.60009765625
724.847077996319	2761.60009765625
725.578096179762	2762.39990234375
726.309023365281	2772.60009765625
727.039859560792	2800.60009765625
727.770604774222	2787
728.501259013484	2782
729.231822286501	2800.60009765625
729.962294601191	2808.19995117188
730.692675965469	2775.39990234375
731.42296638726	2750
732.153165874472	2795.19995117188
732.883274435032	2842
733.613292076851	2857
734.343218807843	2864.19995117188
735.07305463593	2869.19995117188
735.802799569028	2864
736.532453615048	2825.39990234375
737.262016781904	2771.60009765625
737.991489077517	2779.60009765625
738.720870509794	2761.19995117188
739.450161086654	2774.60009765625
740.179360816009	2781.19995117188
740.908469705772	2800.39990234375
741.637487763854	2827
742.366414998168	2849
743.095251416623	2863.39990234375
743.823997027137	2898
744.552651837618	2900.80004882813
745.281215855978	2907.60009765625
746.009689090124	2892.60009765625
746.738071547964	2845.39990234375
747.466363237419	2805
748.194564166384	2819.60009765625
748.92267434278	2817
749.650693774504	2814.39990234375
750.378622469476	2828.80004882813
751.106460435596	2828.39990234375
751.834207680771	2844.39990234375
752.561864212909	2846.19995117188
753.289430039919	2860.60009765625
754.016905169707	2837.19995117188
754.744289610175	2831.80004882813
755.471583369231	2828.80004882813
756.198786454782	2841.60009765625
756.925898874728	2845
757.652920636979	2860.39990234375
758.379851749433	2878
759.106692219996	2876.60009765625
759.833442056572	2921.19995117188
760.560101267063	2953.19995117188
761.28666985937	2953.80004882813
762.0131478414	2949.19995117188
762.739535221046	2943.60009765625
763.465832006219	2935
764.192038204812	2953.19995117188
764.918153824731	2944.60009765625
765.644178873872	2937.60009765625
766.370113360138	2983
767.095957291425	3021
767.821710675635	3020
768.547373520665	3071.60009765625
769.272945834415	3125
769.998427624781	3145
770.723818899658	3190.80004882813
771.449119666949	3230.80004882813
772.174329934546	3251.80004882813
772.899449710347	3261.60009765625
773.624479002248	3282.39990234375
774.349417818145	3272.80004882813
775.074266165934	3269.60009765625
775.799024053505	3275.80004882813
776.523691488757	3268.60009765625
777.248268479582	3226.19995117188
777.972755033877	3156
778.69715115953	3088.39990234375
779.421456864441	3043
780.145672156493	3002
780.869797043587	2993
781.593831533611	2972
782.317775634457	2974
783.041629354012	2969.39990234375
783.765392700174	2944.60009765625
784.489065680828	2897.60009765625
785.212648303866	2879
785.936140577177	2848.60009765625
786.659542508652	2819
787.382854106174	2828.39990234375
788.106075377639	2832.39990234375
788.829206330928	2839.80004882813
789.552246973933	2871.39990234375
790.275197314542	2887
790.998057360638	2884.19995117188
791.720827120108	2912.19995117188
792.443506600841	2894.60009765625
793.166095810722	2876
793.888594757635	2867.19995117188
794.611003449465	2866.80004882813
795.333321894098	2875.39990234375
796.055550099417	2913.80004882813
796.777688073308	2948.19995117188
797.499735823654	2936.60009765625
798.221693358334	2903
798.943560685235	2867
799.665337812239	2866.60009765625
800.387024747226	2868.39990234375
801.108621498075	2870
801.830128072674	2868.60009765625
802.551544478902	2901.39990234375
803.272870724636	2919.39990234375
803.994106817761	2912.19995117188
804.715252766148	2882.60009765625
805.436308577687	2886.39990234375
806.157274260251	2846.80004882813
806.878149821721	2842.80004882813
807.598935269973	2830.80004882813
808.319630612886	2826.19995117188
809.040235858336	2810.80004882813
809.760751014202	2859.60009765625
810.481176088361	2861.39990234375
811.201511088685	2864.39990234375
811.921756023059	2857.60009765625
812.641910899347	2850.60009765625
813.361975725432	2833.19995117188
814.081950509188	2847.80004882813
814.801835258489	2819
815.521629981206	2806.39990234375
816.241334685218	2787.60009765625
816.960949378392	2789.60009765625
817.680474068606	2779.60009765625
818.399908763731	2814.19995117188
819.11925347164	2808.39990234375
819.838508200202	2824.60009765625
820.55767295729	2817.80004882813
821.276747750778	2783.39990234375
821.995732588531	2787.80004882813
822.714627478425	2764.19995117188
823.433432428327	2805.19995117188
824.152147446105	2779.19995117188
824.870772539632	2789.80004882813
825.589307716775	2824.60009765625
826.307752985404	2842.19995117188
827.026108353378	2834.39990234375
827.744373828579	2836.19995117188
828.462549418867	2833.19995117188
829.180635132107	2802.60009765625
829.898630976168	2812.60009765625
830.616536958915	2843.60009765625
831.334353088218	2846.19995117188
832.052079371938	2838
832.769715817942	2820
833.487262434092	2824.19995117188
834.204719228255	2794
834.922086208293	2807.39990234375
835.639363382073	2809.19995117188
836.356550757456	2798
837.073648342304	2836.80004882813
837.790656144484	2815.80004882813
838.507574171847	2843.39990234375
839.22440243227	2862.80004882813
839.941140933601	2829.60009765625
840.657789683706	2821.19995117188
841.374348690448	2822.39990234375
842.090817961686	2793.80004882813
842.807197505276	2808.39990234375
843.523487329083	2816
844.23968744096	2803
844.955797848771	2787.80004882813
845.671818560374	2800.39990234375
846.387749583622	2793.39990234375
847.103590926378	2785.39990234375
847.819342596497	2774.60009765625
848.535004601833	2768.19995117188
849.25057695025	2798.60009765625
849.966059649598	2750.80004882813
850.681452707735	2765
851.396756132513	2752.80004882813
852.111969931789	2777.39990234375
852.827094113419	2771
853.542128685257	2780.39990234375
854.257073655158	2795.80004882813
854.971929030969	2800.19995117188
855.686694820551	2807.80004882813
856.40137103175	2804.19995117188
857.115957672423	2813.39990234375
857.830454750423	2818.39990234375
858.544862273597	2821.19995117188
859.259180249797	2826.39990234375
859.97340868688	2830.60009765625
860.687547592688	2832.39990234375
861.401596975075	2842
862.115556841891	2849.80004882813
862.829427200985	2862
863.543208060205	2896.39990234375
864.256899427402	2875.80004882813
864.970501310423	2815.60009765625
865.684013717114	2792.60009765625
866.397436655325	2799
867.110770132901	2802.80004882813
867.824014157691	2790.60009765625
868.537168737542	2797.19995117188
869.250233880299	2796.80004882813
869.963209593803	2788.60009765625
870.676095885902	2797.39990234375
871.388892764445	2797.80004882813
872.101600237276	2817.19995117188
872.814218312233	2778.80004882813
873.526746997165	2792
874.239186299914	2774.19995117188
874.951536228323	2777.19995117188
875.663796790231	2777.60009765625
876.375967993487	2759.39990234375
877.088049845928	2751.39990234375
877.8000423554	2770.60009765625
878.511945529739	2749.60009765625
879.22375937679	2734.60009765625
879.935483904388	2743.39990234375
880.64711912038	2763.80004882813
881.358665032604	2736.60009765625
882.070121648892	2757.19995117188
882.78148897709	2742.39990234375
883.492767025039	2742.60009765625
884.203955800571	2787.60009765625
884.915055311525	2788.39990234375
885.626065565741	2770.80004882813
886.336986571053	2776.80004882813
887.047818335298	2755.19995117188
887.758560866315	2772.39990234375
888.469214171937	2734.80004882813
889.179778260005	2757.80004882813
889.890253138347	2731
890.600638814803	2700.60009765625
891.310935297204	2726.80004882813
892.021142593385	2719.80004882813
892.731260711183	2724.39990234375
893.441289658429	2725.80004882813
894.15122944295	2721.60009765625
894.861080072591	2719
895.570841555173	2728
896.280513898534	2753.80004882813
896.990097110503	2766.60009765625
897.699591198913	2795
898.408996171595	2801
899.118312036375	2786
899.827538801089	2786.80004882813
900.536676473561	2784
901.245725061628	2766.39990234375
901.954684573109	2789.60009765625
902.663555015838	2786.19995117188
903.372336397644	2825.60009765625
904.081028726351	2829.19995117188
904.789632009793	2839
905.49814625579	2858.80004882813
906.20657147217	2876.39990234375
906.914907666765	2859
907.623154847391	2802.60009765625
908.331313021885	2806.60009765625
909.039382198064	2796.80004882813
909.747362383754	2799.80004882813
910.455253586782	2786.19995117188
911.163055814972	2796.80004882813
911.870769076143	2813
912.578393378126	2776.39990234375
913.285928728738	2785.39990234375
913.993375135802	2778.60009765625
914.700732607145	2752.19995117188
915.408001150579	2752.19995117188
916.115180773937	2777.60009765625
916.822271485037	2774.39990234375
917.529273291693	2793.19995117188
918.236186201733	2771.60009765625
918.943010222971	2783.80004882813
919.649745363234	2780.39990234375
920.356391630333	2780.60009765625
921.062949032096	2765.80004882813
921.769417576333	2738
922.475797270864	2743.39990234375
923.182088123512	2745
923.888290142089	2752
924.594403334414	2746.39990234375
925.300427708304	2767
926.006363271572	2778
926.712210032039	2783
927.417967997522	2786.19995117188
928.123637175827	2773.39990234375
928.829217574776	2787.19995117188
929.534709202184	2772.19995117188
930.240112065859	2765.80004882813
930.945426173621	2792.80004882813
931.650651533283	2800.80004882813
932.355788152653	2784.19995117188
933.060836039547	2776
933.765795201776	2768.39990234375
934.470665647153	2764.39990234375
935.175447383492	2752.39990234375
935.880140418599	2734
936.584744760286	2740
937.289260416366	2735.60009765625
937.993687394647	2752.80004882813
938.698025702939	2760.60009765625
939.402275349051	2774.80004882813
940.106436340793	2825.19995117188
940.810508685976	2833
941.5144923924	2841
942.21838746788	2812.60009765625
942.922193920223	2735.39990234375
943.625911757231	2739.39990234375
944.329540986716	2728.39990234375
945.033081616484	2721.39990234375
945.736533654334	2696.39990234375
946.439897108083	2687
947.143171985529	2662.60009765625
947.846358294477	2670.60009765625
948.549456042732	2644.60009765625
949.2524652381	2679.60009765625
949.955385888382	2695.60009765625
950.658218001384	2676
951.360961584907	2680
952.063616646755	2706.60009765625
952.766183194733	2695.80004882813
953.468661236636	2717.39990234375
954.171050780271	2717.19995117188
954.873351833437	2737.39990234375
955.575564403935	2732.60009765625
956.277688499565	2718.19995117188
956.97972412813	2702.60009765625
957.681671297424	2703.19995117188
958.383530015255	2716.80004882813
959.085300289414	2747.19995117188
959.786982127703	2733.60009765625
960.488575537918	2687
961.190080527859	2698
961.891497105327	2686.39990234375
962.592825278111	2690.60009765625
963.294065054012	2691.39990234375
963.995216440829	2687.60009765625
964.696279446353	2690.19995117188
965.397254078383	2694
966.098140344714	2699.19995117188
966.798938253139	2711.60009765625
967.499647811456	2672
968.200269027458	2668
968.900801908937	2677.19995117188
969.601246463685	2697
970.3016026995	2660
971.001870624169	2651
971.702050245491	2608.19995117188
972.402141571249	2611.39990234375
973.102144609245	2605.60009765625
973.802059367267	2584.80004882813
974.501885853103	2613
975.201624074541	2614.39990234375
975.901274039379	2650.80004882813
976.600835755399	2671.60009765625
977.3003092304	2674.19995117188
977.999694472158	2669.80004882813
978.698991488473	2655.60009765625
979.39820028713	2641.80004882813
980.097320875915	2635.60009765625
980.796353262618	2658
981.495297455024	2684
982.194153460919	2700
982.892921288093	2680.80004882813
983.591600944331	2687.60009765625
984.290192437419	2690.60009765625
984.98869577514	2701
985.687110965282	2703.80004882813
986.385438015629	2683.60009765625
987.083676933961	2691.60009765625
987.781827728069	2647.80004882813
988.479890405732	2655.60009765625
989.177864974732	2635.80004882813
989.875751442857	2649.19995117188
990.573549817888	2688.80004882813
991.271260107602	2690
991.968882319786	2711.80004882813
992.666416462217	2702.19995117188
993.363862542681	2671
994.061220568959	2669
994.758490548823	2646.39990234375
995.455672490061	2634.19995117188
996.152766400451	2640.60009765625
996.849772287773	2645.80004882813
997.5466901598	2639.60009765625
998.243520024317	2641
998.940261889097	2638.39990234375
999.636915761923	2596.60009765625
1000.33348165057	2566.60009765625
1001.02995956281	2575.60009765625
1001.72634950643	2565.80004882813
1002.42265148919	2566.80004882813
1003.11886551889	2574.80004882813
1003.81499160328	2607.39990234375
1004.51102975015	2614.80004882813
1005.20697996727	2649.80004882813
1005.90284226242	2642.60009765625
1006.59861664337	2626.39990234375
1007.2943031179	2619
1007.98990169377	2651.80004882813
1008.68541237876	2650.19995117188
1009.38083518064	2674.60009765625
1010.07617010719	2719.39990234375
1010.77141716617	2744
1011.46657636536	2749.19995117188
1012.16164771253	2736.80004882813
1012.85663121546	2708.60009765625
1013.5515268819	2676.19995117188
1014.24633471963	2646.80004882813
1014.94105473642	2628.80004882813
1015.63568694004	2634.60009765625
1016.33023133826	2650.60009765625
1017.02468793885	2656
1017.71905674957	2640.19995117188
1018.41333777819	2645.19995117188
1019.10753103249	2643.80004882813
1019.80163652022	2646.19995117188
1020.49565424916	2619.80004882813
1021.18958422707	2643
1021.88342646171	2674.60009765625
1022.57718096085	2652.60009765625
1023.27084773227	2713.39990234375
1023.96442678371	2687.39990234375
1024.65791812296	2644
1025.35132175776	2587.39990234375
1026.04463769589	2574
1026.73786594511	2556.39990234375
1027.43100651318	2576
1028.12405940786	2591.80004882813
1028.81702463692	2564
1029.50990220812	2585.80004882813
1030.20269212921	2585.80004882813
1030.89539440798	2580.19995117188
1031.58800905216	2591.60009765625
1032.28053606952	2564.60009765625
1032.97297546784	2564.60009765625
1033.66532725485	2553.19995117188
1034.35759143832	2574.39990234375
1035.04976802602	2596.80004882813
1035.7418570257	2585.60009765625
1036.43385844511	2605.80004882813
1037.12577229202	2600.80004882813
1037.81759857419	2586.60009765625
1038.50933729937	2606.19995117188
1039.20098847531	2606.80004882813
1039.89255210978	2606.39990234375
1040.58402821053	2602.19995117188
1041.27541678532	2593.19995117188
1041.96671784191	2583.60009765625
1042.65793138804	2584.60009765625
1043.34905743147	2566.60009765625
1044.04009597996	2586.19995117188
1044.73104704125	2621
1045.42191062312	2624.80004882813
1046.1126867333	2611.80004882813
1046.80337537955	2603
1047.49397656962	2594.80004882813
1048.18449031127	2589.19995117188
1048.87491661225	2562.60009765625
1049.5652554803	2580
1050.25550692319	2565.39990234375
1050.94567094865	2569
1051.63574756444	2581
1052.32573677832	2577.39990234375
1053.01563859803	2597.80004882813
1053.70545303131	2593.19995117188
1054.39518008592	2598
1055.08481976961	2555
1055.77437209013	2575.60009765625
1056.46383705522	2557.80004882813
1057.15321467262	2570.60009765625
1057.8425049501	2572
1058.53170789539	2573.60009765625
1059.22082351624	2528.39990234375
1059.9098518204	2520.39990234375
1060.59879281561	2517.39990234375
1061.28764650962	2514.19995117188
1061.97641291016	2541.19995117188
1062.665092025	2549
1063.35368386187	2582.80004882813
1064.04218842851	2544.60009765625
1064.73060573268	2511.60009765625
1065.4189357821	2471.60009765625
1066.10717858452	2470.39990234375
1066.7953341477	2491.39990234375
1067.48340247936	2496.39990234375
1068.17138358725	2484.60009765625
1068.85927747912	2522.80004882813
1069.5470841627	2510
1070.23480364573	2537.19995117188
1070.92243593595	2558.19995117188
1071.60998104111	2553.19995117188
1072.29743896894	2546.19995117188
1072.98480972718	2557
1073.67209332357	2569.80004882813
1074.35928976585	2554.60009765625
1075.04639906176	2589.60009765625
1075.73342121903	2595.19995117188
1076.42035624541	2563.39990234375
1077.10720414862	2579.80004882813
1077.79396493641	2553.80004882813
1078.48063861651	2556.80004882813
1079.16722519666	2571.39990234375
1079.85372468459	2561.80004882813
1080.54013708804	2566.60009765625
1081.22646241474	2552.19995117188
1081.91270067243	2544.80004882813
1082.59885186884	2540.19995117188
1083.28491601171	2558.80004882813
1083.97089310877	2593.80004882813
1084.65678316774	2606.19995117188
1085.34258619637	2616.19995117188
1086.02830220239	2601.60009765625
1086.71393119352	2613.39990234375
1087.39947317751	2594
1088.08492816207	2593.39990234375
1088.77029615495	2600.39990234375
1089.45557716387	2592.60009765625
1090.14077119656	2598.60009765625
1090.82587826075	2599.80004882813
1091.51089836417	2576.60009765625
1092.19583151456	2557.60009765625
1092.88067771963	2588.80004882813
1093.56543698712	2569.60009765625
1094.25010932475	2538.19995117188
1094.93469474026	2527
1095.61919324137	2549
1096.3036048358	2543
1096.98792953129	2536.19995117188
1097.67216733555	2518.80004882813
1098.35631825632	2565.80004882813
1099.04038230132	2569
1099.72435947828	2576
1100.40824979492	2526
1101.09205325895	2495
1101.77576987812	2486.80004882813
1102.45939966014	2474.39990234375
1103.14294261273	2457.39990234375
1103.82639874362	2421
1104.50976806054	2416.80004882813
1105.19305057119	2428.60009765625
1105.87624628331	2455.19995117188
1106.55935520461	2480.80004882813
1107.24237734283	2510.60009765625
1107.92531270566	2505
1108.60816130085	2485
1109.2909231361	2501.80004882813
1109.97359821914	2523.19995117188
1110.65618655768	2541
1111.33868815946	2576.19995117188
1112.02110303217	2578.80004882813
1112.70343118355	2590.60009765625
1113.3856726213	2551
1114.06782735316	2539.19995117188
1114.74989538683	2557
1115.43187673002	2547.19995117188
1116.11377139047	2524.60009765625
1116.79557937588	2509.60009765625
1117.47730069397	2519.60009765625
1118.15893535245	2535.19995117188
1118.84048335904	2561.80004882813
1119.52194472146	2559.19995117188
1120.20331944741	2568.19995117188
1120.88460754462	2528.80004882813
1121.56580902079	2528.80004882813
1122.24692388364	2539.19995117188
1122.92795214088	2562.39990234375
1123.60889380022	2577.19995117188
1124.28974886938	2613.39990234375
1124.97051735606	2634.80004882813
1125.65119926799	2632.19995117188
1126.33179461286	2618.80004882813
1127.0123033984	2628
1127.6927256323	2599.80004882813
1128.37306132229	2603.80004882813
1129.05331047606	2591.80004882813
1129.73347310134	2612.80004882813
1130.41354920582	2606.80004882813
1131.09353879722	2596.19995117188
1131.77344188324	2586.60009765625
1132.45325847159	2580.19995117188
1133.13298856999	2593
1133.81263218612	2575.80004882813
1134.49218932772	2580.60009765625
1135.17166000247	2550
1135.85104421809	2549.60009765625
1136.53034198227	2530.39990234375
1137.20955330274	2505.60009765625
1137.88867818718	2484.39990234375
1138.56771664331	2467.39990234375
1139.24666867883	2476.39990234375
1139.92553430144	2471
1140.60431351885	2496.39990234375
1141.28300633876	2519.60009765625
1141.96161276887	2539.19995117188
1142.64013281689	2544.80004882813
1143.31856649051	2549
1143.99691379744	2555.60009765625
1144.67517474538	2549.39990234375
1145.35334934203	2542.39990234375
1146.03143759509	2521.39990234375
1146.70943951226	2519.80004882813
1147.38735510125	2485.80004882813
1148.06518436974	2477.39990234375
1148.74292732545	2481
1149.42058397606	2487.80004882813
1150.09815432928	2481.39990234375
1150.7756383928	2476.80004882813
1151.45303617432	2452
1152.13034768155	2488.60009765625
1152.80757292217	2482.39990234375
1153.48471190389	2505.60009765625
1154.16176463439	2504.39990234375
1154.83873112138	2513.39990234375
1155.51561137255	2500.19995117188
1156.1924053956	2485.60009765625
1156.86911319822	2513.60009765625
1157.5457347881	2509.60009765625
1158.22227017294	2534
1158.89871936044	2534.60009765625
1159.57508235828	2529.60009765625
1160.25135917416	2513.80004882813
1160.92754981578	2504
1161.60365429081	2501.80004882813
1162.27967260697	2514.80004882813
1162.95560477193	2504.80004882813
1163.63145079339	2487.19995117188
1164.30721067904	2503.60009765625
1164.98288443657	2508
1165.65847207367	2500.39990234375
1166.33397359803	2481
1167.00938901735	2490.19995117188
1167.6847183393	2485.39990234375
1168.35996157157	2491
1169.03511872187	2526.80004882813
1169.71018979787	2544.39990234375
1170.38517480726	2550.39990234375
1171.06007375773	2536.60009765625
1171.73488665696	2522.60009765625
1172.40961351265	2510.60009765625
1173.08425433247	2481.60009765625
1173.75880912412	2499.19995117188
1174.43327789528	2520.39990234375
1175.10766065364	2523
1175.78195740687	2562.80004882813
1176.45616816267	2593
1177.13029292871	2587
1177.80433171269	2590
1178.47828452229	2581
1179.15215136518	2564.19995117188
1179.82593224905	2573.39990234375
1180.49962718159	2578
1181.17323617047	2593.39990234375
1181.84675922337	2593
1182.52019634799	2618.60009765625
1183.193547552	2638.80004882813
1183.86681284307	2639
1184.53999222889	2659.60009765625
1185.21308571714	2668.39990234375
1185.8860933155	2685.60009765625
1186.55901503165	2654.80004882813
1187.23185087326	2647
1187.90460084802	2636
1188.5772649636	2642.19995117188
1189.24984322768	2623.60009765625
1189.92233564794	2625.60009765625
1190.59474223206	2633.39990234375
1191.2670629877	2651
1191.93929792255	2650.39990234375
1192.61144704428	2661
1193.28351036058	2677.39990234375
1193.9554878791	2648.80004882813
1194.62737960754	2602.39990234375
1195.29918555356	2602.39990234375
1195.97090572483	2581.39990234375
1196.64254012903	2585.80004882813
1197.31408877384	2605.19995117188
1197.98555166693	2625.60009765625
1198.65692881596	2613.80004882813
1199.32822022862	2621.19995117188
1199.99942591256	2592.60009765625
1200.67054587548	2565.39990234375
1201.34158012503	2535
1202.01252866889	2532.60009765625
1202.68339151473	2544.19995117188
1203.35416867021	2533.19995117188
1204.02486014301	2514
1204.6954659408	2521
1205.36598607124	2514.80004882813
1206.03642054201	2526.80004882813
1206.70676936078	2533
1207.3770325352	2531.19995117188
1208.04721007295	2510.19995117188
1208.7173019817	2505.39990234375
1209.38730826911	2480.80004882813
1210.05722894285	2465.39990234375
1210.72706401059	2482.39990234375
1211.39681347999	2465
1212.06647735872	2481
1212.73605565444	2466.60009765625
1213.40554837481	2462.60009765625
1214.07495552751	2470.60009765625
1214.74427712019	2469.80004882813
1215.41351316052	2478.39990234375
1216.08266365617	2473
1216.75172861479	2466.60009765625
1217.42070804405	2464.39990234375
1218.0896019516	2451.60009765625
1218.75841034513	2443
1219.42713323227	2470.39990234375
1220.0957706207	2465
1220.76432251808	2493
1221.43278893207	2469.39990234375
1222.10116987032	2498
1222.7694653405	2506.19995117188
1223.43767535026	2508.80004882813
1224.10579990727	2509.19995117188
1224.77383901918	2494.39990234375
1225.44179269366	2485
1226.10966093835	2482.39990234375
1226.77744376093	2471.80004882813
1227.44514116904	2488.39990234375
1228.11275317034	2483.80004882813
1228.78027977249	2485
1229.44772098315	2470
1230.11507680996	2455.19995117188
1230.7823472606	2464.80004882813
1231.44953234271	2461
1232.11663206394	2442.80004882813
1232.78364643195	2421.19995117188
1233.4505754544	2427.60009765625
1234.11741913894	2409.39990234375
1234.78417749322	2395.19995117188
1235.45085052489	2414.60009765625
1236.11743824162	2393.60009765625
1236.78394065104	2410.60009765625
1237.45035776082	2422.60009765625
1238.1166895786	2425.60009765625
1238.78293611204	2439
1239.44909736878	2438.19995117188
1240.11517335648	2435.39990234375
1240.78116408279	2461.39990234375
1241.44706955535	2457.60009765625
1242.11288978182	2468
1242.77862476985	2450.60009765625
1243.44427452708	2423
1244.10983906116	2409.19995117188
1244.77531837974	2391.60009765625
1245.44071249047	2401.39990234375
1246.106021401	2367
1246.77124511898	2389.39990234375
1247.43638365204	2379.19995117188
1248.10143700783	2394.19995117188
1248.76640519401	2379.39990234375
1249.43128821822	2371
1250.0960860881	2394.80004882813
1250.76079881129	2375.19995117188
1251.42542639545	2401.19995117188
1252.08996884822	2406.19995117188
1252.75442617723	2398
1253.41879839014	2382.60009765625
1254.08308549458	2383.19995117188
1254.74728749821	2409
1255.41140440866	2427.39990234375
1256.07543623357	2438
1256.73938298059	2401.19995117188
1257.40324465735	2403.60009765625
1258.0670212715	2410
1258.73071283068	2387.19995117188
1259.39431934253	2408
1260.05784081468	2394.39990234375
1260.72127725479	2395.19995117188
1261.38462867049	2377.80004882813
1262.0478950694	2377
1262.71107645919	2373.60009765625
1263.37417284748	2376.39990234375
1264.03718424191	2428.80004882813
1264.70011065011	2408.39990234375
1265.36295207974	2372.19995117188
1266.02570853841	2387.19995117188
1266.68838003378	2381.80004882813
1267.35096657346	2368.80004882813
1268.01346816511	2352.80004882813
1268.67588481636	2319.80004882813
1269.33821653483	2312.60009765625
1270.00046332817	2330.39990234375
1270.66262520401	2360.39990234375
1271.32470216998	2381.80004882813
1271.98669423372	2351.39990234375
1272.64860140285	2349.39990234375
1273.31042368503	2312.19995117188
1273.97216108786	2317.60009765625
1274.633813619	2344.19995117188
1275.29538128606	2371.19995117188
1275.95686409669	2378.60009765625
1276.6182620585	2369.60009765625
1277.27957517914	2367.39990234375
1277.94080346624	2363.19995117188
1278.60194692741	2363.19995117188
1279.2630055703	2382.80004882813
1279.92397940253	2388.60009765625
1280.58486843173	2385.39990234375
1281.24567266552	2397
1281.90639211155	2375.60009765625
1282.56702677743	2354.19995117188
1283.2275766708	2368.19995117188
1283.88804179927	2338.80004882813
1284.54842217049	2324
1285.20871779206	2317.60009765625
1285.86892867163	2317.60009765625
1286.52905481681	2354.60009765625
1287.18909623523	2356.19995117188
1287.84905293452	2367.19995117188
1288.5089249223	2365
1289.16871220619	2378.80004882813
1289.82841479383	2390.39990234375
1290.48803269282	2388.80004882813
1291.1475659108	2382.80004882813
1291.80701445539	2384.80004882813
1292.46637833421	2376.19995117188
1293.12565755489	2355.80004882813
1293.78485212504	2326.60009765625
1294.44396205229	2343
1295.10298734425	2326.80004882813
1295.76192800856	2304.39990234375
1296.42078405283	2310
1297.07955548467	2303
1297.73824231171	2332.60009765625
1298.39684454158	2330.60009765625
1299.05536218188	2348.39990234375
1299.71379524023	2372
1300.37214372427	2346.39990234375
1301.03040764159	2343.80004882813
1301.68858699983	2346.39990234375
1302.34668180659	2347
1303.0046920695	2378.19995117188
1303.66261779617	2390.80004882813
1304.32045899422	2411.19995117188
1304.97821567126	2447
1305.63588783492	2411.19995117188
1306.29347549279	2422.80004882813
1306.95097865251	2389.80004882813
1307.60839732168	2397
1308.26573150791	2381.60009765625
1308.92298121883	2397
1309.58014646204	2401
1310.23722724517	2411.39990234375
1310.89422357581	2425.60009765625
1311.55113546158	2413.80004882813
1312.2079629101	2388.39990234375
1312.86470592898	2391.39990234375
1313.52136452582	2420.39990234375
1314.17793870824	2411.60009765625
1314.83442848386	2411.39990234375
1315.49083386027	2414
1316.14715484509	2419.80004882813
1316.80339144594	2420.19995117188
1317.45954367041	2420.80004882813
1318.11561152611	2428.39990234375
1318.77159502067	2401.39990234375
1319.42749416168	2399.80004882813
1320.08330895674	2404.80004882813
1320.73903941348	2423.19995117188
1321.3946855395	2400.60009765625
1322.0502473424	2385.60009765625
1322.70572482978	2379.80004882813
1323.36111800926	2358.60009765625
1324.01642688845	2330.19995117188
1324.67165147494	2336.39990234375
1325.32679177634	2336.19995117188
1325.98184780025	2356.39990234375
1326.63681955429	2356.80004882813
1327.29170704605	2347.60009765625
1327.94651028314	2315.39990234375
1328.60122927316	2321.80004882813
1329.25586402371	2321.39990234375
1329.9104145424	2320
1330.56488083683	2318.19995117188
1331.2192629146	2304
1331.87356078331	2316.19995117188
1332.52777445056	2317.60009765625
1333.18190392395	2319.60009765625
1333.83594921109	2319.80004882813
1334.48991031958	2319.60009765625
1335.143787257	2321.39990234375
1335.79758003097	2319.80004882813
1336.45128864908	2304.60009765625
1337.10491311893	2318.60009765625
1337.75845344813	2309.39990234375
1338.41190964425	2312.60009765625
1339.06528171491	2301.39990234375
1339.71856966771	2306.39990234375
1340.37177351023	2294
1341.02489325007	2301.39990234375
1341.67792889484	2282.80004882813
1342.33088045212	2272
1342.98374792952	2273.60009765625
1343.63653133462	2276
1344.28923067503	2288.60009765625
1344.94184595833	2318.39990234375
1345.59437719212	2332.80004882813
1346.246824384	2371.19995117188
1346.89918754155	2389
1347.55146667238	2401.19995117188
1348.20366178407	2439.39990234375
1348.85577288421	2414.80004882813
1349.50779998041	2421.60009765625
1350.15974308024	2418.39990234375
1350.8116021913	2449.80004882813
1351.46337732119	2455.60009765625
1352.11506847748	2423.39990234375
1352.76667566778	2412.39990234375
1353.41819889967	2422
1354.06963818074	2417.60009765625
1354.72099351858	2419.39990234375
1355.37226492079	2415.80004882813
1356.02345239494	2433.19995117188
1356.67455594862	2466.19995117188
1357.32557558943	2493
1357.97651132496	2486.80004882813
1358.62736316277	2496.19995117188
1359.27813111048	2531.19995117188
1359.92881517565	2528.60009765625
1360.57941536589	2572.19995117188
1361.22993168876	2590.80004882813
1361.88036415186	2597
1362.53071276278	2606.19995117188
1363.1809775291	2621.80004882813
1363.8311584584	2626.39990234375
1364.48125555826	2610
1365.13126883627	2566
1365.78119830001	2519.80004882813
1366.43104395707	2507.60009765625
1367.08080581503	2464.39990234375
1367.73048388147	2442.60009765625
1368.38007816397	2409.19995117188
1369.02958867011	2437.39990234375
1369.67901540748	2416
1370.32835838365	2442.19995117188
1370.9776176062	2413.60009765625
1371.62679308273	2412.80004882813
1372.27588482079	2387
1372.92489282798	2399.60009765625
1373.57381711188	2383.80004882813
1374.22265768006	2343.80004882813
1374.87141454009	2327
1375.52008769957	2309.80004882813
1376.16867716606	2302.80004882813
1376.81718294715	2308.19995117188
1377.4656050504	2321.19995117188
1378.1139434834	2320.39990234375
1378.76219825373	2340
1379.41036936895	2348.60009765625
1380.05845683664	2353.19995117188
1380.70646066439	2350.19995117188
1381.35438085976	2314.60009765625
1382.00221743032	2316.39990234375
1382.64997038366	2299.19995117188
1383.29763972735	2307
1383.94522546895	2314.19995117188
1384.59272761605	2334.60009765625
1385.24014617621	2318.19995117188
1385.88748115701	2308.60009765625
1386.53473256602	2303.39990234375
1387.18190041081	2298.80004882813
1387.82898469895	2293.60009765625
1388.47598543802	2261.39990234375
1389.12290263558	2291.19995117188
1389.7697362992	2274.60009765625
1390.41648643646	2236
1391.06315305492	2236.39990234375
1391.70973616215	2232.19995117188
1392.35623576573	2221
1393.00265187321	2211.80004882813
1393.64898449217	2227
1394.29523363018	2237.80004882813
1394.94139929481	2229.39990234375
1395.58748149361	2212
1396.23348023415	2214.19995117188
1396.87939552402	2204.80004882813
1397.52522737076	2165
1398.17097578195	2152.19995117188
1398.81664076514	2108
1399.46222232792	2123.19995117188
1400.10772047783	2082.39990234375
1400.75313522245	2083.60009765625
1401.39846656934	2095.80004882813
1402.04371452605	2111.60009765625
1402.68887910016	2142.39990234375
1403.33396029924	2120
1403.97895813083	2120.80004882813
1404.6238726025	2156.60009765625
1405.26870372182	2176.60009765625
1405.91345149634	2186.80004882813
1406.55811593363	2188
1407.20269704125	2168.80004882813
1407.84719482676	2159.80004882813
1408.49160929772	2167
1409.13594046168	2155.39990234375
1409.78018832622	2154.80004882813
1410.42435289887	2160
1411.06843418722	2166.19995117188
1411.7124321988	2149.60009765625
1412.3563469412	2164.80004882813
1413.00017842194	2170
1413.64392664861	2169.60009765625
1414.28759162875	2169.80004882813
1414.93117336992	2179.19995117188
1415.57467187967	2166.80004882813
1416.21808716557	2171.80004882813
1416.86141923516	2177.60009765625
1417.50466809601	2189
1418.14783375567	2181.39990234375
1418.79091622169	2197.39990234375
1419.43391550162	2182.60009765625
1420.07683160303	2185.60009765625
1420.71966453346	2205.80004882813
1421.36241430046	2183.80004882813
1422.0050809116	2171.60009765625
1422.64766437442	2197.19995117188
1423.29016469647	2205.39990234375
1423.93258188531	2219
1424.57491594848	2213
1425.21716689354	2208.39990234375
1425.85933472805	2222.19995117188
1426.50141945954	2202.19995117188
1427.14342109557	2183.80004882813
1427.78533964369	2177.80004882813
1428.42717511144	2147.19995117188
1429.06892750639	2146.39990234375
1429.71059683607	2140
1430.35218310803	2119.19995117188
1430.99368632983	2117.39990234375
1431.635106509	2166
1432.2764436531	2149.19995117188
1432.91769776967	2158.80004882813
1433.55886886627	2165.80004882813
1434.19995695043	2187
1434.84096202969	2196.80004882813
1435.48188411162	2180.39990234375
1436.12272320375	2177
1436.76347931363	2163.19995117188
1437.40415244879	2164.19995117188
1438.0447426168	2154
1438.68524982518	2153
1439.32567408148	2147.80004882813
1439.96601539325	2148.39990234375
1440.60627376803	2164
1441.24644921336	2164.60009765625
1441.88654173678	2168.19995117188
1442.52655134583	2156.60009765625
1443.16647804806	2152.60009765625
1443.806321851	2148.80004882813
1444.4460827622	2165.60009765625
1445.0857607892	2151.19995117188
1445.72535593953	2142
1446.36486822074	2141.39990234375
1447.00429764037	2136.39990234375
1447.64364420595	2144.60009765625
1448.28290792502	2124
1448.92208880512	2110.80004882813
1449.56118685379	2113.39990234375
1450.20020207857	2098.60009765625
1450.83913448699	2106.19995117188
1451.47798408659	2114
1452.1167508849	2130.60009765625
1452.75543488947	2144.19995117188
1453.39403610782	2128
1454.0325545475	2117.60009765625
1454.67099021603	2121.19995117188
1455.30934312097	2111.60009765625
1455.94761326982	2132.19995117188
1456.58580067014	2103
1457.22390532945	2113.19995117188
1457.86192725529	2111
1458.49986645519	2119
1459.13772293668	2109
1459.7754967073	2113
1460.41318777457	2115
1461.05079614604	2089.19995117188
1461.68832182922	2084.19995117188
1462.32576483166	2075.80004882813
1462.96312516087	2072.80004882813
1463.6004028244	2078.39990234375
1464.23759782977	2094
1464.8747101845	2114
1465.51173989614	2126
1466.14868697221	2122
1466.78555142024	2115.60009765625
1467.42233324774	2121.39990234375
1468.05903246227	2097.80004882813
1468.69564907133	2100.80004882813
1469.33218308246	2093.60009765625
1469.96863450317	2082.80004882813
1470.60500334102	2110.60009765625
1471.2412896035	2139
1471.87749329816	2136.80004882813
1472.51361443251	2133.80004882813
1473.14965301409	2138.60009765625
1473.78560905041	2147
1474.421482549	2144.80004882813
1475.05727351739	2133
1475.69298196309	2155.39990234375
1476.32860789364	2173
1476.96415131654	2176.80004882813
1477.59961223934	2153.80004882813
1478.23499066954	2163.60009765625
1478.87028661467	2146.19995117188
1479.50550008226	2155.80004882813
1480.14063107981	2154.39990234375
1480.77567961486	2143.39990234375
1481.41064569492	2149.19995117188
1482.04552932752	2130.60009765625
1482.68033052017	2132
1483.31504928039	2137.39990234375
1483.9496856157	2137.19995117188
1484.58423953363	2133.80004882813
1485.21871104168	2124.19995117188
1485.85310014738	2148.60009765625
1486.48740685824	2148.60009765625
1487.12163118178	2116.39990234375
1487.75577312553	2111.19995117188
1488.38983269698	2105.60009765625
1489.02380990367	2109.80004882813
1489.65770475311	2105.80004882813
1490.29151725281	2120.39990234375
1490.92524741029	2121.60009765625
1491.55889523306	2126.19995117188
1492.19246072863	2130.60009765625
1492.82594390453	2139.60009765625
1493.45934476826	2161.60009765625
1494.09266332734	2154.60009765625
1494.72589958928	2174.80004882813
1495.3590535616	2200.60009765625
1495.99212525181	2200.60009765625
1496.62511466741	2212.19995117188
1497.25802181592	2189.39990234375
1497.89084670485	2180.60009765625
1498.52358934172	2204.80004882813
1499.15624973403	2220
1499.7888278893	2229.80004882813
1500.42132381503	2230.19995117188
1501.05373751873	2227.19995117188
1501.68606900792	2233
1502.31831829009	2266.39990234375
1502.95048537277	2263.39990234375
1503.58257026346	2296.19995117188
1504.21457296966	2311
1504.84649349889	2323.60009765625
1505.47833185864	2340
1506.11008805644	2351.60009765625
1506.74176209978	2317.80004882813
1507.37335399617	2290.39990234375
1508.00486375312	2294.60009765625
1508.63629137813	2276.60009765625
1509.2676368787	2250.80004882813
1509.89890026235	2252.60009765625
1510.53008153658	2252.80004882813
1511.16118070889	2261
1511.79219778677	2261
1512.42313277775	2243.60009765625
1513.05398568932	2238.19995117188
1513.68475652898	2230.39990234375
1514.31544530424	2241.80004882813
1514.9460520226	2224
1515.57657669155	2221
1516.20701931861	2195.60009765625
1516.83737991127	2181.80004882813
1517.46765847702	2167.80004882813
1518.09785502339	2149.19995117188
1518.72796955785	2177
1519.35800208792	2163
1519.98795262109	2167
1520.61782116486	2169
1521.24760772673	2163.80004882813
1521.87731231419	2148.80004882813
1522.50693493475	2146.19995117188
1523.1364755959	2132.80004882813
1523.76593430514	2136.39990234375
1524.39531106997	2116
1525.02460589788	2116.19995117188
1525.65381879637	2119.80004882813
1526.28294977293	2114.60009765625
1526.91199883507	2114.19995117188
1527.54096599027	2077
1528.16985124603	2082.39990234375
1528.79865460984	2082.80004882813
1529.4273760892	2096
1530.05601569161	2109.39990234375
1530.68457342455	2111.80004882813
1531.31304929552	2129.80004882813
1531.94144331201	2143.39990234375
1532.56975548151	2128.60009765625
1533.19798581152	2140.80004882813
1533.82613430953	2146.39990234375
1534.45420098302	2157.19995117188
1535.08218583949	2169.80004882813
1535.71008888643	2167
1536.33791013134	2159.39990234375
1536.96564958169	2153.80004882813
1537.59330724498	2153.19995117188
1538.22088312871	2141.60009765625
1538.84837724034	2126
1539.47578958739	2104
1540.10312017733	2091.39990234375
1540.73036901765	2074.60009765625
1541.35753611584	2085.60009765625
1541.98462147939	2086.80004882813
1542.61162511578	2094.19995117188
1543.2385470325	2092
1543.86538723704	2090.80004882813
1544.49214573688	2096.80004882813
1545.11882253951	2115.60009765625
1545.74541765241	2108.80004882813
1546.37193108306	2097.39990234375
1546.99836283896	2096.19995117188
1547.62471292758	2090.80004882813
1548.25098135641	2110.39990234375
1548.87716813294	2090
1549.50327326464	2100
1550.12929675899	2083.19995117188
1550.75523862349	2083.80004882813
1551.38109886561	2100
1552.00687749284	2087.60009765625
1552.63257451264	2088
1553.25818993252	2081.39990234375
1553.88372375994	2081
1554.50917600239	2068.60009765625
1555.13454666734	2039.80004882813
1555.75983576228	2049.19995117188
1556.38504329469	2065.39990234375
1557.01016927204	2041
1557.63521370181	2034.80004882813
1558.26017659149	2034.80004882813
1558.88505794854	2032.19995117188
1559.50985778045	2050
1560.13457609469	2062.60009765625
1560.75921289874	2044.19995117188
1561.38376820008	2038.19995117188
1562.00824200618	2056
1562.63263432452	2051.39990234375
1563.25694516257	2052.39990234375
1563.88117452781	2045.80004882813
1564.50532242772	2044.80004882813
1565.12938886976	2033.59997558594
1565.75337386141	2040.40002441406
1566.37727741015	2021.19995117188
1567.00109952345	2037.19995117188
1567.62484020878	2033
1568.24849947361	2016.19995117188
1568.87207732542	2039.59997558594
1569.49557377168	2060.39990234375
1570.11898881986	2057.80004882813
1570.74232247743	2062.19995117188
1571.36557475186	2064
1571.98874565062	2072.19995117188
1572.61183518119	2068
1573.23484335103	2112.60009765625
1573.85777016761	2125.39990234375
1574.4806156384	2132.80004882813
1575.10337977088	2149.60009765625
1575.7260625725	2151.39990234375
1576.34866405074	2130.19995117188
1576.97118421306	2136.19995117188
1577.59362306694	2118.19995117188
1578.21598061984	2129.19995117188
1578.83825687922	2096.80004882813
1579.46045185255	2107
1580.08256554731	2093
1580.70459797094	2096.19995117188
1581.32654913093	2087
1581.94841903473	2065.60009765625
1582.57020768981	2061
1583.19191510364	2041
1583.81354128367	2028.59997558594
1584.43508623737	2036.59997558594
1585.05654997221	2021.40002441406
1585.67793249564	2018
1586.29923381514	2017
1586.92045393815	1983.19995117188
1587.54159287216	2000.19995117188
1588.1626506246	1985.80004882813
1588.78362720296	1995.80004882813
1589.40452261468	1993
1590.02533686724	1955
1590.64606996808	1973.80004882813
1591.26672192467	1971.59997558594
1591.88729274447	1963.40002441406
1592.50778243493	1928.80004882813
1593.12819100352	1922.19995117188
1593.7485184577	1923
1594.36876480492	1902.80004882813
1594.98893005264	1900.59997558594
1595.60901420832	1905.19995117188
1596.22901727941	1916.80004882813
1596.84893927338	1915.80004882813
1597.46878019767	1953.80004882813
1598.08854005975	1959.40002441406
1598.70821886707	1975.19995117188
1599.32781662708	1994.80004882813
1599.94733334725	1993.19995117188
1600.56676903502	2003.59997558594
1601.18612369785	1984.40002441406
1601.8053973432	1988
1602.42458997851	1951.19995117188
1603.04370161124	1943.80004882813
1603.66273224884	1926.40002441406
1604.28168189878	1930.40002441406
1604.90055056849	1919
1605.51933826543	1910.80004882813
1606.13804499705	1906
1606.75667077081	1892.59997558594
1607.37521559415	1905.19995117188
1607.99367947452	1892.40002441406
1608.61206241938	1887
1609.23036443618	1868.59997558594
1609.84858553236	1852
1610.46672571537	1835.19995117188
1611.08478499267	1845.40002441406
1611.7027633717	1850.19995117188
1612.3206608599	1858.40002441406
1612.93847746473	1886
1613.55621319364	1896.40002441406
1614.17386805407	1904.59997558594
1614.79144205347	1883.59997558594
1615.40893519928	1862.59997558594
1616.02634749895	1866.80004882813
1616.64367895993	1846
1617.26092958966	1836.19995117188
1617.87809939559	1847.59997558594
1618.49518838516	1863.59997558594
1619.11219656582	1846
1619.729123945	1850.40002441406
1620.34597053016	1839.80004882813
1620.96273632874	1838
1621.57942134818	1840.59997558594
1622.19602559592	1836
1622.8125490794	1853.19995117188
1623.42899180607	1840.19995117188
1624.04535378337	1848.80004882813
1624.66163501874	1834.59997558594
1625.27783551963	1857.59997558594
1625.89395529346	1848.59997558594
1626.50999434768	1851.19995117188
1627.12595268974	1825
1627.74183032707	1834.59997558594
1628.3576272671	1810.59997558594
1628.97334351729	1812
1629.58897908506	1801.80004882813
1630.20453397786	1780.59997558594
1630.82000820313	1783.80004882813
1631.43540176829	1778.19995117188
1632.05071468079	1792.19995117188
1632.66594694807	1782.40002441406
1633.28109857756	1796.19995117188
1633.8961695767	1787.19995117188
1634.51115995292	1787.59997558594
1635.12606971366	1805.40002441406
1635.74089886636	1808.80004882813
1636.35564741844	1824.80004882813
1636.97031537734	1826
1637.58490275051	1836.19995117188
1638.19940954536	1849.80004882813
1638.81383576934	1848.19995117188
1639.42818142987	1858.80004882813
1640.0424465344	1864.40002441406
1640.65663109034	1883.59997558594
1641.27073510515	1876.59997558594
1641.88475858623	1868.80004882813
1642.49870154104	1878.80004882813
1643.11256397699	1897
1643.72634590152	1890
1644.34004732206	1883.59997558594
1644.95366824604	1891
1645.56720868089	1888.19995117188
1646.18066863404	1902.19995117188
1646.79404811291	1882.80004882813
1647.40734712494	1900
1648.02056567755	1900.19995117188
1648.63370377817	1891.40002441406
1649.24676143423	1892
1649.85973865316	1891.19995117188
1650.47263544238	1895.80004882813
1651.08545180932	1891.80004882813
1651.6981877614	1901.80004882813
1652.31084330606	1910
1652.92341845071	1904.19995117188
1653.53591320278	1892
1654.1483275697	1887
1654.7606615589	1862.19995117188
1655.37291517778	1851
1655.98508843379	1842.59997558594
1656.59718133434	1833.80004882813
1657.20919388685	1816.40002441406
1657.82112609875	1812.19995117188
1658.43297797747	1801.59997558594
1659.04474953041	1786.59997558594
1659.65644076501	1788.59997558594
1660.26805168869	1770
1660.87958230886	1766.59997558594
1661.49103263294	1770
1662.10240266837	1765.19995117188
1662.71369242255	1778.40002441406
1663.32490190291	1771.19995117188
1663.93603111687	1765.19995117188
1664.54708007184	1770.19995117188
1665.15804877524	1763.80004882813
1665.7689372345	1754.59997558594
1666.37974545703	1765.19995117188
1666.99047345024	1747
1667.60112122156	1751.40002441406
1668.2116887784	1756
1668.82217612818	1723.59997558594
1669.43258327831	1718
1670.04291023622	1706.19995117188
1670.65315700931	1704.80004882813
1671.263323605	1688
1671.8734100307	1665.19995117188
1672.48341629384	1642.80004882813
1673.09334240182	1641.19995117188
1673.70318836206	1640.19995117188
1674.31295418197	1630.59997558594
1674.92263986896	1606.80004882813
1675.53224543046	1620.80004882813
1676.14177087386	1618
1676.75121620658	1619.19995117188
1677.36058143604	1625.80004882813
1677.96986656964	1628
1678.5790716148	1635.80004882813
1679.18819657892	1652.19995117188
1679.79724146943	1656.59997558594
1680.40620629372	1650.40002441406
1681.0150910592	1663.80004882813
1681.6238957733	1688
1682.23262044341	1679.40002441406
1682.84126507694	1682.40002441406
1683.4498296813	1698
1684.0583142639	1702.80004882813
1684.66671883216	1685.40002441406
1685.27504339346	1683.80004882813
1685.88328795523	1665.80004882813
1686.49145252487	1653.80004882813
1687.09953710978	1654.80004882813
1687.70754171737	1657.40002441406
1688.31546635505	1666.19995117188
1688.92331103021	1673.80004882813
1689.53107575028	1677.59997558594
1690.13876052265	1667.40002441406
1690.74636535472	1679.19995117188
1691.3538902539	1667.40002441406
1691.96133522759	1645.80004882813
1692.5687002832	1656.80004882813
1693.17598542812	1651.80004882813
1693.78319066977	1632.59997558594
1694.39031601554	1621.40002441406
1694.99736147283	1623
1695.60432704905	1616.59997558594
1696.2112127516	1649.80004882813
1696.81801858788	1678.19995117188
1697.42474456528	1674.19995117188
1698.03139069121	1664.80004882813
1698.63795697307	1664.40002441406
1699.24444341826	1656
1699.85085003417	1628.59997558594
1700.45717682821	1617.80004882813
1701.06342380778	1616.40002441406
1701.66959098026	1602.80004882813
1702.27567835307	1616.59997558594
1702.88168593359	1616.59997558594
1703.48761372922	1608.19995117188
1704.09346174737	1605.80004882813
1704.69922999542	1595.19995117188
1705.30491848077	1594.80004882813
1705.91052721083	1595
1706.51605619297	1597.80004882813
1707.12150543461	1609.59997558594
1707.72687494312	1606.59997558594
1708.33216472592	1586.59997558594
1708.93737479039	1587.19995117188
1709.54250514392	1575
