634.977642221345	2431.39990234375
635.719821695905	2441.39990234375
636.461909203392	2441.60009765625
637.203904751776	2422.19995117188
637.945808349023	2446.19995117188
638.687620003102	2442.60009765625
639.42933972198	2457.39990234375
640.170967513616	2450
640.912503385981	2433.39990234375
641.653947347041	2428
642.395299404758	2419.80004882813
643.13655956709	2390.80004882813
643.877727842014	2384
644.61880423748	2350.39990234375
645.359788761455	2349.19995117188
646.100681421905	2359.19995117188
646.841482226789	2387
647.582191184074	2389.60009765625
648.322808301711	2380.80004882813
649.06333358767	2399.80004882813
649.803767049909	2388
650.544108696385	2405
651.28435853506	2421.19995117188
652.024516573894	2434
652.764582820849	2443
653.504557283875	2456
654.244439970937	2481.60009765625
654.984230889991	2501.19995117188
655.723930048995	2504
656.463537455909	2525
657.203053118683	2514.39990234375
657.942477045275	2525.39990234375
658.681809243647	2532.19995117188
659.421049721747	2513.60009765625
660.160198487535	2495.60009765625
660.899255548962	2513.80004882813
661.638220913985	2526.19995117188
662.377094590559	2515.19995117188
663.115876586631	2519.80004882813
663.854566910165	2514.80004882813
664.593165569107	2506.60009765625
665.331672571406	2493
666.07008792502	2484.19995117188
666.808411637902	2433.80004882813
667.546643717996	2402
668.284784173258	2436
669.022833011641	2454.80004882813
669.760790241089	2446.80004882813
670.498655869554	2421.39990234375
671.236429904987	2405.80004882813
671.97411235534	2420.80004882813
672.711703228551	2431.60009765625
673.449202532577	2471
674.186610275364	2502
674.923926464857	2511.80004882813
675.661151109008	2547.80004882813
676.398284215759	2539.19995117188
677.135325793058	2516.60009765625
677.87227584885	2546
678.609134391082	2542.39990234375
679.345901427696	2568.19995117188
680.082576966644	2574.39990234375
680.819161015861	2583.39990234375
681.555653583298	2579.60009765625
682.292054676895	2548.60009765625
683.028364304594	2548.19995117188
683.764582474344	2550.80004882813
684.500709194083	2536.60009765625
685.236744471752	2490.60009765625
685.972688315294	2504
686.708540732652	2519.60009765625
687.444301731762	2508.39990234375
688.179971320572	2533.39990234375
688.915549507013	2513.60009765625
689.651036299034	2512
690.386431704569	2475.39990234375
691.121735731559	2470.60009765625
691.85694838794	2452.80004882813
692.592069681652	2463.80004882813
693.327099620632	2472.19995117188
694.062038212821	2437
694.796885466149	2472.60009765625
695.531641388561	2475.19995117188
696.266305987987	2491.60009765625
697.000879272367	2512.80004882813
697.735361249632	2523.60009765625
698.469751927722	2557.39990234375
699.204051314568	2531.19995117188
699.938259418107	2513.39990234375
700.672376246272	2547.39990234375
701.406401806997	2526.19995117188
702.140336108212	2531.80004882813
702.874179157855	2554.60009765625
703.607930963856	2546.60009765625
704.341591534147	2538.80004882813
705.07516087666	2519.19995117188
705.808638999324	2512.19995117188
706.542025910073	2543.60009765625
707.275321616841	2559.39990234375
708.008526127549	2549
708.741639450132	2559.60009765625
709.474661592521	2547.80004882813
710.207592562641	2549.39990234375
710.940432368424	2556.39990234375
711.673181017796	2541.19995117188
712.405838518687	2533
713.138404879025	2497.19995117188
713.870880106731	2496.60009765625
714.603264209738	2511.80004882813
715.335557195971	2548.60009765625
716.067759073357	2532.19995117188
716.799869849816	2544
717.531889533281	2568.39990234375
718.263818131673	2548.19995117188
718.995655652917	2537.39990234375
719.727402104934	2537.39990234375
720.45905749565	2528
721.19062183299	2532
721.922095124877	2521.19995117188
722.653477379231	2542.80004882813
723.384768603973	2543
724.11596880703	2524.19995117188
724.847077996319	2525.80004882813
725.578096179762	2524.60009765625
726.309023365281	2549
727.039859560792	2550
727.770604774222	2557.39990234375
728.501259013484	2545.60009765625
729.231822286501	2569
729.962294601191	2574.60009765625
730.692675965469	2559.80004882813
731.42296638726	2528
732.153165874472	2530.39990234375
732.883274435032	2542
733.613292076851	2572.60009765625
734.343218807843	2578.60009765625
735.07305463593	2575.19995117188
735.802799569028	2575
736.532453615048	2567
737.262016781904	2551.80004882813
737.991489077517	2531.80004882813
738.720870509794	2541.39990234375
739.450161086654	2527.60009765625
740.179360816009	2548.39990234375
740.908469705772	2541
741.637487763854	2568.19995117188
742.366414998168	2577.39990234375
743.095251416623	2585.60009765625
743.823997027137	2619
744.552651837618	2633.39990234375
745.281215855978	2628.80004882813
746.009689090124	2592.80004882813
746.738071547964	2582.39990234375
747.466363237419	2552.19995117188
748.194564166384	2522.60009765625
748.92267434278	2540.60009765625
749.650693774504	2518.80004882813
750.378622469476	2545.39990234375
751.106460435596	2572.80004882813
751.834207680771	2571.39990234375
752.561864212909	2575.60009765625
753.289430039919	2583.39990234375
754.016905169707	2559.80004882813
754.744289610175	2543.39990234375
755.471583369231	2534.80004882813
756.198786454782	2561.39990234375
756.925898874728	2535.60009765625
757.652920636979	2530.19995117188
758.379851749433	2531
759.106692219996	2537.39990234375
759.833442056572	2572.19995117188
760.560101267063	2625.80004882813
761.28666985937	2626
762.0131478414	2638.19995117188
762.739535221046	2657
763.465832006219	2662.80004882813
764.192038204812	2650
764.918153824731	2690
765.644178873872	2697
766.370113360138	2730.19995117188
767.095957291425	2724.60009765625
767.821710675635	2779.60009765625
768.547373520665	2782
769.272945834415	2790
769.998427624781	2836
770.723818899658	2872.19995117188
771.449119666949	2922.60009765625
772.174329934546	2924
772.899449710347	2938.39990234375
773.624479002248	2947.19995117188
774.349417818145	2954.39990234375
775.074266165934	2956.60009765625
775.799024053505	2967.39990234375
776.523691488757	2913
777.248268479582	2914.80004882813
777.972755033877	2833.19995117188
778.69715115953	2776.60009765625
779.421456864441	2760.39990234375
780.145672156493	2700
780.869797043587	2686.80004882813
781.593831533611	2683.39990234375
782.317775634457	2650.80004882813
783.041629354012	2642
783.765392700174	2651
784.489065680828	2616.80004882813
785.212648303866	2585.19995117188
785.936140577177	2573
786.659542508652	2573.80004882813
787.382854106174	2582.80004882813
788.106075377639	2575.80004882813
788.829206330928	2578
789.552246973933	2596
790.275197314542	2594.39990234375
790.998057360638	2616.60009765625
791.720827120108	2617.60009765625
792.443506600841	2611
793.166095810722	2601.19995117188
793.888594757635	2591.80004882813
794.611003449465	2572.80004882813
795.333321894098	2583
796.055550099417	2610.39990234375
796.777688073308	2620.19995117188
797.499735823654	2631
798.221693358334	2595
798.943560685235	2581
799.665337812239	2578
800.387024747226	2560.39990234375
801.108621498075	2570
801.830128072674	2606.19995117188
802.551544478902	2618
803.272870724636	2592.80004882813
803.994106817761	2623.19995117188
804.715252766148	2621.39990234375
805.436308577687	2597.19995117188
806.157274260251	2574.39990234375
806.878149821721	2553.80004882813
807.598935269973	2552.19995117188
808.319630612886	2527.60009765625
809.040235858336	2526
809.760751014202	2548.60009765625
810.481176088361	2560.80004882813
811.201511088685	2554.60009765625
811.921756023059	2563.80004882813
812.641910899347	2528
813.361975725432	2532.80004882813
814.081950509188	2536.19995117188
814.801835258489	2513
815.521629981206	2519.60009765625
816.241334685218	2511.80004882813
816.960949378392	2512.80004882813
817.680474068606	2530.80004882813
818.399908763731	2560.60009765625
819.11925347164	2551.19995117188
819.838508200202	2537
820.55767295729	2556.60009765625
821.276747750778	2558
821.995732588531	2562.19995117188
822.714627478425	2566.39990234375
823.433432428327	2577.19995117188
824.152147446105	2567.39990234375
824.870772539632	2553.80004882813
825.589307716775	2583.19995117188
826.307752985404	2586.39990234375
827.026108353378	2577.19995117188
827.744373828579	2572.60009765625
828.462549418867	2571.19995117188
829.180635132107	2557.60009765625
829.898630976168	2560.80004882813
830.616536958915	2550
831.334353088218	2561.39990234375
832.052079371938	2576.80004882813
832.769715817942	2566
833.487262434092	2557.19995117188
834.204719228255	2553.60009765625
834.922086208293	2566
835.639363382073	2561.60009765625
836.356550757456	2565.60009765625
837.073648342304	2562.80004882813
837.790656144484	2561.80004882813
838.507574171847	2556.39990234375
839.22440243227	2563
839.941140933601	2549.60009765625
840.657789683706	2546.60009765625
841.374348690448	2581.19995117188
842.090817961686	2567.19995117188
842.807197505276	2579.19995117188
843.523487329083	2594.39990234375
844.23968744096	2568.39990234375
844.955797848771	2545.60009765625
845.671818560374	2571.19995117188
846.387749583622	2541
847.103590926378	2546.39990234375
847.819342596497	2528.39990234375
848.535004601833	2514.60009765625
849.25057695025	2487
849.966059649598	2481.60009765625
850.681452707735	2507.60009765625
851.396756132513	2498
852.111969931789	2503.80004882813
852.827094113419	2502.19995117188
853.542128685257	2511.19995117188
854.257073655158	2538.60009765625
854.971929030969	2541
855.686694820551	2540
856.40137103175	2536.80004882813
857.115957672423	2539.80004882813
857.830454750423	2538.19995117188
858.544862273597	2540.60009765625
859.259180249797	2524.80004882813
859.97340868688	2515
860.687547592688	2558.80004882813
861.401596975075	2565.80004882813
862.115556841891	2605.80004882813
862.829427200985	2605
863.543208060205	2605.60009765625
864.256899427402	2590.19995117188
864.970501310423	2574.80004882813
865.684013717114	2556.39990234375
866.397436655325	2531.19995117188
867.110770132901	2542.80004882813
867.824014157691	2533.39990234375
868.537168737542	2528.19995117188
869.250233880299	2527.19995117188
869.963209593803	2530.80004882813
870.676095885902	2529.80004882813
871.388892764445	2554.80004882813
872.101600237276	2522.39990234375
872.814218312233	2525.80004882813
873.526746997165	2500
874.239186299914	2500.60009765625
874.951536228323	2512
875.663796790231	2517.60009765625
876.375967993487	2511.19995117188
877.088049845928	2508.60009765625
877.8000423554	2491.39990234375
878.511945529739	2517
879.22375937679	2489.19995117188
879.935483904388	2502.80004882813
880.64711912038	2487.19995117188
881.358665032604	2524.60009765625
882.070121648892	2515.39990234375
882.78148897709	2508.80004882813
883.492767025039	2530.19995117188
884.203955800571	2517.80004882813
884.915055311525	2523.60009765625
885.626065565741	2511.19995117188
886.336986571053	2491
887.047818335298	2486.80004882813
887.758560866315	2465.19995117188
888.469214171937	2481.60009765625
889.179778260005	2493.80004882813
889.890253138347	2469
890.600638814803	2473.19995117188
891.310935297204	2449.39990234375
892.021142593385	2483.19995117188
892.731260711183	2487.80004882813
893.441289658429	2493.19995117188
894.15122944295	2499.19995117188
894.861080072591	2494.60009765625
895.570841555173	2488.80004882813
896.280513898534	2487.19995117188
896.990097110503	2486.39990234375
897.699591198913	2508
898.408996171595	2514.80004882813
899.118312036375	2534
899.827538801089	2527.19995117188
900.536676473561	2515.80004882813
901.245725061628	2509.60009765625
901.954684573109	2522.60009765625
902.663555015838	2567.80004882813
903.372336397644	2576
904.081028726351	2592.19995117188
904.789632009793	2605.39990234375
905.49814625579	2615.60009765625
906.20657147217	2602
906.914907666765	2585.80004882813
907.623154847391	2532.19995117188
908.331313021885	2515.80004882813
909.039382198064	2514.80004882813
909.747362383754	2506.39990234375
910.455253586782	2520.19995117188
911.163055814972	2521
911.870769076143	2535.80004882813
912.578393378126	2529.19995117188
913.285928728738	2504.80004882813
913.993375135802	2513
914.700732607145	2512.80004882813
915.408001150579	2535.19995117188
916.115180773937	2519.39990234375
916.822271485037	2514
917.529273291693	2502.39990234375
918.236186201733	2521.19995117188
918.943010222971	2518.39990234375
919.649745363234	2523.80004882813
920.356391630333	2507.39990234375
921.062949032096	2492.39990234375
921.769417576333	2505.80004882813
922.475797270864	2480.39990234375
923.182088123512	2526.80004882813
923.888290142089	2511
924.594403334414	2530.60009765625
925.300427708304	2538.80004882813
926.006363271572	2541.80004882813
926.712210032039	2541.60009765625
927.417967997522	2516
928.123637175827	2507.39990234375
928.829217574776	2547.19995117188
929.534709202184	2532.19995117188
930.240112065859	2527.60009765625
930.945426173621	2524
931.650651533283	2512.19995117188
932.355788152653	2519.60009765625
933.060836039547	2499.80004882813
933.765795201776	2514.80004882813
934.470665647153	2472.19995117188
935.175447383492	2460.80004882813
935.880140418599	2486
936.584744760286	2465.60009765625
937.289260416366	2482.19995117188
937.993687394647	2474.19995117188
938.698025702939	2483.39990234375
939.402275349051	2508.39990234375
940.106436340793	2517.39990234375
940.810508685976	2520.80004882813
941.5144923924	2509.39990234375
942.21838746788	2507
942.922193920223	2489.60009765625
943.625911757231	2480
944.329540986716	2485.60009765625
945.033081616484	2470.19995117188
945.736533654334	2448
946.439897108083	2453.60009765625
947.143171985529	2445
947.846358294477	2427
948.549456042732	2436.60009765625
949.2524652381	2439.19995117188
949.955385888382	2468.80004882813
950.658218001384	2475.39990234375
951.360961584907	2465.80004882813
952.063616646755	2462.19995117188
952.766183194733	2484
953.468661236636	2501.60009765625
954.171050780271	2466.80004882813
954.873351833437	2481.60009765625
955.575564403935	2479.80004882813
956.277688499565	2461.39990234375
956.97972412813	2480.19995117188
957.681671297424	2449.19995117188
958.383530015255	2475
959.085300289414	2462
959.786982127703	2477
960.488575537918	2470.39990234375
961.190080527859	2475.39990234375
961.891497105327	2466.19995117188
962.592825278111	2435.60009765625
963.294065054012	2428.80004882813
963.995216440829	2425.60009765625
964.696279446353	2432.39990234375
965.397254078383	2439.60009765625
966.098140344714	2436
966.798938253139	2439.80004882813
967.499647811456	2452.19995117188
968.200269027458	2444.80004882813
968.900801908937	2417.80004882813
969.601246463685	2433
970.3016026995	2420
971.001870624169	2380
971.702050245491	2379.60009765625
972.402141571249	2390.19995117188
973.102144609245	2373
973.802059367267	2373.39990234375
974.501885853103	2395.19995117188
975.201624074541	2413.60009765625
975.901274039379	2437.39990234375
976.600835755399	2445.60009765625
977.3003092304	2441
977.999694472158	2452.60009765625
978.698991488473	2448.60009765625
979.39820028713	2426
980.097320875915	2426.39990234375
980.796353262618	2428.39990234375
981.495297455024	2455.39990234375
982.194153460919	2451.19995117188
982.892921288093	2466.60009765625
983.591600944331	2452
984.290192437419	2450.60009765625
984.98869577514	2452.80004882813
985.687110965282	2452.19995117188
986.385438015629	2436.80004882813
987.083676933961	2418.19995117188
987.781827728069	2406.19995117188
988.479890405732	2400.19995117188
989.177864974732	2393.39990234375
989.875751442857	2421.80004882813
990.573549817888	2434.19995117188
991.271260107602	2442.60009765625
991.968882319786	2464.39990234375
992.666416462217	2463.19995117188
993.363862542681	2436
994.061220568959	2423.80004882813
994.758490548823	2393.80004882813
995.455672490061	2392.19995117188
996.152766400451	2396.19995117188
996.849772287773	2410.80004882813
997.5466901598	2397.80004882813
998.243520024317	2400
998.940261889097	2400.80004882813
999.636915761923	2387.80004882813
1000.33348165057	2367.80004882813
1001.02995956281	2386.19995117188
1001.72634950643	2361.39990234375
1002.42265148919	2360.60009765625
1003.11886551889	2378.60009765625
1003.81499160328	2413.39990234375
1004.51102975015	2426.19995117188
1005.20697996727	2419.80004882813
1005.90284226242	2414.39990234375
1006.59861664337	2396.60009765625
1007.2943031179	2400.39990234375
1007.98990169377	2433.60009765625
1008.68541237876	2441
1009.38083518064	2460.60009765625
1010.07617010719	2464.80004882813
1010.77141716617	2475
1011.46657636536	2470.39990234375
1012.16164771253	2475.60009765625
1012.85663121546	2455.60009765625
1013.5515268819	2434.39990234375
1014.24633471963	2411.80004882813
1014.94105473642	2389
1015.63568694004	2394.60009765625
1016.33023133826	2412.60009765625
1017.02468793885	2411.19995117188
1017.71905674957	2404.39990234375
1018.41333777819	2409.60009765625
1019.10753103249	2393.80004882813
1019.80163652022	2414.60009765625
1020.49565424916	2407.80004882813
1021.18958422707	2395
1021.88342646171	2416.80004882813
1022.57718096085	2427.39990234375
1023.27084773227	2409.39990234375
1023.96442678371	2404.39990234375
1024.65791812296	2389.80004882813
1025.35132175776	2386.19995117188
1026.04463769589	2359.60009765625
1026.73786594511	2345.39990234375
1027.43100651318	2326.39990234375
1028.12405940786	2346.80004882813
1028.81702463692	2355.19995117188
1029.50990220812	2364.19995117188
1030.20269212921	2364
1030.89539440798	2387.80004882813
1031.58800905216	2367
1032.28053606952	2364.80004882813
1032.97297546784	2338.80004882813
1033.66532725485	2346.60009765625
1034.35759143832	2373.60009765625
1035.04976802602	2383
1035.7418570257	2402.60009765625
1036.43385844511	2381.19995117188
1037.12577229202	2364.39990234375
1037.81759857419	2370.19995117188
1038.50933729937	2367.60009765625
1039.20098847531	2383
1039.89255210978	2393.39990234375
1040.58402821053	2396
1041.27541678532	2378.80004882813
1041.96671784191	2359.39990234375
1042.65793138804	2349.39990234375
1043.34905743147	2335.39990234375
1044.04009597996	2365.60009765625
1044.73104704125	2381.60009765625
1045.42191062312	2375.60009765625
1046.1126867333	2387
1046.80337537955	2363.80004882813
1047.49397656962	2361.39990234375
1048.18449031127	2356.19995117188
1048.87491661225	2352.80004882813
1049.5652554803	2363
1050.25550692319	2333.19995117188
1050.94567094865	2333.60009765625
1051.63574756444	2354.39990234375
1052.32573677832	2359.39990234375
1053.01563859803	2363.39990234375
1053.70545303131	2382.19995117188
1054.39518008592	2365.39990234375
1055.08481976961	2355
1055.77437209013	2351.19995117188
1056.46383705522	2359.19995117188
1057.15321467262	2358
1057.8425049501	2360.80004882813
1058.53170789539	2338
1059.22082351624	2320
1059.9098518204	2317.39990234375
1060.59879281561	2294.60009765625
1061.28764650962	2292.60009765625
1061.97641291016	2315
1062.665092025	2311.60009765625
1063.35368386187	2314.80004882813
1064.04218842851	2305.80004882813
1064.73060573268	2294.39990234375
1065.4189357821	2278.80004882813
1066.10717858452	2272.80004882813
1066.7953341477	2272.80004882813
1067.48340247936	2257.60009765625
1068.17138358725	2270.60009765625
1068.85927747912	2276.80004882813
1069.5470841627	2308.60009765625
1070.23480364573	2332
1070.92243593595	2337.39990234375
1071.60998104111	2344.39990234375
1072.29743896894	2348.60009765625
1072.98480972718	2320.39990234375
1073.67209332357	2355.60009765625
1074.35928976585	2342.60009765625
1075.04639906176	2334
1075.73342121903	2340.80004882813
1076.42035624541	2346.39990234375
1077.10720414862	2349
1077.79396493641	2364.19995117188
1078.48063861651	2351
1079.16722519666	2359.80004882813
1079.85372468459	2356.39990234375
1080.54013708804	2335
1081.22646241474	2320.60009765625
1081.91270067243	2311.39990234375
1082.59885186884	2339.39990234375
1083.28491601171	2337.60009765625
1083.97089310877	2368.80004882813
1084.65678316774	2349.19995117188
1085.34258619637	2384.60009765625
1086.02830220239	2368.60009765625
1086.71393119352	2372
1087.39947317751	2371.39990234375
1088.08492816207	2359.39990234375
1088.77029615495	2388
1089.45557716387	2366.80004882813
1090.14077119656	2374
1090.82587826075	2373.39990234375
1091.51089836417	2357.19995117188
1092.19583151456	2345.39990234375
1092.88067771963	2346.39990234375
1093.56543698712	2341.19995117188
1094.25010932475	2313.60009765625
1094.93469474026	2305.60009765625
1095.61919324137	2321
1096.3036048358	2314.60009765625
1096.98792953129	2322
1097.67216733555	2319.60009765625
1098.35631825632	2324
1099.04038230132	2340.19995117188
1099.72435947828	2351
1100.40824979492	2325
1101.09205325895	2306.19995117188
1101.77576987812	2280.39990234375
1102.45939966014	2283.39990234375
1103.14294261273	2263.60009765625
1103.82639874362	2234.19995117188
1104.50976806054	2236.80004882813
1105.19305057119	2253.19995117188
1105.87624628331	2260.60009765625
1106.55935520461	2268.80004882813
1107.24237734283	2300
1107.92531270566	2280.60009765625
1108.60816130085	2304.80004882813
1109.2909231361	2286.19995117188
1109.97359821914	2316.39990234375
1110.65618655768	2308.80004882813
1111.33868815946	2338.39990234375
1112.02110303217	2343
1112.70343118355	2350.60009765625
1113.3856726213	2342.60009765625
1114.06782735316	2354.39990234375
1114.74989538683	2352
1115.43187673002	2338.60009765625
1116.11377139047	2304
1116.79557937588	2293
1117.47730069397	2284.80004882813
1118.15893535245	2308
1118.84048335904	2337
1119.52194472146	2330.19995117188
1120.20331944741	2317.19995117188
1120.88460754462	2316.19995117188
1121.56580902079	2304.60009765625
1122.24692388364	2314.19995117188
1122.92795214088	2323.60009765625
1123.60889380022	2331.60009765625
1124.28974886938	2369
1124.97051735606	2384.80004882813
1125.65119926799	2415
1126.33179461286	2422
1127.0123033984	2407.39990234375
1127.6927256323	2395.19995117188
1128.37306132229	2361.19995117188
1129.05331047606	2366.19995117188
1129.73347310134	2358.60009765625
1130.41354920582	2356.60009765625
1131.09353879722	2379.39990234375
1131.77344188324	2367.19995117188
1132.45325847159	2358.39990234375
1133.13298856999	2369.60009765625
1133.81263218612	2374
1134.49218932772	2383.39990234375
1135.17166000247	2360
1135.85104421809	2339.60009765625
1136.53034198227	2305.19995117188
1137.20955330274	2294
1137.88867818718	2284
1138.56771664331	2269
1139.24666867883	2246
1139.92553430144	2272.19995117188
1140.60431351885	2283.39990234375
1141.28300633876	2288.19995117188
1141.96161276887	2292.60009765625
1142.64013281689	2315
1143.31856649051	2328
1143.99691379744	2304
1144.67517474538	2307.60009765625
1145.35334934203	2299.80004882813
1146.03143759509	2305.19995117188
1146.70943951226	2310
1147.38735510125	2286.80004882813
1148.06518436974	2284.80004882813
1148.74292732545	2261.60009765625
1149.42058397606	2236.19995117188
1150.09815432928	2233.19995117188
1150.7756383928	2253.39990234375
1151.45303617432	2249.39990234375
1152.13034768155	2255
1152.80757292217	2272.60009765625
1153.48471190389	2302.39990234375
1154.16176463439	2313.60009765625
1154.83873112138	2289
1155.51561137255	2276.60009765625
1156.1924053956	2259.80004882813
1156.86911319822	2287.19995117188
1157.5457347881	2297.39990234375
1158.22227017294	2323.60009765625
1158.89871936044	2301.39990234375
1159.57508235828	2309.80004882813
1160.25135917416	2298.19995117188
1160.92754981578	2301
1161.60365429081	2291.39990234375
1162.27967260697	2292
1162.95560477193	2270.39990234375
1163.63145079339	2251
1164.30721067904	2256.60009765625
1164.98288443657	2247.39990234375
1165.65847207367	2256.60009765625
1166.33397359803	2245.39990234375
1167.00938901735	2260.39990234375
1167.6847183393	2258
1168.35996157157	2289.60009765625
1169.03511872187	2277.80004882813
1169.71018979787	2291.60009765625
1170.38517480726	2291.39990234375
1171.06007375773	2291.80004882813
1171.73488665696	2282.19995117188
1172.40961351265	2268.39990234375
1173.08425433247	2264
1173.75880912412	2287
1174.43327789528	2290.80004882813
1175.10766065364	2317
1175.78195740687	2328
1176.45616816267	2355.19995117188
1177.13029292871	2387.39990234375
1177.80433171269	2387
1178.47828452229	2366.60009765625
1179.15215136518	2372.19995117188
1179.82593224905	2370.60009765625
1180.49962718159	2358.19995117188
1181.17323617047	2362.80004882813
1181.84675922337	2357.80004882813
1182.52019634799	2369
1183.193547552	2389.60009765625
1183.86681284307	2387
1184.53999222889	2380.19995117188
1185.21308571714	2384.80004882813
1185.8860933155	2383.80004882813
1186.55901503165	2364.19995117188
1187.23185087326	2373.60009765625
1187.90460084802	2350.80004882813
1188.5772649636	2383.60009765625
1189.24984322768	2371.19995117188
1189.92233564794	2366
1190.59474223206	2371.80004882813
1191.2670629877	2368.80004882813
1191.93929792255	2378
1192.61144704428	2359.80004882813
1193.28351036058	2357
1193.9554878791	2344.80004882813
1194.62737960754	2328
1195.29918555356	2327.80004882813
1195.97090572483	2318.60009765625
1196.64254012903	2321.60009765625
1197.31408877384	2333.60009765625
1197.98555166693	2348.60009765625
1198.65692881596	2335
1199.32822022862	2323.39990234375
1199.99942591256	2322.19995117188
1200.67054587548	2311.80004882813
1201.34158012503	2296.80004882813
1202.01252866889	2289.80004882813
1202.68339151473	2297
1203.35416867021	2265.19995117188
1204.02486014301	2268.39990234375
1204.6954659408	2272.39990234375
1205.36598607124	2270.60009765625
1206.03642054201	2287.19995117188
1206.70676936078	2284.39990234375
1207.3770325352	2285.60009765625
1208.04721007295	2277.80004882813
1208.7173019817	2256
1209.38730826911	2250.19995117188
1210.05722894285	2236.80004882813
1210.72706401059	2228.39990234375
1211.39681347999	2229.60009765625
1212.06647735872	2222.60009765625
1212.73605565444	2217.19995117188
1213.40554837481	2216.80004882813
1214.07495552751	2240.60009765625
1214.74427712019	2220.60009765625
1215.41351316052	2244.80004882813
1216.08266365617	2244.80004882813
1216.75172861479	2240.19995117188
1217.42070804405	2237.19995117188
1218.0896019516	2213.39990234375
1218.75841034513	2206.19995117188
1219.42713323227	2201
1220.0957706207	2232.80004882813
1220.76432251808	2246.39990234375
1221.43278893207	2235.60009765625
1222.10116987032	2251.19995117188
1222.7694653405	2256.60009765625
1223.43767535026	2271.19995117188
1224.10579990727	2267.80004882813
1224.77383901918	2247
1225.44179269366	2254.80004882813
1226.10966093835	2241.39990234375
1226.77744376093	2241.19995117188
1227.44514116904	2237.80004882813
1228.11275317034	2268.39990234375
1228.78027977249	2242
1229.44772098315	2245.60009765625
1230.11507680996	2233
1230.7823472606	2234.60009765625
1231.44953234271	2218.39990234375
1232.11663206394	2225.60009765625
1232.78364643195	2194.19995117188
1233.4505754544	2179.60009765625
1234.11741913894	2178.80004882813
1234.78417749322	2190.19995117188
1235.45085052489	2199.80004882813
1236.11743824162	2174.60009765625
1236.78394065104	2164.60009765625
1237.45035776082	2164.19995117188
1238.1166895786	2174.80004882813
1238.78293611204	2172
1239.44909736878	2197.19995117188
1240.11517335648	2193.39990234375
1240.78116408279	2208.80004882813
1241.44706955535	2205.39990234375
1242.11288978182	2204.39990234375
1242.77862476985	2212
1243.44427452708	2195.19995117188
1244.10983906116	2178
1244.77531837974	2174.60009765625
1245.44071249047	2175
1246.106021401	2160.80004882813
1246.77124511898	2177.39990234375
1247.43638365204	2178.80004882813
1248.10143700783	2162.19995117188
1248.76640519401	2180.19995117188
1249.43128821822	2160.60009765625
1250.0960860881	2152
1250.76079881129	2161.19995117188
1251.42542639545	2164.60009765625
1252.08996884822	2146
1252.75442617723	2156.60009765625
1253.41879839014	2149.19995117188
1254.08308549458	2165
1254.74728749821	2190.60009765625
1255.41140440866	2188
1256.07543623357	2184.80004882813
1256.73938298059	2180.39990234375
1257.40324465735	2175
1258.0670212715	2169.60009765625
1258.73071283068	2153.39990234375
1259.39431934253	2166.19995117188
1260.05784081468	2177
1260.72127725479	2162
1261.38462867049	2151
1262.0478950694	2152.39990234375
1262.71107645919	2150.60009765625
1263.37417284748	2163.19995117188
1264.03718424191	2177.19995117188
1264.70011065011	2205.19995117188
1265.36295207974	2183.80004882813
1266.02570853841	2173.19995117188
1266.68838003378	2176.39990234375
1267.35096657346	2163.19995117188
1268.01346816511	2157.19995117188
1268.67588481636	2164.60009765625
1269.33821653483	2122.19995117188
1270.00046332817	2121.80004882813
1270.66262520401	2159.39990234375
1271.32470216998	2168.60009765625
1271.98669423372	2150
1272.64860140285	2162.60009765625
1273.31042368503	2139
1273.97216108786	2121.39990234375
1274.633813619	2128.39990234375
1275.29538128606	2135.80004882813
1275.95686409669	2145.60009765625
1276.6182620585	2138.80004882813
1277.27957517914	2152.39990234375
1277.94080346624	2127.80004882813
1278.60194692741	2141.39990234375
1279.2630055703	2154.19995117188
1279.92397940253	2153
1280.58486843173	2168.19995117188
1281.24567266552	2164.60009765625
1281.90639211155	2158.19995117188
1282.56702677743	2164.19995117188
1283.2275766708	2149
1283.88804179927	2134.60009765625
1284.54842217049	2121.39990234375
1285.20871779206	2111.60009765625
1285.86892867163	2121.39990234375
1286.52905481681	2128.60009765625
1287.18909623523	2131
1287.84905293452	2135.80004882813
1288.5089249223	2144.39990234375
1289.16871220619	2141
1289.82841479383	2174.80004882813
1290.48803269282	2195.19995117188
1291.1475659108	2200
1291.80701445539	2165.80004882813
1292.46637833421	2177.39990234375
1293.12565755489	2159.80004882813
1293.78485212504	2112.39990234375
1294.44396205229	2121.80004882813
1295.10298734425	2110.39990234375
1295.76192800856	2130.39990234375
1296.42078405283	2132
1297.07955548467	2131
1297.73824231171	2160
1298.39684454158	2157
1299.05536218188	2180.60009765625
1299.71379524023	2178.39990234375
1300.37214372427	2209
1301.03040764159	2177.80004882813
1301.68858699983	2173.60009765625
1302.34668180659	2194.39990234375
1303.0046920695	2188.80004882813
1303.66261779617	2195.39990234375
1304.32045899422	2202.19995117188
1304.97821567126	2182.19995117188
1305.63588783492	2214.19995117188
1306.29347549279	2194
1306.95097865251	2182
1307.60839732168	2192.19995117188
1308.26573150791	2188.80004882813
1308.92298121883	2204.19995117188
1309.58014646204	2216.39990234375
1310.23722724517	2223.80004882813
1310.89422357581	2217.39990234375
1311.55113546158	2237.60009765625
1312.2079629101	2246.60009765625
1312.86470592898	2221.80004882813
1313.52136452582	2236.80004882813
1314.17793870824	2240.80004882813
1314.83442848386	2237
1315.49083386027	2235.80004882813
1316.14715484509	2214.39990234375
1316.80339144594	2232.60009765625
1317.45954367041	2213.39990234375
1318.11561152611	2223.19995117188
1318.77159502067	2207.19995117188
1319.42749416168	2234
1320.08330895674	2226.60009765625
1320.73903941348	2222.60009765625
1321.3946855395	2194.39990234375
1322.0502473424	2185.80004882813
1322.70572482978	2193.80004882813
1323.36111800926	2178.39990234375
1324.01642688845	2147.60009765625
1324.67165147494	2169.19995117188
1325.32679177634	2175.19995117188
1325.98184780025	2185.60009765625
1326.63681955429	2160.39990234375
1327.29170704605	2157
1327.94651028314	2122
1328.60122927316	2122.19995117188
1329.25586402371	2125.39990234375
1329.9104145424	2113.39990234375
1330.56488083683	2122
1331.2192629146	2122.60009765625
1331.87356078331	2112.60009765625
1332.52777445056	2135.19995117188
1333.18190392395	2132.39990234375
1333.83594921109	2120.39990234375
1334.48991031958	2112.39990234375
1335.143787257	2104.39990234375
1335.79758003097	2099.19995117188
1336.45128864908	2082.39990234375
1337.10491311893	2106.19995117188
1337.75845344813	2101.80004882813
1338.41190964425	2109.39990234375
1339.06528171491	2125.80004882813
1339.71856966771	2108.39990234375
1340.37177351023	2116
1341.02489325007	2087.19995117188
1341.67792889484	2068.80004882813
1342.33088045212	2065.80004882813
1342.98374792952	2044.59997558594
1343.63653133462	2072.80004882813
1344.28923067503	2087.80004882813
1344.94184595833	2101.80004882813
1345.59437719212	2118.60009765625
1346.246824384	2128.19995117188
1346.89918754155	2139.19995117188
1347.55146667238	2147.19995117188
1348.20366178407	2148.39990234375
1348.85577288421	2156
1349.50779998041	2164.19995117188
1350.15974308024	2155.60009765625
1350.8116021913	2147.80004882813
1351.46337732119	2157
1352.11506847748	2147.19995117188
1352.76667566778	2147.80004882813
1353.41819889967	2166.80004882813
1354.06963818074	2163.60009765625
1354.72099351858	2172
1355.37226492079	2187.60009765625
1356.02345239494	2183.80004882813
1356.67455594862	2226.39990234375
1357.32557558943	2249
1357.97651132496	2266.60009765625
1358.62736316277	2291
1359.27813111048	2318
1359.92881517565	2334.19995117188
1360.57941536589	2366
1361.22993168876	2376.19995117188
1361.88036415186	2360.80004882813
1362.53071276278	2375.80004882813
1363.1809775291	2393.60009765625
1363.8311584584	2413
1364.48125555826	2431.19995117188
1365.13126883627	2390.80004882813
1365.78119830001	2340.60009765625
1366.43104395707	2321
1367.08080581503	2285.60009765625
1367.73048388147	2255.80004882813
1368.38007816397	2263.60009765625
1369.02958867011	2253.39990234375
1369.67901540748	2231
1370.32835838365	2226.80004882813
1370.9776176062	2205.19995117188
1371.62679308273	2191.80004882813
1372.27588482079	2176.19995117188
1372.92489282798	2171.60009765625
1373.57381711188	2181.19995117188
1374.22265768006	2176.60009765625
1374.87141454009	2135.80004882813
1375.52008769957	2134.60009765625
1376.16867716606	2107
1376.81718294715	2125
1377.4656050504	2119
1378.1139434834	2105.19995117188
1378.76219825373	2109
1379.41036936895	2113.80004882813
1380.05845683664	2103.80004882813
1380.70646066439	2104.39990234375
1381.35438085976	2076.80004882813
1382.00221743032	2095.80004882813
1382.64997038366	2090.19995117188
1383.29763972735	2110.39990234375
1383.94522546895	2108.60009765625
1384.59272761605	2125.60009765625
1385.24014617621	2113.39990234375
1385.88748115701	2114.60009765625
1386.53473256602	2097.80004882813
1387.18190041081	2100.60009765625
1387.82898469895	2102.80004882813
1388.47598543802	2090.19995117188
1389.12290263558	2078
1389.7697362992	2054
1390.41648643646	2038.59997558594
1391.06315305492	2030.80004882813
1391.70973616215	2015.40002441406
1392.35623576573	2007.59997558594
1393.00265187321	2024.80004882813
1393.64898449217	2007.40002441406
1394.29523363018	2021.40002441406
1394.94139929481	2027.19995117188
1395.58748149361	2029.19995117188
1396.23348023415	2018
1396.87939552402	2017.40002441406
1397.52522737076	2024.19995117188
1398.17097578195	1992.19995117188
1398.81664076514	1981.40002441406
1399.46222232792	1953.19995117188
1400.10772047783	1938
1400.75313522245	1935.59997558594
1401.39846656934	1928.40002441406
1402.04371452605	1948.40002441406
1402.68887910016	1938.40002441406
1403.33396029924	1941.40002441406
1403.97895813083	1952.40002441406
1404.6238726025	1980.80004882813
1405.26870372182	1984.19995117188
1405.91345149634	1998.80004882813
1406.55811593363	1983
1407.20269704125	1999.19995117188
1407.84719482676	1967.40002441406
1408.49160929772	1990.19995117188
1409.13594046168	1986
1409.78018832622	1987.19995117188
1410.42435289887	1996
1411.06843418722	1991.40002441406
1411.7124321988	1978.40002441406
1412.3563469412	1977.80004882813
1413.00017842194	1987
1413.64392664861	2006.59997558594
1414.28759162875	2009.40002441406
1414.93117336992	1996.40002441406
1415.57467187967	1999.59997558594
1416.21808716557	1977.59997558594
1416.86141923516	1996.40002441406
1417.50466809601	2024.19995117188
1418.14783375567	2024.80004882813
1418.79091622169	2018.59997558594
1419.43391550162	2003.19995117188
1420.07683160303	1982.80004882813
1420.71966453346	1981.80004882813
1421.36241430046	1988.40002441406
1422.0050809116	2011.19995117188
1422.64766437442	2022
1423.29016469647	2021.80004882813
1423.93258188531	2026.40002441406
1424.57491594848	2023.80004882813
1425.21716689354	2016.19995117188
1425.85933472805	2020.80004882813
1426.50141945954	2029
1427.14342109557	2021.80004882813
1427.78533964369	2001.40002441406
1428.42717511144	2003.40002441406
1429.06892750639	1972.59997558594
1429.71059683607	1969.19995117188
1430.35218310803	1974.40002441406
1430.99368632983	1983.80004882813
1431.635106509	1985.80004882813
1432.2764436531	1982.59997558594
1432.91769776967	1993.19995117188
1433.55886886627	2008.19995117188
1434.19995695043	2019
1434.84096202969	2018.59997558594
1435.48188411162	2029.59997558594
1436.12272320375	2008.40002441406
1436.76347931363	2018.19995117188
1437.40415244879	2008
1438.0447426168	2017
1438.68524982518	2021.59997558594
1439.32567408148	2016.40002441406
1439.96601539325	2008.80004882813
1440.60627376803	1998.40002441406
1441.24644921336	1986.59997558594
1441.88654173678	1963.40002441406
1442.52655134583	1963.40002441406
1443.16647804806	1982.40002441406
1443.806321851	1991.59997558594
1444.4460827622	1991.59997558594
1445.0857607892	1991.59997558594
1445.72535593953	1973.19995117188
1446.36486822074	1982
1447.00429764037	1971.40002441406
1447.64364420595	1966.59997558594
1448.28290792502	1953
1448.92208880512	1947.80004882813
1449.56118685379	1953.59997558594
1450.20020207857	1963.59997558594
1450.83913448699	1949.59997558594
1451.47798408659	1943
1452.1167508849	1961
1452.75543488947	1969.40002441406
1453.39403610782	1958.40002441406
1454.0325545475	1949.19995117188
1454.67099021603	1922.59997558594
1455.30934312097	1946.59997558594
1455.94761326982	1966
1456.58580067014	1943.40002441406
1457.22390532945	1944.59997558594
1457.86192725529	1967
1458.49986645519	1959.59997558594
1459.13772293668	1959
1459.7754967073	1961.59997558594
1460.41318777457	1930
1461.05079614604	1931.59997558594
1461.68832182922	1927.59997558594
1462.32576483166	1905.59997558594
1462.96312516087	1897
1463.6004028244	1904.59997558594
1464.23759782977	1927.80004882813
1464.8747101845	1931.80004882813
1465.51173989614	1962.19995117188
1466.14868697221	1943.40002441406
1466.78555142024	1954.80004882813
1467.42233324774	1959.80004882813
1468.05903246227	1929
1468.69564907133	1902.59997558594
1469.33218308246	1915.19995117188
1469.96863450317	1902.40002441406
1470.60500334102	1921
1471.2412896035	1928.59997558594
1471.87749329816	1943.40002441406
1472.51361443251	1938.19995117188
1473.14965301409	1954.59997558594
1473.78560905041	1976
1474.421482549	1995
1475.05727351739	1962.59997558594
1475.69298196309	1962.59997558594
1476.32860789364	1982.80004882813
1476.96415131654	1966.80004882813
1477.59961223934	1964.59997558594
1478.23499066954	1945.59997558594
1478.87028661467	1938
1479.50550008226	1939.59997558594
1480.14063107981	1951
1480.77567961486	1964.80004882813
1481.41064569492	1968.59997558594
1482.04552932752	1951.40002441406
1482.68033052017	1961.19995117188
1483.31504928039	1967.19995117188
1483.9496856157	1958
1484.58423953363	1970
1485.21871104168	1966.80004882813
1485.85310014738	1961.80004882813
1486.48740685824	1946
1487.12163118178	1942
1487.75577312553	1937.40002441406
1488.38983269698	1938.80004882813
1489.02380990367	1935.40002441406
1489.65770475311	1937
1490.29151725281	1944.19995117188
1490.92524741029	1952.19995117188
1491.55889523306	1960.59997558594
1492.19246072863	1968.40002441406
1492.82594390453	1965.40002441406
1493.45934476826	1971.19995117188
1494.09266332734	1983.80004882813
1494.72589958928	1985.59997558594
1495.3590535616	1997.19995117188
1495.99212525181	2005.19995117188
1496.62511466741	2011.19995117188
1497.25802181592	1992
1497.89084670485	2007.80004882813
1498.52358934172	2005.40002441406
1499.15624973403	2015
1499.7888278893	2005.40002441406
1500.42132381503	2011.59997558594
1501.05373751873	2036.59997558594
1501.68606900792	2056.19995117188
1502.31831829009	2050.39990234375
1502.95048537277	2079.39990234375
1503.58257026346	2099
1504.21457296966	2124.80004882813
1504.84649349889	2158.39990234375
1505.47833185864	2186.60009765625
1506.11008805644	2193
1506.74176209978	2182.80004882813
1507.37335399617	2166.80004882813
1508.00486375312	2145.39990234375
1508.63629137813	2134.80004882813
1509.2676368787	2132.19995117188
1509.89890026235	2124.39990234375
1510.53008153658	2111.39990234375
1511.16118070889	2102.80004882813
1511.79219778677	2116.19995117188
1512.42313277775	2105
1513.05398568932	2085.39990234375
1513.68475652898	2082.39990234375
1514.31544530424	2084
1514.9460520226	2068.60009765625
1515.57657669155	2045.80004882813
1516.20701931861	2022.80004882813
1516.83737991127	2023.80004882813
1517.46765847702	1990.59997558594
1518.09785502339	2003.59997558594
1518.72796955785	1997
1519.35800208792	1999
1519.98795262109	1994.80004882813
1520.61782116486	1993.40002441406
1521.24760772673	1955.59997558594
1521.87731231419	1980.40002441406
1522.50693493475	1949.19995117188
1523.1364755959	1963.59997558594
1523.76593430514	1954.80004882813
1524.39531106997	1944
1525.02460589788	1943.19995117188
1525.65381879637	1939.40002441406
1526.28294977293	1929.59997558594
1526.91199883507	1918.40002441406
1527.54096599027	1910.59997558594
1528.16985124603	1887.80004882813
1528.79865460984	1891.40002441406
1529.4273760892	1909.19995117188
1530.05601569161	1912.40002441406
1530.68457342455	1939.80004882813
1531.31304929552	1930.59997558594
1531.94144331201	1946.80004882813
1532.56975548151	1957.80004882813
1533.19798581152	1978.19995117188
1533.82613430953	1983.19995117188
1534.45420098302	1972.19995117188
1535.08218583949	1970.40002441406
1535.71008888643	1953
1536.33791013134	1961
1536.96564958169	1937.59997558594
1537.59330724498	1952.40002441406
1538.22088312871	1935.59997558594
1538.84837724034	1911.80004882813
1539.47578958739	1912.80004882813
1540.10312017733	1911
1540.73036901765	1932.40002441406
1541.35753611584	1906.19995117188
1541.98462147939	1914.19995117188
1542.61162511578	1907.40002441406
1543.2385470325	1918.19995117188
1543.86538723704	1907.40002441406
1544.49214573688	1902.80004882813
1545.11882253951	1903
1545.74541765241	1917.80004882813
1546.37193108306	1921
1546.99836283896	1914
1547.62471292758	1907.80004882813
1548.25098135641	1901.80004882813
1548.87716813294	1894.80004882813
1549.50327326464	1892.80004882813
1550.12929675899	1891.59997558594
1550.75523862349	1890.80004882813
1551.38109886561	1880.40002441406
1552.00687749284	1895.40002441406
1552.63257451264	1904.59997558594
1553.25818993252	1914.59997558594
1553.88372375994	1907.59997558594
1554.50917600239	1895
1555.13454666734	1879
1555.75983576228	1869.19995117188
1556.38504329469	1884.59997558594
1557.01016927204	1870.40002441406
1557.63521370181	1859.59997558594
1558.26017659149	1854.59997558594
1558.88505794854	1872.80004882813
1559.50985778045	1873
1560.13457609469	1868.80004882813
1560.75921289874	1873.80004882813
1561.38376820008	1871.40002441406
1562.00824200618	1875.80004882813
1562.63263432452	1884.80004882813
1563.25694516257	1896.80004882813
1563.88117452781	1892.19995117188
1564.50532242772	1889.40002441406
1565.12938886976	1888.80004882813
1565.75337386141	1879
1566.37727741015	1860
1567.00109952345	1870
1567.62484020878	1856.19995117188
1568.24849947361	1886.40002441406
1568.87207732542	1881
1569.49557377168	1894.59997558594
1570.11898881986	1904.80004882813
1570.74232247743	1913.40002441406
1571.36557475186	1902.19995117188
1571.98874565062	1902
1572.61183518119	1923.80004882813
1573.23484335103	1926.40002441406
1573.85777016761	1927.40002441406
1574.4806156384	1965.40002441406
1575.10337977088	1974.59997558594
1575.7260625725	1981.19995117188
1576.34866405074	1978
1576.97118421306	1969.80004882813
1577.59362306694	1956.59997558594
1578.21598061984	1961.40002441406
1578.83825687922	1971.40002441406
1579.46045185255	1936.80004882813
1580.08256554731	1946.80004882813
1580.70459797094	1914.80004882813
1581.32654913093	1918.19995117188
1581.94841903473	1904.80004882813
1582.57020768981	1892.80004882813
1583.19191510364	1869.19995117188
1583.81354128367	1857.59997558594
1584.43508623737	1843.80004882813
1585.05654997221	1844.80004882813
1585.67793249564	1834.59997558594
1586.29923381514	1830
1586.92045393815	1818.40002441406
1587.54159287216	1805.40002441406
1588.1626506246	1792.19995117188
1588.78362720296	1787.80004882813
1589.40452261468	1781.19995117188
1590.02533686724	1786.19995117188
1590.64606996808	1782
1591.26672192467	1776.40002441406
1591.88729274447	1782.40002441406
1592.50778243493	1792.40002441406
1593.12819100352	1781.19995117188
1593.7485184577	1805.19995117188
1594.36876480492	1785.59997558594
1594.98893005264	1782
1595.60901420832	1775.40002441406
1596.22901727941	1782.40002441406
1596.84893927338	1803.40002441406
1597.46878019767	1800
1598.08854005975	1806
1598.70821886707	1824
1599.32781662708	1835.59997558594
1599.94733334725	1853.19995117188
1600.56676903502	1830.59997558594
1601.18612369785	1836.59997558594
1601.8053973432	1818.19995117188
1602.42458997851	1803.59997558594
1603.04370161124	1792.80004882813
1603.66273224884	1793
1604.28168189878	1789.40002441406
1604.90055056849	1785.80004882813
1605.51933826543	1776.59997558594
1606.13804499705	1793
1606.75667077081	1774.80004882813
1607.37521559415	1770.40002441406
1607.99367947452	1776.80004882813
1608.61206241938	1765.40002441406
1609.23036443618	1758.40002441406
1609.84858553236	1746.19995117188
1610.46672571537	1736.59997558594
1611.08478499267	1735.40002441406
1611.7027633717	1740.80004882813
1612.3206608599	1754.59997558594
1612.93847746473	1749
1613.55621319364	1759.80004882813
1614.17386805407	1745.80004882813
1614.79144205347	1723.80004882813
1615.40893519928	1729
1616.02634749895	1725.40002441406
1616.64367895993	1712
1617.26092958966	1709.80004882813
1617.87809939559	1712.40002441406
1618.49518838516	1733
1619.11219656582	1745.80004882813
1619.729123945	1717.19995117188
1620.34597053016	1718
1620.96273632874	1715.80004882813
1621.57942134818	1710.40002441406
1622.19602559592	1718.40002441406
1622.8125490794	1715
1623.42899180607	1725.59997558594
1624.04535378337	1713.19995117188
1624.66163501874	1714.40002441406
1625.27783551963	1732.59997558594
1625.89395529346	1733.80004882813
1626.50999434768	1712.40002441406
1627.12595268974	1706.19995117188
1627.74183032707	1700.59997558594
1628.3576272671	1705
1628.97334351729	1667.40002441406
1629.58897908506	1687.80004882813
1630.20453397786	1676
1630.82000820313	1678.40002441406
1631.43540176829	1685.80004882813
1632.05071468079	1699
1632.66594694807	1698.40002441406
1633.28109857756	1717.80004882813
1633.8961695767	1717
1634.51115995292	1709.59997558594
1635.12606971366	1717.59997558594
1635.74089886636	1713.19995117188
1636.35564741844	1731
1636.97031537734	1739.19995117188
1637.58490275051	1735.40002441406
1638.19940954536	1744.19995117188
1638.81383576934	1740.40002441406
1639.42818142987	1739.59997558594
1640.0424465344	1757.19995117188
1640.65663109034	1769.59997558594
1641.27073510515	1779
1641.88475858623	1780.19995117188
1642.49870154104	1774.40002441406
1643.11256397699	1795
1643.72634590152	1795
1644.34004732206	1791.80004882813
1644.95366824604	1805.80004882813
1645.56720868089	1812.40002441406
1646.18066863404	1816.59997558594
1646.79404811291	1815.59997558594
1647.40734712494	1823.80004882813
1648.02056567755	1811.59997558594
1648.63370377817	1807.40002441406
1649.24676143423	1807
1649.85973865316	1828.40002441406
1650.47263544238	1805.40002441406
1651.08545180932	1827
1651.6981877614	1830
1652.31084330606	1842.80004882813
1652.92341845071	1822.59997558594
1653.53591320278	1822.40002441406
1654.1483275697	1808
1654.7606615589	1795.59997558594
1655.37291517778	1773
1655.98508843379	1758.59997558594
1656.59718133434	1745.19995117188
1657.20919388685	1756.19995117188
1657.82112609875	1732.19995117188
1658.43297797747	1734
1659.04474953041	1715.19995117188
1659.65644076501	1707.19995117188
1660.26805168869	1684.40002441406
1660.87958230886	1679.40002441406
1661.49103263294	1673.40002441406
1662.10240266837	1673.59997558594
1662.71369242255	1662
1663.32490190291	1665.19995117188
1663.93603111687	1663.19995117188
1664.54708007184	1648.40002441406
1665.15804877524	1628.80004882813
1665.7689372345	1659.19995117188
1666.37974545703	1665
1666.99047345024	1664.19995117188
1667.60112122156	1651.40002441406
1668.2116887784	1648
1668.82217612818	1646.40002441406
1669.43258327831	1624.80004882813
1670.04291023622	1600.80004882813
1670.65315700931	1597.40002441406
1671.263323605	1572.80004882813
1671.8734100307	1552.40002441406
1672.48341629384	1554.19995117188
1673.09334240182	1541.19995117188
1673.70318836206	1534.40002441406
1674.31295418197	1539.40002441406
1674.92263986896	1530.59997558594
1675.53224543046	1554.80004882813
1676.14177087386	1553
1676.75121620658	1538.59997558594
1677.36058143604	1555.80004882813
1677.96986656964	1548
1678.5790716148	1559.40002441406
1679.18819657892	1551.19995117188
1679.79724146943	1545.19995117188
1680.40620629372	1570.59997558594
1681.0150910592	1577.80004882813
1681.6238957733	1581.19995117188
1682.23262044341	1583.80004882813
1682.84126507694	1600
1683.4498296813	1581.40002441406
1684.0583142639	1599
1684.66671883216	1599.40002441406
1685.27504339346	1586
1685.88328795523	1592.19995117188
1686.49145252487	1574.80004882813
1687.09953710978	1567.19995117188
1687.70754171737	1571.19995117188
1688.31546635505	1565.19995117188
1688.92331103021	1575.40002441406
1689.53107575028	1587
1690.13876052265	1603.19995117188
1690.74636535472	1596.19995117188
1691.3538902539	1591.80004882813
1691.96133522759	1575.40002441406
1692.5687002832	1568.59997558594
1693.17598542812	1574.19995117188
1693.78319066977	1570.40002441406
1694.39031601554	1558.80004882813
1694.99736147283	1542.59997558594
1695.60432704905	1560
1696.2112127516	1571
1696.81801858788	1579.40002441406
1697.42474456528	1589.19995117188
1698.03139069121	1590.40002441406
1698.63795697307	1563.59997558594
1699.24444341826	1566.40002441406
1699.85085003417	1560.19995117188
1700.45717682821	1563.40002441406
1701.06342380778	1557.19995117188
1701.66959098026	1554.59997558594
1702.27567835307	1558.80004882813
1702.88168593359	1555.40002441406
1703.48761372922	1553.80004882813
1704.09346174737	1542.80004882813
1704.69922999542	1538.19995117188
1705.30491848077	1537
1705.91052721083	1548.19995117188
1706.51605619297	1534.80004882813
1707.12150543461	1547.80004882813
1707.72687494312	1534.19995117188
1708.33216472592	1542.80004882813
1708.93737479039	1529.40002441406
1709.54250514392	1525.80004882813
