634.977642221345	1864.80004882813
635.719821695905	1879.19995117188
636.461909203392	1893.80004882813
637.203904751776	1885.40002441406
637.945808349023	1888
638.687620003102	1882.19995117188
639.42933972198	1896.40002441406
640.170967513616	1898
640.912503385981	1903.80004882813
641.653947347041	1878.40002441406
642.395299404758	1855.80004882813
643.13655956709	1850.19995117188
643.877727842014	1831
644.61880423748	1818.59997558594
645.359788761455	1830
646.100681421905	1831.80004882813
646.841482226789	1863.59997558594
647.582191184074	1860.40002441406
648.322808301711	1859.19995117188
649.06333358767	1848
649.803767049909	1833.19995117188
650.544108696385	1850.40002441406
651.28435853506	1875.40002441406
652.024516573894	1882.59997558594
652.764582820849	1878.40002441406
653.504557283875	1902.40002441406
654.244439970937	1907.59997558594
654.984230889991	1902.19995117188
655.723930048995	1912.40002441406
656.463537455909	1906.40002441406
657.203053118683	1924.40002441406
657.942477045275	1929.40002441406
658.681809243647	1935.80004882813
659.421049721747	1924.59997558594
660.160198487535	1922.59997558594
660.899255548962	1922.59997558594
661.638220913985	1909.19995117188
662.377094590559	1932
663.115876586631	1945
663.854566910165	1931.19995117188
664.593165569107	1933.19995117188
665.331672571406	1914
666.07008792502	1902
666.808411637902	1880.19995117188
667.546643717996	1874.40002441406
668.284784173258	1893.19995117188
669.022833011641	1906.59997558594
669.760790241089	1901
670.498655869554	1880.59997558594
671.236429904987	1882.19995117188
671.97411235534	1867
672.711703228551	1889.40002441406
673.449202532577	1891.80004882813
674.186610275364	1909.59997558594
674.923926464857	1941.19995117188
675.661151109008	1936.80004882813
676.398284215759	1959.19995117188
677.135325793058	1964.59997558594
677.87227584885	1944
678.609134391082	1974.40002441406
679.345901427696	1968
680.082576966644	1972
680.819161015861	1979.80004882813
681.555653583298	1961.40002441406
682.292054676895	1945.40002441406
683.028364304594	1927.80004882813
683.764582474344	1948.59997558594
684.500709194083	1945.40002441406
685.236744471752	1941.40002441406
685.972688315294	1933
686.708540732652	1935.80004882813
687.444301731762	1929.80004882813
688.179971320572	1934.59997558594
688.915549507013	1933.80004882813
689.651036299034	1930.59997558594
690.386431704569	1915.19995117188
691.121735731559	1907.19995117188
691.85694838794	1887.19995117188
692.592069681652	1902
693.327099620632	1895.59997558594
694.062038212821	1891.80004882813
694.796885466149	1895
695.531641388561	1907.19995117188
696.266305987987	1911.40002441406
697.000879272367	1921.19995117188
697.735361249632	1946.80004882813
698.469751927722	1940.59997558594
699.204051314568	1948.19995117188
699.938259418107	1938.59997558594
700.672376246272	1930.59997558594
701.406401806997	1946.40002441406
702.140336108212	1935.40002441406
702.874179157855	1942.80004882813
703.607930963856	1978.19995117188
704.341591534147	1956.80004882813
705.07516087666	1951.59997558594
705.808638999324	1939.59997558594
706.542025910073	1962.19995117188
707.275321616841	1962.80004882813
708.008526127549	1942
708.741639450132	1955
709.474661592521	1931.19995117188
710.207592562641	1956.80004882813
710.940432368424	1950.80004882813
711.673181017796	1948.40002441406
712.405838518687	1959.19995117188
713.138404879025	1932
713.870880106731	1944.40002441406
714.603264209738	1937.19995117188
715.335557195971	1956.59997558594
716.067759073357	1967
716.799869849816	1982.80004882813
717.531889533281	1961.59997558594
718.263818131673	1967
718.995655652917	1957.40002441406
719.727402104934	1957
720.45905749565	1951
721.19062183299	1959.59997558594
721.922095124877	1948.59997558594
722.653477379231	1950.19995117188
723.384768603973	1946.40002441406
724.11596880703	1959.59997558594
724.847077996319	1947.59997558594
725.578096179762	1967.40002441406
726.309023365281	1988.59997558594
727.039859560792	1976
727.770604774222	1968
728.501259013484	1985.19995117188
729.231822286501	1977
729.962294601191	1995.80004882813
730.692675965469	1971.40002441406
731.42296638726	1948
732.153165874472	1949
732.883274435032	1967.80004882813
733.613292076851	1952.59997558594
734.343218807843	1974.80004882813
735.07305463593	1985.59997558594
735.802799569028	1965.59997558594
736.532453615048	1957.59997558594
737.262016781904	1961
737.991489077517	1941.40002441406
738.720870509794	1937
739.450161086654	1951
740.179360816009	1939
740.908469705772	1944.80004882813
741.637487763854	1979.80004882813
742.366414998168	1963.59997558594
743.095251416623	1962.80004882813
743.823997027137	1990.80004882813
744.552651837618	2015.59997558594
745.281215855978	2008.80004882813
746.009689090124	2002.40002441406
746.738071547964	1988.80004882813
747.466363237419	1970.19995117188
748.194564166384	1954.59997558594
748.92267434278	1934.19995117188
749.650693774504	1947.40002441406
750.378622469476	1946.59997558594
751.106460435596	1962.80004882813
751.834207680771	1977.80004882813
752.561864212909	1979.40002441406
753.289430039919	1974.59997558594
754.016905169707	1971.59997558594
754.744289610175	1971.59997558594
755.471583369231	1968.80004882813
756.198786454782	1976.80004882813
756.925898874728	1969.19995117188
757.652920636979	1956
758.379851749433	1958.80004882813
759.106692219996	1960.59997558594
759.833442056572	1983.19995117188
760.560101267063	2007.80004882813
761.28666985937	2037.59997558594
762.0131478414	2015
762.739535221046	2023.19995117188
763.465832006219	2023
764.192038204812	2025.59997558594
764.918153824731	2020.40002441406
765.644178873872	2039.59997558594
766.370113360138	2026.19995117188
767.095957291425	2045
767.821710675635	2059.60009765625
768.547373520665	2095.39990234375
769.272945834415	2107
769.998427624781	2129.19995117188
770.723818899658	2142.60009765625
771.449119666949	2150.19995117188
772.174329934546	2159.39990234375
772.899449710347	2149.80004882813
773.624479002248	2165.80004882813
774.349417818145	2165.80004882813
775.074266165934	2169.80004882813
775.799024053505	2187.39990234375
776.523691488757	2160.39990234375
777.248268479582	2159.39990234375
777.972755033877	2114.60009765625
778.69715115953	2085.19995117188
779.421456864441	2088.19995117188
780.145672156493	2064.80004882813
780.869797043587	2046.80004882813
781.593831533611	2041
782.317775634457	2042.59997558594
783.041629354012	2041.80004882813
783.765392700174	2034
784.489065680828	1991.19995117188
785.212648303866	1984.80004882813
785.936140577177	1965.59997558594
786.659542508652	1970.80004882813
787.382854106174	1952
788.106075377639	1969.40002441406
788.829206330928	1998
789.552246973933	2004
790.275197314542	2001.80004882813
790.998057360638	2000.59997558594
791.720827120108	1990.19995117188
792.443506600841	1999
793.166095810722	1978.19995117188
793.888594757635	1982.59997558594
794.611003449465	1972.59997558594
795.333321894098	2000.80004882813
796.055550099417	2000
796.777688073308	2006.59997558594
797.499735823654	2006.40002441406
798.221693358334	1984
798.943560685235	1988.59997558594
799.665337812239	1986.19995117188
800.387024747226	1976.59997558594
801.108621498075	1987.19995117188
801.830128072674	2001.19995117188
802.551544478902	2003.80004882813
803.272870724636	2003.19995117188
803.994106817761	1995.19995117188
804.715252766148	1994.40002441406
805.436308577687	1972.19995117188
806.157274260251	1959.40002441406
806.878149821721	1954.19995117188
807.598935269973	1951
808.319630612886	1947.59997558594
809.040235858336	1963.80004882813
809.760751014202	1961.40002441406
810.481176088361	1964.40002441406
811.201511088685	1954
811.921756023059	1967.19995117188
812.641910899347	1964.40002441406
813.361975725432	1957.80004882813
814.081950509188	1936
814.801835258489	1917.59997558594
815.521629981206	1924.59997558594
816.241334685218	1928.80004882813
816.960949378392	1949.80004882813
817.680474068606	1950.40002441406
818.399908763731	1948.40002441406
819.11925347164	1955.19995117188
819.838508200202	1976.19995117188
820.55767295729	1988
821.276747750778	1959.40002441406
821.995732588531	1978.19995117188
822.714627478425	1976
823.433432428327	1976
824.152147446105	1971.59997558594
824.870772539632	1974
825.589307716775	1977.40002441406
826.307752985404	1977.59997558594
827.026108353378	1984.59997558594
827.744373828579	1980
828.462549418867	1982.59997558594
829.180635132107	1970
829.898630976168	1972.40002441406
830.616536958915	1958.40002441406
831.334353088218	1974.40002441406
832.052079371938	1994.80004882813
832.769715817942	1966
833.487262434092	1956
834.204719228255	1972.19995117188
834.922086208293	1978
835.639363382073	1987.19995117188
836.356550757456	1976.40002441406
837.073648342304	1961.40002441406
837.790656144484	1982.59997558594
838.507574171847	1977.40002441406
839.22440243227	1960.59997558594
839.941140933601	1969.40002441406
840.657789683706	1956
841.374348690448	1985
842.090817961686	2036.19995117188
842.807197505276	2025.19995117188
843.523487329083	1991
844.23968744096	1977.40002441406
844.955797848771	1973
845.671818560374	1969.59997558594
846.387749583622	1952.59997558594
847.103590926378	1958.19995117188
847.819342596497	1933.19995117188
848.535004601833	1937
849.25057695025	1916.80004882813
849.966059649598	1921.80004882813
850.681452707735	1926.19995117188
851.396756132513	1931.80004882813
852.111969931789	1934.40002441406
852.827094113419	1949.59997558594
853.542128685257	1935.40002441406
854.257073655158	1938
854.971929030969	1966
855.686694820551	1970
856.40137103175	1960.40002441406
857.115957672423	1957.40002441406
857.830454750423	1958
858.544862273597	1944.40002441406
859.259180249797	1946.59997558594
859.97340868688	1938
860.687547592688	1964.40002441406
861.401596975075	1972.19995117188
862.115556841891	1989.40002441406
862.829427200985	2007.40002441406
863.543208060205	1999
864.256899427402	1983.19995117188
864.970501310423	1982.59997558594
865.684013717114	1969.19995117188
866.397436655325	1968.40002441406
867.110770132901	1972
867.824014157691	1957.59997558594
868.537168737542	1962
869.250233880299	1958.80004882813
869.963209593803	1955.19995117188
870.676095885902	1963.80004882813
871.388892764445	1954.19995117188
872.101600237276	1948.59997558594
872.814218312233	1953.80004882813
873.526746997165	1944.19995117188
874.239186299914	1952.19995117188
874.951536228323	1953.59997558594
875.663796790231	1930.59997558594
876.375967993487	1954.40002441406
877.088049845928	1941
877.8000423554	1954.59997558594
878.511945529739	1960
879.22375937679	1939.59997558594
879.935483904388	1944.40002441406
880.64711912038	1954.59997558594
881.358665032604	1949.40002441406
882.070121648892	1957.80004882813
882.78148897709	1941.59997558594
883.492767025039	1945.40002441406
884.203955800571	1954
884.915055311525	1947.40002441406
885.626065565741	1936.40002441406
886.336986571053	1940
887.047818335298	1906.59997558594
887.758560866315	1921.59997558594
888.469214171937	1928.40002441406
889.179778260005	1921
889.890253138347	1934.80004882813
890.600638814803	1916
891.310935297204	1913.80004882813
892.021142593385	1903.19995117188
892.731260711183	1921.59997558594
893.441289658429	1931.19995117188
894.15122944295	1938.80004882813
894.861080072591	1928.19995117188
895.570841555173	1924.19995117188
896.280513898534	1923.19995117188
896.990097110503	1916.59997558594
897.699591198913	1925.40002441406
898.408996171595	1967.40002441406
899.118312036375	1949.40002441406
899.827538801089	1949.19995117188
900.536676473561	1954.59997558594
901.245725061628	1925.19995117188
901.954684573109	1949.19995117188
902.663555015838	1981.40002441406
903.372336397644	1975.40002441406
904.081028726351	1975.59997558594
904.789632009793	2001.40002441406
905.49814625579	2012.80004882813
906.20657147217	2009
906.914907666765	1993.80004882813
907.623154847391	1977.40002441406
908.331313021885	1964.19995117188
909.039382198064	1956.59997558594
909.747362383754	1941.59997558594
910.455253586782	1942.80004882813
911.163055814972	1962.40002441406
911.870769076143	1953.40002441406
912.578393378126	1952.40002441406
913.285928728738	1944.80004882813
913.993375135802	1949.80004882813
914.700732607145	1936.19995117188
915.408001150579	1939.40002441406
916.115180773937	1944.40002441406
916.822271485037	1950.40002441406
917.529273291693	1957.80004882813
918.236186201733	1952.80004882813
918.943010222971	1949
919.649745363234	1953.59997558594
920.356391630333	1950.40002441406
921.062949032096	1935.80004882813
921.769417576333	1932.40002441406
922.475797270864	1957.80004882813
923.182088123512	1938.19995117188
923.888290142089	1935.80004882813
924.594403334414	1941.59997558594
925.300427708304	1958.40002441406
926.006363271572	1968.19995117188
926.712210032039	1963.80004882813
927.417967997522	1941
928.123637175827	1949.40002441406
928.829217574776	1961.19995117188
929.534709202184	1974.40002441406
930.240112065859	1961.40002441406
930.945426173621	1953.40002441406
931.650651533283	1943.80004882813
932.355788152653	1928
933.060836039547	1947.59997558594
933.765795201776	1918.80004882813
934.470665647153	1908.19995117188
935.175447383492	1917.59997558594
935.880140418599	1914.19995117188
936.584744760286	1903.40002441406
937.289260416366	1930.19995117188
937.993687394647	1919.80004882813
938.698025702939	1926.59997558594
939.402275349051	1948.19995117188
940.106436340793	1954.80004882813
940.810508685976	1968.59997558594
941.5144923924	1970.80004882813
942.21838746788	1966.59997558594
942.922193920223	1947
943.625911757231	1943.80004882813
944.329540986716	1927
945.033081616484	1915
945.736533654334	1889.80004882813
946.439897108083	1865.59997558594
947.143171985529	1896.19995117188
947.846358294477	1898
948.549456042732	1897.40002441406
949.2524652381	1913.40002441406
949.955385888382	1920.40002441406
950.658218001384	1917.19995117188
951.360961584907	1911.19995117188
952.063616646755	1913
952.766183194733	1928
953.468661236636	1929.80004882813
954.171050780271	1931
954.873351833437	1922.59997558594
955.575564403935	1932.40002441406
956.277688499565	1926.59997558594
956.97972412813	1901.80004882813
957.681671297424	1912.59997558594
958.383530015255	1906.19995117188
959.085300289414	1926.19995117188
959.786982127703	1942.19995117188
960.488575537918	1923.80004882813
961.190080527859	1910.19995117188
961.891497105327	1913.59997558594
962.592825278111	1898
963.294065054012	1882
963.995216440829	1901.19995117188
964.696279446353	1885
965.397254078383	1898.59997558594
966.098140344714	1911
966.798938253139	1915.80004882813
967.499647811456	1908
968.200269027458	1900.80004882813
968.900801908937	1926.59997558594
969.601246463685	1915.40002441406
970.3016026995	1900.19995117188
971.001870624169	1907.40002441406
971.702050245491	1872.19995117188
972.402141571249	1864
973.102144609245	1868.40002441406
973.802059367267	1888.40002441406
974.501885853103	1889.19995117188
975.201624074541	1882.19995117188
975.901274039379	1906.59997558594
976.600835755399	1906.59997558594
977.3003092304	1912
977.999694472158	1894.40002441406
978.698991488473	1903.40002441406
979.39820028713	1921
980.097320875915	1894.40002441406
980.796353262618	1914.80004882813
981.495297455024	1904.40002441406
982.194153460919	1906
982.892921288093	1899
983.591600944331	1910
984.290192437419	1924.19995117188
984.98869577514	1907.40002441406
985.687110965282	1901.80004882813
986.385438015629	1915.19995117188
987.083676933961	1898.59997558594
987.781827728069	1880
988.479890405732	1882
989.177864974732	1887
989.875751442857	1873.40002441406
990.573549817888	1888.40002441406
991.271260107602	1917.19995117188
991.968882319786	1911.40002441406
992.666416462217	1919.80004882813
993.363862542681	1902.40002441406
994.061220568959	1892
994.758490548823	1889.19995117188
995.455672490061	1891
996.152766400451	1877.80004882813
996.849772287773	1885.59997558594
997.5466901598	1873.59997558594
998.243520024317	1883.19995117188
998.940261889097	1881.19995117188
999.636915761923	1882
1000.33348165057	1870
1001.02995956281	1862
1001.72634950643	1864.40002441406
1002.42265148919	1873.40002441406
1003.11886551889	1876.80004882813
1003.81499160328	1904.59997558594
1004.51102975015	1891.19995117188
1005.20697996727	1898.40002441406
1005.90284226242	1899.59997558594
1006.59861664337	1886.59997558594
1007.2943031179	1897.19995117188
1007.98990169377	1893
1008.68541237876	1905.19995117188
1009.38083518064	1920
1010.07617010719	1929.40002441406
1010.77141716617	1936.80004882813
1011.46657636536	1934
1012.16164771253	1936.19995117188
1012.85663121546	1925.80004882813
1013.5515268819	1900.59997558594
1014.24633471963	1889.19995117188
1014.94105473642	1870.59997558594
1015.63568694004	1868.59997558594
1016.33023133826	1880
1017.02468793885	1886.59997558594
1017.71905674957	1883.19995117188
1018.41333777819	1875.59997558594
1019.10753103249	1888.19995117188
1019.80163652022	1878.80004882813
1020.49565424916	1883.40002441406
1021.18958422707	1887.40002441406
1021.88342646171	1890.40002441406
1022.57718096085	1890.19995117188
1023.27084773227	1892
1023.96442678371	1887.80004882813
1024.65791812296	1895.19995117188
1025.35132175776	1873.40002441406
1026.04463769589	1868.19995117188
1026.73786594511	1850.40002441406
1027.43100651318	1832
1028.12405940786	1834.19995117188
1028.81702463692	1855.19995117188
1029.50990220812	1855.59997558594
1030.20269212921	1859
1030.89539440798	1873
1031.58800905216	1881.19995117188
1032.28053606952	1872
1032.97297546784	1854.59997558594
1033.66532725485	1876.80004882813
1034.35759143832	1854.59997558594
1035.04976802602	1880.40002441406
1035.7418570257	1861
1036.43385844511	1880.19995117188
1037.12577229202	1858.40002441406
1037.81759857419	1851
1038.50933729937	1873.59997558594
1039.20098847531	1872.59997558594
1039.89255210978	1879.19995117188
1040.58402821053	1888.80004882813
1041.27541678532	1882
1041.96671784191	1864.40002441406
1042.65793138804	1853.80004882813
1043.34905743147	1849.59997558594
1044.04009597996	1857
1044.73104704125	1857
1045.42191062312	1880.40002441406
1046.1126867333	1876.40002441406
1046.80337537955	1876.40002441406
1047.49397656962	1851.59997558594
1048.18449031127	1850.80004882813
1048.87491661225	1857.19995117188
1049.5652554803	1861
1050.25550692319	1849.80004882813
1050.94567094865	1856.40002441406
1051.63574756444	1852.19995117188
1052.32573677832	1862.59997558594
1053.01563859803	1867
1053.70545303131	1857.19995117188
1054.39518008592	1851
1055.08481976961	1861.80004882813
1055.77437209013	1857.40002441406
1056.46383705522	1864
1057.15321467262	1859.40002441406
1057.8425049501	1843.40002441406
1058.53170789539	1845.59997558594
1059.22082351624	1824
1059.9098518204	1818.40002441406
1060.59879281561	1810.80004882813
1061.28764650962	1826.59997558594
1061.97641291016	1827
1062.665092025	1822
1063.35368386187	1830
1064.04218842851	1846
1064.73060573268	1836.40002441406
1065.4189357821	1796
1066.10717858452	1804
1066.7953341477	1791
1067.48340247936	1780.19995117188
1068.17138358725	1810.59997558594
1068.85927747912	1810.19995117188
1069.5470841627	1815.40002441406
1070.23480364573	1834.40002441406
1070.92243593595	1837.80004882813
1071.60998104111	1851.59997558594
1072.29743896894	1846
1072.98480972718	1833.19995117188
1073.67209332357	1850.40002441406
1074.35928976585	1835.19995117188
1075.04639906176	1843.19995117188
1075.73342121903	1844
1076.42035624541	1850.80004882813
1077.10720414862	1848.59997558594
1077.79396493641	1849
1078.48063861651	1860.80004882813
1079.16722519666	1857.80004882813
1079.85372468459	1870.59997558594
1080.54013708804	1842.19995117188
1081.22646241474	1839.40002441406
1081.91270067243	1803.19995117188
1082.59885186884	1831
1083.28491601171	1845.40002441406
1083.97089310877	1842.59997558594
1084.65678316774	1870.40002441406
1085.34258619637	1855.19995117188
1086.02830220239	1865.59997558594
1086.71393119352	1839.80004882813
1087.39947317751	1868.40002441406
1088.08492816207	1864.19995117188
1088.77029615495	1863.40002441406
1089.45557716387	1878.19995117188
1090.14077119656	1876.19995117188
1090.82587826075	1859.59997558594
1091.51089836417	1853.80004882813
1092.19583151456	1849.59997558594
1092.88067771963	1848.59997558594
1093.56543698712	1830
1094.25010932475	1834
1094.93469474026	1843
1095.61919324137	1842.59997558594
1096.3036048358	1826.40002441406
1096.98792953129	1828.80004882813
1097.67216733555	1825.40002441406
1098.35631825632	1854.40002441406
1099.04038230132	1855.19995117188
1099.72435947828	1835.19995117188
1100.40824979492	1818.80004882813
1101.09205325895	1806.19995117188
1101.77576987812	1796.19995117188
1102.45939966014	1802.80004882813
1103.14294261273	1807.80004882813
1103.82639874362	1780.59997558594
1104.50976806054	1772.80004882813
1105.19305057119	1776.19995117188
1105.87624628331	1801.40002441406
1106.55935520461	1817.19995117188
1107.24237734283	1831.80004882813
1107.92531270566	1836.59997558594
1108.60816130085	1823
1109.2909231361	1820.19995117188
1109.97359821914	1833.80004882813
1110.65618655768	1832.19995117188
1111.33868815946	1835.59997558594
1112.02110303217	1835.80004882813
1112.70343118355	1846.19995117188
1113.3856726213	1845.80004882813
1114.06782735316	1857
1114.74989538683	1862.80004882813
1115.43187673002	1852.40002441406
1116.11377139047	1837.59997558594
1116.79557937588	1828.19995117188
1117.47730069397	1824.59997558594
1118.15893535245	1817.80004882813
1118.84048335904	1829.59997558594
1119.52194472146	1836.40002441406
1120.20331944741	1851
1120.88460754462	1838.19995117188
1121.56580902079	1833.40002441406
1122.24692388364	1838
1122.92795214088	1828.40002441406
1123.60889380022	1848.80004882813
1124.28974886938	1858.40002441406
1124.97051735606	1893
1125.65119926799	1881.80004882813
1126.33179461286	1880.19995117188
1127.0123033984	1890
1127.6927256323	1886
1128.37306132229	1851.19995117188
1129.05331047606	1868.80004882813
1129.73347310134	1856
1130.41354920582	1862
1131.09353879722	1859.80004882813
1131.77344188324	1858.59997558594
1132.45325847159	1856.40002441406
1133.13298856999	1854.19995117188
1133.81263218612	1858.59997558594
1134.49218932772	1866.40002441406
1135.17166000247	1852.80004882813
1135.85104421809	1834.80004882813
1136.53034198227	1827.19995117188
1137.20955330274	1815.80004882813
1137.88867818718	1788.80004882813
1138.56771664331	1781.80004882813
1139.24666867883	1775.19995117188
1139.92553430144	1798
1140.60431351885	1816.80004882813
1141.28300633876	1799.59997558594
1141.96161276887	1817.59997558594
1142.64013281689	1840.19995117188
1143.31856649051	1850.19995117188
1143.99691379744	1846
1144.67517474538	1832.19995117188
1145.35334934203	1831.80004882813
1146.03143759509	1839.40002441406
1146.70943951226	1816.19995117188
1147.38735510125	1810
1148.06518436974	1800.59997558594
1148.74292732545	1788.59997558594
1149.42058397606	1790.19995117188
1150.09815432928	1804.59997558594
1150.7756383928	1778.40002441406
1151.45303617432	1794.40002441406
1152.13034768155	1801.40002441406
1152.80757292217	1816.40002441406
1153.48471190389	1828
1154.16176463439	1836.80004882813
1154.83873112138	1821.80004882813
1155.51561137255	1808.80004882813
1156.1924053956	1820
1156.86911319822	1818.59997558594
1157.5457347881	1835
1158.22227017294	1829.80004882813
1158.89871936044	1830.59997558594
1159.57508235828	1815
1160.25135917416	1827.19995117188
1160.92754981578	1812.80004882813
1161.60365429081	1817
1162.27967260697	1851
1162.95560477193	1838.19995117188
1163.63145079339	1813
1164.30721067904	1806
1164.98288443657	1796.59997558594
1165.65847207367	1788.19995117188
1166.33397359803	1789.80004882813
1167.00938901735	1809
1167.6847183393	1818.59997558594
1168.35996157157	1803.19995117188
1169.03511872187	1812.59997558594
1169.71018979787	1826
1170.38517480726	1831.19995117188
1171.06007375773	1819
1171.73488665696	1828.59997558594
1172.40961351265	1824.80004882813
1173.08425433247	1820.80004882813
1173.75880912412	1805.19995117188
1174.43327789528	1822.59997558594
1175.10766065364	1835.80004882813
1175.78195740687	1851
1176.45616816267	1858.19995117188
1177.13029292871	1876.40002441406
1177.80433171269	1858.59997558594
1178.47828452229	1862
1179.15215136518	1858.19995117188
1179.82593224905	1856.80004882813
1180.49962718159	1865
1181.17323617047	1865
1181.84675922337	1860.40002441406
1182.52019634799	1866
1183.193547552	1879
1183.86681284307	1874.40002441406
1184.53999222889	1879.40002441406
1185.21308571714	1873
1185.8860933155	1867.59997558594
1186.55901503165	1861.19995117188
1187.23185087326	1873.19995117188
1187.90460084802	1863.59997558594
1188.5772649636	1870.80004882813
1189.24984322768	1873
1189.92233564794	1872
1190.59474223206	1859.19995117188
1191.2670629877	1855.40002441406
1191.93929792255	1859.59997558594
1192.61144704428	1855.59997558594
1193.28351036058	1874.19995117188
1193.9554878791	1856.19995117188
1194.62737960754	1849
1195.29918555356	1825.40002441406
1195.97090572483	1845.59997558594
1196.64254012903	1843
1197.31408877384	1845.40002441406
1197.98555166693	1867.19995117188
1198.65692881596	1856.40002441406
1199.32822022862	1859.19995117188
1199.99942591256	1847.80004882813
1200.67054587548	1827.80004882813
1201.34158012503	1817
1202.01252866889	1814.19995117188
1202.68339151473	1817
1203.35416867021	1789
1204.02486014301	1797
1204.6954659408	1794.40002441406
1205.36598607124	1812.80004882813
1206.03642054201	1811.19995117188
1206.70676936078	1825.40002441406
1207.3770325352	1814.19995117188
1208.04721007295	1815.40002441406
1208.7173019817	1811.59997558594
1209.38730826911	1797.19995117188
1210.05722894285	1802.19995117188
1210.72706401059	1794.19995117188
1211.39681347999	1791.40002441406
1212.06647735872	1783.59997558594
1212.73605565444	1784.59997558594
1213.40554837481	1770.59997558594
1214.07495552751	1765.59997558594
1214.74427712019	1781.40002441406
1215.41351316052	1778.19995117188
1216.08266365617	1798.19995117188
1216.75172861479	1782.59997558594
1217.42070804405	1779
1218.0896019516	1794.19995117188
1218.75841034513	1777.59997558594
1219.42713323227	1782.80004882813
1220.0957706207	1776.40002441406
1220.76432251808	1792.19995117188
1221.43278893207	1805.40002441406
1222.10116987032	1801.80004882813
1222.7694653405	1802.80004882813
1223.43767535026	1800
1224.10579990727	1792
1224.77383901918	1793.40002441406
1225.44179269366	1788.40002441406
1226.10966093835	1782.40002441406
1226.77744376093	1767.19995117188
1227.44514116904	1784
1228.11275317034	1786.59997558594
1228.78027977249	1792.59997558594
1229.44772098315	1788.59997558594
1230.11507680996	1774.80004882813
1230.7823472606	1778.59997558594
1231.44953234271	1776.40002441406
1232.11663206394	1772.40002441406
1232.78364643195	1775.40002441406
1233.4505754544	1765.19995117188
1234.11741913894	1758.80004882813
1234.78417749322	1761.59997558594
1235.45085052489	1766.80004882813
1236.11743824162	1757.80004882813
1236.78394065104	1746.80004882813
1237.45035776082	1734.19995117188
1238.1166895786	1739.19995117188
1238.78293611204	1766.80004882813
1239.44909736878	1775.40002441406
1240.11517335648	1781.80004882813
1240.78116408279	1763.19995117188
1241.44706955535	1769.19995117188
1242.11288978182	1769.40002441406
1242.77862476985	1778.80004882813
1243.44427452708	1772
1244.10983906116	1746.80004882813
1244.77531837974	1758
1245.44071249047	1739.19995117188
1246.106021401	1748.40002441406
1246.77124511898	1753
1247.43638365204	1749.19995117188
1248.10143700783	1756.19995117188
1248.76640519401	1759
1249.43128821822	1755.59997558594
1250.0960860881	1744.40002441406
1250.76079881129	1748.19995117188
1251.42542639545	1748
1252.08996884822	1750.80004882813
1252.75442617723	1739
1253.41879839014	1732.59997558594
1254.08308549458	1749.19995117188
1254.74728749821	1755.19995117188
1255.41140440866	1757.40002441406
1256.07543623357	1762.80004882813
1256.73938298059	1757
1257.40324465735	1750.59997558594
1258.0670212715	1736.80004882813
1258.73071283068	1727.80004882813
1259.39431934253	1734
1260.05784081468	1747.40002441406
1260.72127725479	1754.80004882813
1261.38462867049	1743
1262.0478950694	1737.40002441406
1262.71107645919	1737.59997558594
1263.37417284748	1748
1264.03718424191	1735
1264.70011065011	1754.59997558594
1265.36295207974	1741.80004882813
1266.02570853841	1753.80004882813
1266.68838003378	1759
1267.35096657346	1747.19995117188
1268.01346816511	1731.19995117188
1268.67588481636	1733.59997558594
1269.33821653483	1725.80004882813
1270.00046332817	1722.19995117188
1270.66262520401	1745.19995117188
1271.32470216998	1751.19995117188
1271.98669423372	1732.40002441406
1272.64860140285	1717.40002441406
1273.31042368503	1712.80004882813
1273.97216108786	1714
1274.633813619	1717.40002441406
1275.29538128606	1721.40002441406
1275.95686409669	1737.40002441406
1276.6182620585	1730.80004882813
1277.27957517914	1748.19995117188
1277.94080346624	1727.19995117188
1278.60194692741	1719.59997558594
1279.2630055703	1729.40002441406
1279.92397940253	1751.80004882813
1280.58486843173	1754.80004882813
1281.24567266552	1753.40002441406
1281.90639211155	1746.59997558594
1282.56702677743	1739.59997558594
1283.2275766708	1727
1283.88804179927	1730.59997558594
1284.54842217049	1729.40002441406
1285.20871779206	1703.19995117188
1285.86892867163	1719.59997558594
1286.52905481681	1732
1287.18909623523	1741.40002441406
1287.84905293452	1708.80004882813
1288.5089249223	1735.80004882813
1289.16871220619	1734.19995117188
1289.82841479383	1748.40002441406
1290.48803269282	1762
1291.1475659108	1758.80004882813
1291.80701445539	1754.59997558594
1292.46637833421	1730.80004882813
1293.12565755489	1736.59997558594
1293.78485212504	1726
1294.44396205229	1726.19995117188
1295.10298734425	1732.80004882813
1295.76192800856	1715.19995117188
1296.42078405283	1733
1297.07955548467	1708.19995117188
1297.73824231171	1749.19995117188
1298.39684454158	1752.59997558594
1299.05536218188	1752.40002441406
1299.71379524023	1765.59997558594
1300.37214372427	1770.59997558594
1301.03040764159	1783.80004882813
1301.68858699983	1746.80004882813
1302.34668180659	1759.80004882813
1303.0046920695	1761
1303.66261779617	1760.40002441406
1304.32045899422	1765.19995117188
1304.97821567126	1783
1305.63588783492	1783
1306.29347549279	1777.19995117188
1306.95097865251	1768.59997558594
1307.60839732168	1781.40002441406
1308.26573150791	1768.59997558594
1308.92298121883	1772
1309.58014646204	1776.59997558594
1310.23722724517	1767.80004882813
1310.89422357581	1780
1311.55113546158	1773.19995117188
1312.2079629101	1764.59997558594
1312.86470592898	1783
1313.52136452582	1787.40002441406
1314.17793870824	1765.19995117188
1314.83442848386	1768.59997558594
1315.49083386027	1771.80004882813
1316.14715484509	1769.80004882813
1316.80339144594	1774
1317.45954367041	1777.40002441406
1318.11561152611	1793
1318.77159502067	1774.80004882813
1319.42749416168	1768.40002441406
1320.08330895674	1775.59997558594
1320.73903941348	1769.19995117188
1321.3946855395	1767.40002441406
1322.0502473424	1759
1322.70572482978	1770.59997558594
1323.36111800926	1750
1324.01642688845	1730.59997558594
1324.67165147494	1749.80004882813
1325.32679177634	1748.80004882813
1325.98184780025	1750.40002441406
1326.63681955429	1748
1327.29170704605	1731.40002441406
1327.94651028314	1735.59997558594
1328.60122927316	1723.80004882813
1329.25586402371	1726.19995117188
1329.9104145424	1733.19995117188
1330.56488083683	1724.80004882813
1331.2192629146	1722.59997558594
1331.87356078331	1716.59997558594
1332.52777445056	1719.80004882813
1333.18190392395	1727.40002441406
1333.83594921109	1721.19995117188
1334.48991031958	1723.59997558594
1335.143787257	1724.19995117188
1335.79758003097	1702
1336.45128864908	1708.59997558594
1337.10491311893	1706.80004882813
1337.75845344813	1715
1338.41190964425	1725.80004882813
1339.06528171491	1734.40002441406
1339.71856966771	1721.40002441406
1340.37177351023	1725.19995117188
1341.02489325007	1712.80004882813
1341.67792889484	1706.40002441406
1342.33088045212	1683.80004882813
1342.98374792952	1681
1343.63653133462	1687
1344.28923067503	1697.59997558594
1344.94184595833	1720.80004882813
1345.59437719212	1727.19995117188
1346.246824384	1733.80004882813
1346.89918754155	1728.59997558594
1347.55146667238	1742.40002441406
1348.20366178407	1746.19995117188
1348.85577288421	1743
1349.50779998041	1757.40002441406
1350.15974308024	1762.80004882813
1350.8116021913	1744.19995117188
1351.46337732119	1768.80004882813
1352.11506847748	1750.80004882813
1352.76667566778	1747.40002441406
1353.41819889967	1765
1354.06963818074	1753.40002441406
1354.72099351858	1750
1355.37226492079	1759.40002441406
1356.02345239494	1777.59997558594
1356.67455594862	1787.80004882813
1357.32557558943	1804.19995117188
1357.97651132496	1828
1358.62736316277	1833.19995117188
1359.27813111048	1842.59997558594
1359.92881517565	1846.40002441406
1360.57941536589	1864.19995117188
1361.22993168876	1860
1361.88036415186	1865.19995117188
1362.53071276278	1852.19995117188
1363.1809775291	1875.19995117188
1363.8311584584	1875
1364.48125555826	1884.80004882813
1365.13126883627	1871.19995117188
1365.78119830001	1842
1366.43104395707	1814
1367.08080581503	1821.40002441406
1367.73048388147	1790.80004882813
1368.38007816397	1777.19995117188
1369.02958867011	1763.19995117188
1369.67901540748	1762.19995117188
1370.32835838365	1765
1370.9776176062	1757
1371.62679308273	1767.19995117188
1372.27588482079	1767.19995117188
1372.92489282798	1775.59997558594
1373.57381711188	1754.40002441406
1374.22265768006	1726.59997558594
1374.87141454009	1715.59997558594
1375.52008769957	1717.80004882813
1376.16867716606	1717.59997558594
1376.81718294715	1708.40002441406
1377.4656050504	1712.19995117188
1378.1139434834	1698.59997558594
1378.76219825373	1711.19995117188
1379.41036936895	1724
1380.05845683664	1706
1380.70646066439	1719.80004882813
1381.35438085976	1697.40002441406
1382.00221743032	1706.40002441406
1382.64997038366	1713.59997558594
1383.29763972735	1717.40002441406
1383.94522546895	1711.80004882813
1384.59272761605	1699.19995117188
1385.24014617621	1707.80004882813
1385.88748115701	1731.40002441406
1386.53473256602	1723
1387.18190041081	1707.19995117188
1387.82898469895	1702
1388.47598543802	1702.40002441406
1389.12290263558	1696.80004882813
1389.7697362992	1682.19995117188
1390.41648643646	1662.19995117188
1391.06315305492	1671.80004882813
1391.70973616215	1654.59997558594
1392.35623576573	1655.19995117188
1393.00265187321	1643.59997558594
1393.64898449217	1667.59997558594
1394.29523363018	1669
1394.94139929481	1671.40002441406
1395.58748149361	1655.40002441406
1396.23348023415	1660.59997558594
1396.87939552402	1662.40002441406
1397.52522737076	1650.19995117188
1398.17097578195	1634.19995117188
1398.81664076514	1625.59997558594
1399.46222232792	1611.80004882813
1400.10772047783	1602.80004882813
1400.75313522245	1608.59997558594
1401.39846656934	1607.40002441406
1402.04371452605	1612.40002441406
1402.68887910016	1608.19995117188
1403.33396029924	1620.19995117188
1403.97895813083	1597.80004882813
1404.6238726025	1622.19995117188
1405.26870372182	1627.40002441406
1405.91345149634	1657.59997558594
1406.55811593363	1638.59997558594
1407.20269704125	1629.40002441406
1407.84719482676	1632.19995117188
1408.49160929772	1627.59997558594
1409.13594046168	1634.19995117188
1409.78018832622	1630.19995117188
1410.42435289887	1649.40002441406
1411.06843418722	1640.80004882813
1411.7124321988	1637.40002441406
1412.3563469412	1645.40002441406
1413.00017842194	1638.59997558594
1413.64392664861	1646.80004882813
1414.28759162875	1659.40002441406
1414.93117336992	1650.19995117188
1415.57467187967	1648.19995117188
1416.21808716557	1628.19995117188
1416.86141923516	1645
1417.50466809601	1640
1418.14783375567	1651.59997558594
1418.79091622169	1641.59997558594
1419.43391550162	1652.80004882813
1420.07683160303	1645.80004882813
1420.71966453346	1645
1421.36241430046	1642
1422.0050809116	1641.59997558594
1422.64766437442	1648
1423.29016469647	1657.40002441406
1423.93258188531	1667
1424.57491594848	1656.19995117188
1425.21716689354	1655.59997558594
1425.85933472805	1662.59997558594
1426.50141945954	1649.80004882813
1427.14342109557	1644.59997558594
1427.78533964369	1658
1428.42717511144	1645.40002441406
1429.06892750639	1640
1429.71059683607	1625.59997558594
1430.35218310803	1631.19995117188
1430.99368632983	1636
1431.635106509	1628.19995117188
1432.2764436531	1627
1432.91769776967	1636.59997558594
1433.55886886627	1647.40002441406
1434.19995695043	1664.19995117188
1434.84096202969	1663.80004882813
1435.48188411162	1654.40002441406
1436.12272320375	1653.80004882813
1436.76347931363	1660.19995117188
1437.40415244879	1654.19995117188
1438.0447426168	1654
1438.68524982518	1655.19995117188
1439.32567408148	1650.59997558594
1439.96601539325	1657.80004882813
1440.60627376803	1653
1441.24644921336	1646.59997558594
1441.88654173678	1632.19995117188
1442.52655134583	1641
1443.16647804806	1637.59997558594
1443.806321851	1623.40002441406
1444.4460827622	1641.40002441406
1445.0857607892	1632.40002441406
1445.72535593953	1627
1446.36486822074	1627.19995117188
1447.00429764037	1616.40002441406
1447.64364420595	1617.59997558594
1448.28290792502	1613
1448.92208880512	1607
1449.56118685379	1621.40002441406
1450.20020207857	1627.80004882813
1450.83913448699	1622.40002441406
1451.47798408659	1614.19995117188
1452.1167508849	1620.59997558594
1452.75543488947	1622.80004882813
1453.39403610782	1613.80004882813
1454.0325545475	1607.40002441406
1454.67099021603	1619
1455.30934312097	1608
1455.94761326982	1623.40002441406
1456.58580067014	1627.40002441406
1457.22390532945	1610.80004882813
1457.86192725529	1611.59997558594
1458.49986645519	1612.59997558594
1459.13772293668	1606.59997558594
1459.7754967073	1612
1460.41318777457	1613
1461.05079614604	1600.59997558594
1461.68832182922	1599.19995117188
1462.32576483166	1590.59997558594
1462.96312516087	1590.59997558594
1463.6004028244	1585.19995117188
1464.23759782977	1587
1464.8747101845	1608.59997558594
1465.51173989614	1632.59997558594
1466.14868697221	1610.40002441406
1466.78555142024	1620
1467.42233324774	1612
1468.05903246227	1597.40002441406
1468.69564907133	1618
1469.33218308246	1599.19995117188
1469.96863450317	1595.80004882813
1470.60500334102	1586.59997558594
1471.2412896035	1610.19995117188
1471.87749329816	1616.19995117188
1472.51361443251	1616.59997558594
1473.14965301409	1631.80004882813
1473.78560905041	1638.80004882813
1474.421482549	1630
1475.05727351739	1634.19995117188
1475.69298196309	1633.59997558594
1476.32860789364	1627.19995117188
1476.96415131654	1642
1477.59961223934	1636.80004882813
1478.23499066954	1630
1478.87028661467	1624.19995117188
1479.50550008226	1630.40002441406
1480.14063107981	1640.40002441406
1480.77567961486	1624.80004882813
1481.41064569492	1621.80004882813
1482.04552932752	1617.40002441406
1482.68033052017	1620.40002441406
1483.31504928039	1615
1483.9496856157	1623.19995117188
1484.58423953363	1634.59997558594
1485.21871104168	1634.59997558594
1485.85310014738	1625.80004882813
1486.48740685824	1620
1487.12163118178	1623.19995117188
1487.75577312553	1616.80004882813
1488.38983269698	1613.59997558594
1489.02380990367	1617
1489.65770475311	1598.19995117188
1490.29151725281	1619.19995117188
1490.92524741029	1634
1491.55889523306	1645.19995117188
1492.19246072863	1636.59997558594
1492.82594390453	1631
1493.45934476826	1645.80004882813
1494.09266332734	1639.59997558594
1494.72589958928	1638
1495.3590535616	1652.59997558594
1495.99212525181	1672.19995117188
1496.62511466741	1662.19995117188
1497.25802181592	1650.80004882813
1497.89084670485	1669.19995117188
1498.52358934172	1671.40002441406
1499.15624973403	1653.59997558594
1499.7888278893	1659
1500.42132381503	1668.19995117188
1501.05373751873	1677
1501.68606900792	1679.59997558594
1502.31831829009	1695.19995117188
1502.95048537277	1702.59997558594
1503.58257026346	1716.19995117188
1504.21457296966	1725.40002441406
1504.84649349889	1754
1505.47833185864	1750.19995117188
1506.11008805644	1771.40002441406
1506.74176209978	1758.40002441406
1507.37335399617	1737.59997558594
1508.00486375312	1721.80004882813
1508.63629137813	1716.19995117188
1509.2676368787	1714.40002441406
1509.89890026235	1722.80004882813
1510.53008153658	1715
1511.16118070889	1708.59997558594
1511.79219778677	1706
1512.42313277775	1699.80004882813
1513.05398568932	1697.40002441406
1513.68475652898	1702
1514.31544530424	1699.59997558594
1514.9460520226	1700.80004882813
1515.57657669155	1686.40002441406
1516.20701931861	1681.19995117188
1516.83737991127	1651.40002441406
1517.46765847702	1663
1518.09785502339	1643.80004882813
1518.72796955785	1644.40002441406
1519.35800208792	1652.80004882813
1519.98795262109	1638
1520.61782116486	1645
1521.24760772673	1639
1521.87731231419	1645.80004882813
1522.50693493475	1647.40002441406
1523.1364755959	1635
1523.76593430514	1621.59997558594
1524.39531106997	1618
1525.02460589788	1627.40002441406
1525.65381879637	1620.59997558594
1526.28294977293	1619.80004882813
1526.91199883507	1596
1527.54096599027	1601.59997558594
1528.16985124603	1578.80004882813
1528.79865460984	1588.19995117188
1529.4273760892	1597.19995117188
1530.05601569161	1609.80004882813
1530.68457342455	1606.59997558594
1531.31304929552	1629
1531.94144331201	1623.40002441406
1532.56975548151	1625.59997558594
1533.19798581152	1631
1533.82613430953	1638.59997558594
1534.45420098302	1631.59997558594
1535.08218583949	1623.40002441406
1535.71008888643	1622
1536.33791013134	1626
1536.96564958169	1617.19995117188
1537.59330724498	1618.19995117188
1538.22088312871	1621
1538.84837724034	1609.19995117188
1539.47578958739	1605.40002441406
1540.10312017733	1597.80004882813
1540.73036901765	1591.59997558594
1541.35753611584	1599
1541.98462147939	1585.40002441406
1542.61162511578	1589.19995117188
1543.2385470325	1594.80004882813
1543.86538723704	1595.59997558594
1544.49214573688	1574.40002441406
1545.11882253951	1583
1545.74541765241	1593
1546.37193108306	1587.59997558594
1546.99836283896	1598.59997558594
1547.62471292758	1597.19995117188
1548.25098135641	1587.80004882813
1548.87716813294	1575.59997558594
1549.50327326464	1582.80004882813
1550.12929675899	1566.59997558594
1550.75523862349	1571.19995117188
1551.38109886561	1585.80004882813
1552.00687749284	1586.80004882813
1552.63257451264	1571.40002441406
1553.25818993252	1597.40002441406
1553.88372375994	1611.59997558594
1554.50917600239	1579.19995117188
1555.13454666734	1576.40002441406
1555.75983576228	1571.80004882813
1556.38504329469	1565.40002441406
1557.01016927204	1563.19995117188
1557.63521370181	1558.80004882813
1558.26017659149	1550.19995117188
1558.88505794854	1553.19995117188
1559.50985778045	1564.59997558594
1560.13457609469	1567.80004882813
1560.75921289874	1576.19995117188
1561.38376820008	1574.80004882813
1562.00824200618	1565.40002441406
1562.63263432452	1584.80004882813
1563.25694516257	1577.80004882813
1563.88117452781	1574.59997558594
1564.50532242772	1580.80004882813
1565.12938886976	1587.19995117188
1565.75337386141	1582.80004882813
1566.37727741015	1577.80004882813
1567.00109952345	1570.40002441406
1567.62484020878	1569.59997558594
1568.24849947361	1582.80004882813
1568.87207732542	1582.19995117188
1569.49557377168	1593.59997558594
1570.11898881986	1575.80004882813
1570.74232247743	1582
1571.36557475186	1586.59997558594
1571.98874565062	1591.80004882813
1572.61183518119	1589.59997558594
1573.23484335103	1607.40002441406
1573.85777016761	1609.19995117188
1574.4806156384	1619.59997558594
1575.10337977088	1616.59997558594
1575.7260625725	1625.59997558594
1576.34866405074	1629.19995117188
1576.97118421306	1608.80004882813
1577.59362306694	1624.80004882813
1578.21598061984	1617.19995117188
1578.83825687922	1619.59997558594
1579.46045185255	1606.59997558594
1580.08256554731	1596.80004882813
1580.70459797094	1607
1581.32654913093	1609.40002441406
1581.94841903473	1591.59997558594
1582.57020768981	1586.59997558594
1583.19191510364	1565.59997558594
1583.81354128367	1561.40002441406
1584.43508623737	1559.59997558594
1585.05654997221	1544.59997558594
1585.67793249564	1539.59997558594
1586.29923381514	1543
1586.92045393815	1533.40002441406
1587.54159287216	1528.40002441406
1588.1626506246	1523.40002441406
1588.78362720296	1529.19995117188
1589.40452261468	1524.80004882813
1590.02533686724	1513.59997558594
1590.64606996808	1511.59997558594
1591.26672192467	1512
1591.88729274447	1531.80004882813
1592.50778243493	1526.40002441406
1593.12819100352	1519
1593.7485184577	1503.59997558594
1594.36876480492	1491
1594.98893005264	1520.59997558594
1595.60901420832	1492.59997558594
1596.22901727941	1504.59997558594
1596.84893927338	1507.40002441406
1597.46878019767	1510.59997558594
1598.08854005975	1521
1598.70821886707	1543.19995117188
1599.32781662708	1551.40002441406
1599.94733334725	1562
1600.56676903502	1549.19995117188
1601.18612369785	1549.19995117188
1601.8053973432	1533.19995117188
1602.42458997851	1525.59997558594
1603.04370161124	1531.80004882813
1603.66273224884	1510
1604.28168189878	1519
1604.90055056849	1516
1605.51933826543	1513.80004882813
1606.13804499705	1509
1606.75667077081	1504.19995117188
1607.37521559415	1489.19995117188
1607.99367947452	1492.40002441406
1608.61206241938	1494
1609.23036443618	1481.19995117188
1609.84858553236	1475
1610.46672571537	1479.40002441406
1611.08478499267	1486.40002441406
1611.7027633717	1482.80004882813
1612.3206608599	1491
1612.93847746473	1492.19995117188
1613.55621319364	1487.80004882813
1614.17386805407	1479.80004882813
1614.79144205347	1477.19995117188
1615.40893519928	1477
1616.02634749895	1470.80004882813
1616.64367895993	1457.19995117188
1617.26092958966	1458.40002441406
1617.87809939559	1467.59997558594
1618.49518838516	1476.19995117188
1619.11219656582	1456.59997558594
1619.729123945	1457.80004882813
1620.34597053016	1473.40002441406
1620.96273632874	1472
1621.57942134818	1466.19995117188
1622.19602559592	1459.59997558594
1622.8125490794	1463.59997558594
1623.42899180607	1465.59997558594
1624.04535378337	1466.40002441406
1624.66163501874	1470.40002441406
1625.27783551963	1464.19995117188
1625.89395529346	1466.40002441406
1626.50999434768	1450
1627.12595268974	1454.59997558594
1627.74183032707	1457.40002441406
1628.3576272671	1462.80004882813
1628.97334351729	1441
1629.58897908506	1441.40002441406
1630.20453397786	1435.59997558594
1630.82000820313	1443
1631.43540176829	1444.19995117188
1632.05071468079	1440.40002441406
1632.66594694807	1451.40002441406
1633.28109857756	1463
1633.8961695767	1462.59997558594
1634.51115995292	1465.59997558594
1635.12606971366	1461.59997558594
1635.74089886636	1472.40002441406
1636.35564741844	1490.19995117188
1636.97031537734	1477.40002441406
1637.58490275051	1488
1638.19940954536	1488.40002441406
1638.81383576934	1487.40002441406
1639.42818142987	1480.40002441406
1640.0424465344	1496.80004882813
1640.65663109034	1506.80004882813
1641.27073510515	1508.80004882813
1641.88475858623	1521.80004882813
1642.49870154104	1516.80004882813
1643.11256397699	1529
1643.72634590152	1517.59997558594
1644.34004732206	1524.19995117188
1644.95366824604	1519.40002441406
1645.56720868089	1527.19995117188
1646.18066863404	1528
1646.79404811291	1519.80004882813
1647.40734712494	1526.19995117188
1648.02056567755	1523.59997558594
1648.63370377817	1525
1649.24676143423	1534
1649.85973865316	1520.40002441406
1650.47263544238	1526.59997558594
1651.08545180932	1547
1651.6981877614	1539.19995117188
1652.31084330606	1530.19995117188
1652.92341845071	1533.19995117188
1653.53591320278	1529.40002441406
1654.1483275697	1513.19995117188
1654.7606615589	1498.59997558594
1655.37291517778	1483.40002441406
1655.98508843379	1474.59997558594
1656.59718133434	1471.40002441406
1657.20919388685	1473
1657.82112609875	1465.59997558594
1658.43297797747	1458
1659.04474953041	1452.19995117188
1659.65644076501	1449.59997558594
1660.26805168869	1426.80004882813
1660.87958230886	1433.80004882813
1661.49103263294	1424
1662.10240266837	1431.40002441406
1662.71369242255	1428.19995117188
1663.32490190291	1424.59997558594
1663.93603111687	1424.59997558594
1664.54708007184	1403.59997558594
1665.15804877524	1413.80004882813
1665.7689372345	1416
1666.37974545703	1417.80004882813
1666.99047345024	1419.40002441406
1667.60112122156	1427.59997558594
1668.2116887784	1429.80004882813
1668.82217612818	1415.40002441406
1669.43258327831	1394
1670.04291023622	1391.59997558594
1670.65315700931	1387.59997558594
1671.263323605	1372.80004882813
1671.8734100307	1367.40002441406
1672.48341629384	1360.59997558594
1673.09334240182	1355.40002441406
1673.70318836206	1344.40002441406
1674.31295418197	1343.80004882813
1674.92263986896	1344.40002441406
1675.53224543046	1343.80004882813
1676.14177087386	1355.40002441406
1676.75121620658	1345.40002441406
1677.36058143604	1340.80004882813
1677.96986656964	1357.19995117188
1678.5790716148	1352.19995117188
1679.18819657892	1348.80004882813
1679.79724146943	1359.59997558594
1680.40620629372	1364.40002441406
1681.0150910592	1359.80004882813
1681.6238957733	1380.59997558594
1682.23262044341	1380.80004882813
1682.84126507694	1382
1683.4498296813	1388.59997558594
1684.0583142639	1388.59997558594
1684.66671883216	1389.59997558594
1685.27504339346	1379.19995117188
1685.88328795523	1367.59997558594
1686.49145252487	1363.59997558594
1687.09953710978	1367.40002441406
1687.70754171737	1366
1688.31546635505	1371.40002441406
1688.92331103021	1377
1689.53107575028	1382
1690.13876052265	1375.59997558594
1690.74636535472	1379.80004882813
1691.3538902539	1376
1691.96133522759	1371.19995117188
1692.5687002832	1373.40002441406
1693.17598542812	1368.80004882813
1693.78319066977	1355.80004882813
1694.39031601554	1343.80004882813
1694.99736147283	1347
1695.60432704905	1345.80004882813
1696.2112127516	1361.80004882813
1696.81801858788	1369.40002441406
1697.42474456528	1374.80004882813
1698.03139069121	1369
1698.63795697307	1373.80004882813
1699.24444341826	1363
1699.85085003417	1353.80004882813
1700.45717682821	1349.59997558594
1701.06342380778	1345.80004882813
1701.66959098026	1351.19995117188
1702.27567835307	1349
1702.88168593359	1351.80004882813
1703.48761372922	1349.59997558594
1704.09346174737	1348
1704.69922999542	1354.40002441406
1705.30491848077	1347
1705.91052721083	1354.59997558594
1706.51605619297	1355.80004882813
1707.12150543461	1345.80004882813
1707.72687494312	1332.80004882813
1708.33216472592	1341.40002441406
1708.93737479039	1333.59997558594
1709.54250514392	1325.59997558594
