 6.34948E+02
 6.35690E+02
 6.36432E+02
 6.37175E+02
 6.37916E+02
 6.38658E+02
 6.39400E+02
 6.40142E+02
 6.40883E+02
 6.41625E+02
 6.42366E+02
 6.43107E+02
 6.43849E+02
 6.44590E+02
 6.45331E+02
 6.46072E+02
 6.46813E+02
 6.47553E+02
 6.48294E+02
 6.49035E+02
 6.49775E+02
 6.50515E+02
 6.51256E+02
 6.51996E+02
 6.52736E+02
 6.53476E+02
 6.54216E+02
 6.54956E+02
 6.55696E+02
 6.56435E+02
 6.57175E+02
 6.57914E+02
 6.58654E+02
 6.59393E+02
 6.60132E+02
 6.60871E+02
 6.61610E+02
 6.62349E+02
 6.63088E+02
 6.63827E+02
 6.64565E+02
 6.65304E+02
 6.66042E+02
 6.66781E+02
 6.67519E+02
 6.68257E+02
 6.68995E+02
 6.69733E+02
 6.70471E+02
 6.71209E+02
 6.71947E+02
 6.72684E+02
 6.73422E+02
 6.74159E+02
 6.74897E+02
 6.75634E+02
 6.76371E+02
 6.77108E+02
 6.77845E+02
 6.78582E+02
 6.79319E+02
 6.80055E+02
 6.80792E+02
 6.81529E+02
 6.82265E+02
 6.83001E+02
 6.83738E+02
 6.84474E+02
 6.85210E+02
 6.85946E+02
 6.86682E+02
 6.87418E+02
 6.88153E+02
 6.88889E+02
 6.89624E+02
 6.90360E+02
 6.91095E+02
 6.91830E+02
 6.92566E+02
 6.93301E+02
 6.94036E+02
 6.94771E+02
 6.95505E+02
 6.96240E+02
 6.96975E+02
 6.97709E+02
 6.98444E+02
 6.99178E+02
 6.99912E+02
 7.00646E+02
 7.01380E+02
 7.02114E+02
 7.02848E+02
 7.03582E+02
 7.04316E+02
 7.05049E+02
 7.05783E+02
 7.06516E+02
 7.07250E+02
 7.07983E+02
 7.08716E+02
 7.09449E+02
 7.10182E+02
 7.10915E+02
 7.11648E+02
 7.12380E+02
 7.13113E+02
 7.13846E+02
 7.14578E+02
 7.15310E+02
 7.16043E+02
 7.16775E+02
 7.17507E+02
 7.18239E+02
 7.18971E+02
 7.19702E+02
 7.20434E+02
 7.21166E+02
 7.21897E+02
 7.22629E+02
 7.23360E+02
 7.24091E+02
 7.24822E+02
 7.25553E+02
 7.26284E+02
 7.27015E+02
 7.27746E+02
 7.28477E+02
 7.29207E+02
 7.29938E+02
 7.30668E+02
 7.31399E+02
 7.32129E+02
 7.32859E+02
 7.33589E+02
 7.34319E+02
 7.35049E+02
 7.35779E+02
 7.36508E+02
 7.37238E+02
 7.37967E+02
 7.38697E+02
 7.39426E+02
 7.40155E+02
 7.40885E+02
 7.41614E+02
 7.42343E+02
 7.43071E+02
 7.43800E+02
 7.44529E+02
 7.45258E+02
 7.45986E+02
 7.46714E+02
 7.47443E+02
 7.48171E+02
 7.48899E+02
 7.49627E+02
 7.50355E+02
 7.51083E+02
 7.51811E+02
 7.52539E+02
 7.53266E+02
 7.53994E+02
 7.54721E+02
 7.55448E+02
 7.56176E+02
 7.56903E+02
 7.57630E+02
 7.58357E+02
 7.59084E+02
 7.59811E+02
 7.60537E+02
 7.61264E+02
 7.61990E+02
 7.62717E+02
 7.63443E+02
 7.64169E+02
 7.64896E+02
 7.65622E+02
 7.66348E+02
 7.67073E+02
 7.67799E+02
 7.68525E+02
 7.69251E+02
 7.69976E+02
 7.70702E+02
 7.71427E+02
 7.72152E+02
 7.72877E+02
 7.73602E+02
 7.74327E+02
 7.75052E+02
 7.75777E+02
 7.76502E+02
 7.77226E+02
 7.77951E+02
 7.78675E+02
 7.79400E+02
 7.80124E+02
 7.80848E+02
 7.81572E+02
 7.82296E+02
 7.83020E+02
 7.83744E+02
 7.84467E+02
 7.85191E+02
 7.85915E+02
 7.86638E+02
 7.87361E+02
 7.88085E+02
 7.88808E+02
 7.89531E+02
 7.90254E+02
 7.90977E+02
 7.91700E+02
 7.92422E+02
 7.93145E+02
 7.93868E+02
 7.94590E+02
 7.95312E+02
 7.96035E+02
 7.96757E+02
 7.97479E+02
 7.98201E+02
 7.98923E+02
 7.99645E+02
 8.00366E+02
 8.01088E+02
 8.01809E+02
 8.02531E+02
 8.03252E+02
 8.03974E+02
 8.04695E+02
 8.05416E+02
 8.06137E+02
 8.06858E+02
 8.07579E+02
 8.08299E+02
 8.09020E+02
 8.09740E+02
 8.10461E+02
 8.11181E+02
 8.11902E+02
 8.12622E+02
 8.13342E+02
 8.14062E+02
 8.14782E+02
 8.15502E+02
 8.16221E+02
 8.16941E+02
 8.17661E+02
 8.18380E+02
 8.19099E+02
 8.19819E+02
 8.20538E+02
 8.21257E+02
 8.21976E+02
 8.22695E+02
 8.23414E+02
 8.24133E+02
 8.24851E+02
 8.25570E+02
 8.26288E+02
 8.27007E+02
 8.27725E+02
 8.28443E+02
 8.29161E+02
 8.29879E+02
 8.30597E+02
 8.31315E+02
 8.32033E+02
 8.32751E+02
 8.33468E+02
 8.34186E+02
 8.34903E+02
 8.35620E+02
 8.36338E+02
 8.37055E+02
 8.37772E+02
 8.38489E+02
 8.39206E+02
 8.39922E+02
 8.40639E+02
 8.41356E+02
 8.42072E+02
 8.42789E+02
 8.43505E+02
 8.44221E+02
 8.44937E+02
 8.45653E+02
 8.46369E+02
 8.47085E+02
 8.47801E+02
 8.48517E+02
 8.49232E+02
 8.49948E+02
 8.50663E+02
 8.51379E+02
 8.52094E+02
 8.52809E+02
 8.53524E+02
 8.54239E+02
 8.54954E+02
 8.55669E+02
 8.56384E+02
 8.57098E+02
 8.57813E+02
 8.58527E+02
 8.59242E+02
 8.59956E+02
 8.60670E+02
 8.61384E+02
 8.62098E+02
 8.62812E+02
 8.63526E+02
 8.64240E+02
 8.64953E+02
 8.65667E+02
 8.66380E+02
 8.67094E+02
 8.67807E+02
 8.68520E+02
 8.69233E+02
 8.69946E+02
 8.70659E+02
 8.71372E+02
 8.72085E+02
 8.72797E+02
 8.73510E+02
 8.74222E+02
 8.74935E+02
 8.75647E+02
 8.76359E+02
 8.77071E+02
 8.77783E+02
 8.78495E+02
 8.79207E+02
 8.79919E+02
 8.80631E+02
 8.81342E+02
 8.82054E+02
 8.82765E+02
 8.83476E+02
 8.84188E+02
 8.84899E+02
 8.85610E+02
 8.86321E+02
 8.87032E+02
 8.87742E+02
 8.88453E+02
 8.89164E+02
 8.89874E+02
 8.90585E+02
 8.91295E+02
 8.92005E+02
 8.92715E+02
 8.93425E+02
 8.94135E+02
 8.94845E+02
 8.95555E+02
 8.96265E+02
 8.96974E+02
 8.97684E+02
 8.98393E+02
 8.99103E+02
 8.99812E+02
 9.00521E+02
 9.01230E+02
 9.01939E+02
 9.02648E+02
 9.03357E+02
 9.04066E+02
 9.04774E+02
 9.05483E+02
 9.06191E+02
 9.06900E+02
 9.07608E+02
 9.08316E+02
 9.09024E+02
 9.09732E+02
 9.10440E+02
 9.11148E+02
 9.11856E+02
 9.12564E+02
 9.13271E+02
 9.13979E+02
 9.14686E+02
 9.15393E+02
 9.16101E+02
 9.16808E+02
 9.17515E+02
 9.18222E+02
 9.18929E+02
 9.19635E+02
 9.20342E+02
 9.21049E+02
 9.21755E+02
 9.22461E+02
 9.23168E+02
 9.23874E+02
 9.24580E+02
 9.25286E+02
 9.25992E+02
 9.26698E+02
 9.27404E+02
 9.28110E+02
 9.28815E+02
 9.29521E+02
 9.30226E+02
 9.30932E+02
 9.31637E+02
 9.32342E+02
 9.33047E+02
 9.33752E+02
 9.34457E+02
 9.35162E+02
 9.35867E+02
 9.36571E+02
 9.37276E+02
 9.37980E+02
 9.38685E+02
 9.39389E+02
 9.40093E+02
 9.40797E+02
 9.41501E+02
 9.42205E+02
 9.42909E+02
 9.43613E+02
 9.44316E+02
 9.45020E+02
 9.45723E+02
 9.46427E+02
 9.47130E+02
 9.47833E+02
 9.48537E+02
 9.49240E+02
 9.49943E+02
 9.50645E+02
 9.51348E+02
 9.52051E+02
 9.52753E+02
 9.53456E+02
 9.54158E+02
 9.54861E+02
 9.55563E+02
 9.56265E+02
 9.56967E+02
 9.57669E+02
 9.58371E+02
 9.59073E+02
 9.59775E+02
 9.60476E+02
 9.61178E+02
 9.61879E+02
 9.62581E+02
 9.63282E+02
 9.63983E+02
 9.64684E+02
 9.65385E+02
 9.66086E+02
 9.66787E+02
 9.67488E+02
 9.68188E+02
 9.68889E+02
 9.69589E+02
 9.70290E+02
 9.70990E+02
 9.71690E+02
 9.72390E+02
 9.73091E+02
 9.73790E+02
 9.74490E+02
 9.75190E+02
 9.75890E+02
 9.76589E+02
 9.77289E+02
 9.77988E+02
 9.78688E+02
 9.79387E+02
 9.80086E+02
 9.80785E+02
 9.81484E+02
 9.82183E+02
 9.82882E+02
 9.83581E+02
 9.84279E+02
 9.84978E+02
 9.85676E+02
 9.86374E+02
 9.87073E+02
 9.87771E+02
 9.88469E+02
 9.89167E+02
 9.89865E+02
 9.90563E+02
 9.91261E+02
 9.91958E+02
 9.92656E+02
 9.93353E+02
 9.94051E+02
 9.94748E+02
 9.95445E+02
 9.96142E+02
 9.96839E+02
 9.97536E+02
 9.98233E+02
 9.98930E+02
 9.99627E+02
 1.00032E+03
 1.00102E+03
 1.00172E+03
 1.00241E+03
 1.00311E+03
 1.00380E+03
 1.00450E+03
 1.00520E+03
 1.00589E+03
 1.00659E+03
 1.00728E+03
 1.00798E+03
 1.00868E+03
 1.00937E+03
 1.01007E+03
 1.01076E+03
 1.01146E+03
 1.01215E+03
 1.01285E+03
 1.01354E+03
 1.01424E+03
 1.01493E+03
 1.01563E+03
 1.01632E+03
 1.01702E+03
 1.01771E+03
 1.01840E+03
 1.01910E+03
 1.01979E+03
 1.02049E+03
 1.02118E+03
 1.02187E+03
 1.02257E+03
 1.02326E+03
 1.02396E+03
 1.02465E+03
 1.02534E+03
 1.02604E+03
 1.02673E+03
 1.02742E+03
 1.02812E+03
 1.02881E+03
 1.02950E+03
 1.03019E+03
 1.03089E+03
 1.03158E+03
 1.03227E+03
 1.03296E+03
 1.03366E+03
 1.03435E+03
 1.03504E+03
 1.03573E+03
 1.03643E+03
 1.03712E+03
 1.03781E+03
 1.03850E+03
 1.03919E+03
 1.03988E+03
 1.04058E+03
 1.04127E+03
 1.04196E+03
 1.04265E+03
 1.04334E+03
 1.04403E+03
 1.04472E+03
 1.04541E+03
 1.04610E+03
 1.04680E+03
 1.04749E+03
 1.04818E+03
 1.04887E+03
 1.04956E+03
 1.05025E+03
 1.05094E+03
 1.05163E+03
 1.05232E+03
 1.05301E+03
 1.05370E+03
 1.05439E+03
 1.05508E+03
 1.05577E+03
 1.05646E+03
 1.05715E+03
 1.05784E+03
 1.05852E+03
 1.05921E+03
 1.05990E+03
 1.06059E+03
 1.06128E+03
 1.06197E+03
 1.06266E+03
 1.06335E+03
 1.06404E+03
 1.06472E+03
 1.06541E+03
 1.06610E+03
 1.06679E+03
 1.06748E+03
 1.06816E+03
 1.06885E+03
 1.06954E+03
 1.07023E+03
 1.07092E+03
 1.07160E+03
 1.07229E+03
 1.07298E+03
 1.07367E+03
 1.07435E+03
 1.07504E+03
 1.07573E+03
 1.07641E+03
 1.07710E+03
 1.07779E+03
 1.07847E+03
 1.07916E+03
 1.07985E+03
 1.08053E+03
 1.08122E+03
 1.08191E+03
 1.08259E+03
 1.08328E+03
 1.08397E+03
 1.08465E+03
 1.08534E+03
 1.08602E+03
 1.08671E+03
 1.08739E+03
 1.08808E+03
 1.08876E+03
 1.08945E+03
 1.09014E+03
 1.09082E+03
 1.09151E+03
 1.09219E+03
 1.09288E+03
 1.09356E+03
 1.09424E+03
 1.09493E+03
 1.09561E+03
 1.09630E+03
 1.09698E+03
 1.09767E+03
 1.09835E+03
 1.09904E+03
 1.09972E+03
 1.10040E+03
 1.10109E+03
 1.10177E+03
 1.10245E+03
 1.10314E+03
 1.10382E+03
 1.10451E+03
 1.10519E+03
 1.10587E+03
 1.10655E+03
 1.10724E+03
 1.10792E+03
 1.10860E+03
 1.10929E+03
 1.10997E+03
 1.11065E+03
 1.11133E+03
 1.11202E+03
 1.11270E+03
 1.11338E+03
 1.11406E+03
 1.11475E+03
 1.11543E+03
 1.11611E+03
 1.11679E+03
 1.11747E+03
 1.11815E+03
 1.11884E+03
 1.11952E+03
 1.12020E+03
 1.12088E+03
 1.12156E+03
 1.12224E+03
 1.12292E+03
 1.12361E+03
 1.12429E+03
 1.12497E+03
 1.12565E+03
 1.12633E+03
 1.12701E+03
 1.12769E+03
 1.12837E+03
 1.12905E+03
 1.12973E+03
 1.13041E+03
 1.13109E+03
 1.13177E+03
 1.13245E+03
 1.13313E+03
 1.13381E+03
 1.13449E+03
 1.13517E+03
 1.13585E+03
 1.13653E+03
 1.13721E+03
 1.13789E+03
 1.13856E+03
 1.13924E+03
 1.13992E+03
 1.14060E+03
 1.14128E+03
 1.14196E+03
 1.14264E+03
 1.14332E+03
 1.14399E+03
 1.14467E+03
 1.14535E+03
 1.14603E+03
 1.14671E+03
 1.14738E+03
 1.14806E+03
 1.14874E+03
 1.14942E+03
 1.15010E+03
 1.15077E+03
 1.15145E+03
 1.15213E+03
 1.15281E+03
 1.15348E+03
 1.15416E+03
 1.15484E+03
 1.15551E+03
 1.15619E+03
 1.15687E+03
 1.15754E+03
 1.15822E+03
 1.15890E+03
 1.15957E+03
 1.16025E+03
 1.16093E+03
 1.16160E+03
 1.16228E+03
 1.16295E+03
 1.16363E+03
 1.16431E+03
 1.16498E+03
 1.16566E+03
 1.16633E+03
 1.16701E+03
 1.16768E+03
 1.16836E+03
 1.16903E+03
 1.16971E+03
 1.17038E+03
 1.17106E+03
 1.17173E+03
 1.17241E+03
 1.17308E+03
 1.17376E+03
 1.17443E+03
 1.17511E+03
 1.17578E+03
 1.17646E+03
 1.17713E+03
 1.17780E+03
 1.17848E+03
 1.17915E+03
 1.17983E+03
 1.18050E+03
 1.18117E+03
 1.18185E+03
 1.18252E+03
 1.18319E+03
 1.18387E+03
 1.18454E+03
 1.18521E+03
 1.18589E+03
 1.18656E+03
 1.18723E+03
 1.18790E+03
 1.18858E+03
 1.18925E+03
 1.18992E+03
 1.19059E+03
 1.19127E+03
 1.19194E+03
 1.19261E+03
 1.19328E+03
 1.19396E+03
 1.19463E+03
 1.19530E+03
 1.19597E+03
 1.19664E+03
 1.19731E+03
 1.19799E+03
 1.19866E+03
 1.19933E+03
 1.20000E+03
 1.20067E+03
 1.20134E+03
 1.20201E+03
 1.20268E+03
 1.20335E+03
 1.20403E+03
 1.20470E+03
 1.20537E+03
 1.20604E+03
 1.20671E+03
 1.20738E+03
 1.20805E+03
 1.20872E+03
 1.20939E+03
 1.21006E+03
 1.21073E+03
 1.21140E+03
 1.21207E+03
 1.21274E+03
 1.21341E+03
 1.21408E+03
 1.21475E+03
 1.21541E+03
 1.21608E+03
 1.21675E+03
 1.21742E+03
 1.21809E+03
 1.21876E+03
 1.21943E+03
 1.22010E+03
 1.22077E+03
 1.22143E+03
 1.22210E+03
 1.22277E+03
 1.22344E+03
 1.22411E+03
 1.22478E+03
 1.22544E+03
 1.22611E+03
 1.22678E+03
 1.22745E+03
 1.22811E+03
 1.22878E+03
 1.22945E+03
 1.23012E+03
 1.23078E+03
 1.23145E+03
 1.23212E+03
 1.23279E+03
 1.23345E+03
 1.23412E+03
 1.23479E+03
 1.23545E+03
 1.23612E+03
 1.23679E+03
 1.23745E+03
 1.23812E+03
 1.23879E+03
 1.23945E+03
 1.24012E+03
 1.24078E+03
 1.24145E+03
 1.24212E+03
 1.24278E+03
 1.24345E+03
 1.24411E+03
 1.24478E+03
 1.24544E+03
 1.24611E+03
 1.24677E+03
 1.24744E+03
 1.24810E+03
 1.24877E+03
 1.24943E+03
 1.25010E+03
 1.25076E+03
 1.25143E+03
 1.25209E+03
 1.25276E+03
 1.25342E+03
 1.25409E+03
 1.25475E+03
 1.25541E+03
 1.25608E+03
 1.25674E+03
 1.25741E+03
 1.25807E+03
 1.25873E+03
 1.25940E+03
 1.26006E+03
 1.26072E+03
 1.26139E+03
 1.26205E+03
 1.26271E+03
 1.26338E+03
 1.26404E+03
 1.26470E+03
 1.26537E+03
 1.26603E+03
 1.26669E+03
 1.26735E+03
 1.26802E+03
 1.26868E+03
 1.26934E+03
 1.27000E+03
 1.27067E+03
 1.27133E+03
 1.27199E+03
 1.27265E+03
 1.27331E+03
 1.27398E+03
 1.27464E+03
 1.27530E+03
 1.27596E+03
 1.27662E+03
 1.27728E+03
 1.27795E+03
 1.27861E+03
 1.27927E+03
 1.27993E+03
 1.28059E+03
 1.28125E+03
 1.28191E+03
 1.28257E+03
 1.28323E+03
 1.28389E+03
 1.28455E+03
 1.28521E+03
 1.28587E+03
 1.28653E+03
 1.28719E+03
 1.28785E+03
 1.28851E+03
 1.28917E+03
 1.28983E+03
 1.29049E+03
 1.29115E+03
 1.29181E+03
 1.29247E+03
 1.29313E+03
 1.29379E+03
 1.29445E+03
 1.29511E+03
 1.29577E+03
 1.29643E+03
 1.29708E+03
 1.29774E+03
 1.29840E+03
 1.29906E+03
 1.29972E+03
 1.30038E+03
 1.30104E+03
 1.30169E+03
 1.30235E+03
 1.30301E+03
 1.30367E+03
 1.30433E+03
 1.30498E+03
 1.30564E+03
 1.30630E+03
 1.30696E+03
 1.30761E+03
 1.30827E+03
 1.30893E+03
 1.30959E+03
 1.31024E+03
 1.31090E+03
 1.31156E+03
 1.31221E+03
 1.31287E+03
 1.31353E+03
 1.31418E+03
 1.31484E+03
 1.31550E+03
 1.31615E+03
 1.31681E+03
 1.31747E+03
 1.31812E+03
 1.31878E+03
 1.31943E+03
 1.32009E+03
 1.32075E+03
 1.32140E+03
 1.32206E+03
 1.32271E+03
 1.32337E+03
 1.32402E+03
 1.32468E+03
 1.32533E+03
 1.32599E+03
 1.32664E+03
 1.32730E+03
 1.32795E+03
 1.32861E+03
 1.32926E+03
 1.32992E+03
 1.33057E+03
 1.33123E+03
 1.33188E+03
 1.33253E+03
 1.33319E+03
 1.33384E+03
 1.33450E+03
 1.33515E+03
 1.33580E+03
 1.33646E+03
 1.33711E+03
 1.33777E+03
 1.33842E+03
 1.33907E+03
 1.33973E+03
 1.34038E+03
 1.34103E+03
 1.34169E+03
 1.34234E+03
 1.34299E+03
 1.34364E+03
 1.34430E+03
 1.34495E+03
 1.34560E+03
 1.34625E+03
 1.34691E+03
 1.34756E+03
 1.34821E+03
 1.34886E+03
 1.34952E+03
 1.35017E+03
 1.35082E+03
 1.35147E+03
 1.35212E+03
 1.35277E+03
 1.35343E+03
 1.35408E+03
 1.35473E+03
 1.35538E+03
 1.35603E+03
 1.35668E+03
 1.35733E+03
 1.35798E+03
 1.35864E+03
 1.35929E+03
 1.35994E+03
 1.36059E+03
 1.36124E+03
 1.36189E+03
 1.36254E+03
 1.36319E+03
 1.36384E+03
 1.36449E+03
 1.36514E+03
 1.36579E+03
 1.36644E+03
 1.36709E+03
 1.36774E+03
 1.36839E+03
 1.36904E+03
 1.36969E+03
 1.37034E+03
 1.37099E+03
 1.37164E+03
 1.37229E+03
 1.37293E+03
 1.37358E+03
 1.37423E+03
 1.37488E+03
 1.37553E+03
 1.37618E+03
 1.37683E+03
 1.37748E+03
 1.37812E+03
 1.37877E+03
 1.37942E+03
 1.38007E+03
 1.38072E+03
 1.38136E+03
 1.38201E+03
 1.38266E+03
 1.38331E+03
 1.38396E+03
 1.38460E+03
 1.38525E+03
 1.38590E+03
 1.38654E+03
 1.38719E+03
 1.38784E+03
 1.38849E+03
 1.38913E+03
 1.38978E+03
 1.39043E+03
 1.39107E+03
 1.39172E+03
 1.39237E+03
 1.39301E+03
 1.39366E+03
 1.39431E+03
 1.39495E+03
 1.39560E+03
 1.39624E+03
 1.39689E+03
 1.39754E+03
 1.39818E+03
 1.39883E+03
 1.39947E+03
 1.40012E+03
 1.40076E+03
 1.40141E+03
 1.40205E+03
 1.40270E+03
 1.40334E+03
 1.40399E+03
 1.40463E+03
 1.40528E+03
 1.40592E+03
 1.40657E+03
 1.40721E+03
 1.40786E+03
 1.40850E+03
 1.40915E+03
 1.40979E+03
 1.41044E+03
 1.41108E+03
 1.41172E+03
 1.41237E+03
 1.41301E+03
 1.41366E+03
 1.41430E+03
 1.41494E+03
 1.41559E+03
 1.41623E+03
 1.41687E+03
 1.41752E+03
 1.41816E+03
 1.41880E+03
 1.41945E+03
 1.42009E+03
 1.42073E+03
 1.42137E+03
 1.42202E+03
 1.42266E+03
 1.42330E+03
 1.42394E+03
 1.42459E+03
 1.42523E+03
 1.42587E+03
 1.42651E+03
 1.42716E+03
 1.42780E+03
 1.42844E+03
 1.42908E+03
 1.42972E+03
 1.43036E+03
 1.43101E+03
 1.43165E+03
 1.43229E+03
 1.43293E+03
 1.43357E+03
 1.43421E+03
 1.43485E+03
 1.43549E+03
 1.43614E+03
 1.43678E+03
 1.43742E+03
 1.43806E+03
 1.43870E+03
 1.43934E+03
 1.43998E+03
 1.44062E+03
 1.44126E+03
 1.44190E+03
 1.44254E+03
 1.44318E+03
 1.44382E+03
 1.44446E+03
 1.44510E+03
 1.44574E+03
 1.44638E+03
 1.44702E+03
 1.44766E+03
 1.44830E+03
 1.44894E+03
 1.44957E+03
 1.45021E+03
 1.45085E+03
 1.45149E+03
 1.45213E+03
 1.45277E+03
 1.45341E+03
 1.45405E+03
 1.45468E+03
 1.45532E+03
 1.45596E+03
 1.45660E+03
 1.45724E+03
 1.45788E+03
 1.45851E+03
 1.45915E+03
 1.45979E+03
 1.46043E+03
 1.46106E+03
 1.46170E+03
 1.46234E+03
 1.46298E+03
 1.46361E+03
 1.46425E+03
 1.46489E+03
 1.46553E+03
 1.46616E+03
 1.46680E+03
 1.46744E+03
 1.46807E+03
 1.46871E+03
 1.46935E+03
 1.46998E+03
 1.47062E+03
 1.47126E+03
 1.47189E+03
 1.47253E+03
 1.47316E+03
 1.47380E+03
 1.47444E+03
 1.47507E+03
 1.47571E+03
 1.47634E+03
 1.47698E+03
 1.47761E+03
 1.47825E+03
 1.47889E+03
 1.47952E+03
 1.48016E+03
 1.48079E+03
 1.48143E+03
 1.48206E+03
 1.48270E+03
 1.48333E+03
 1.48396E+03
 1.48460E+03
 1.48523E+03
 1.48587E+03
 1.48650E+03
 1.48714E+03
 1.48777E+03
 1.48841E+03
 1.48904E+03
 1.48967E+03
 1.49031E+03
 1.49094E+03
 1.49157E+03
 1.49221E+03
 1.49284E+03
 1.49347E+03
 1.49411E+03
 1.49474E+03
 1.49537E+03
 1.49601E+03
 1.49664E+03
 1.49727E+03
 1.49791E+03
 1.49854E+03
 1.49917E+03
 1.49980E+03
 1.50044E+03
 1.50107E+03
 1.50170E+03
 1.50233E+03
 1.50297E+03
 1.50360E+03
 1.50423E+03
 1.50486E+03
 1.50549E+03
 1.50613E+03
 1.50676E+03
 1.50739E+03
 1.50802E+03
 1.50865E+03
 1.50928E+03
 1.50992E+03
 1.51055E+03
 1.51118E+03
 1.51181E+03
 1.51244E+03
 1.51307E+03
 1.51370E+03
 1.51433E+03
 1.51496E+03
 1.51559E+03
 1.51622E+03
 1.51685E+03
 1.51748E+03
 1.51811E+03
 1.51874E+03
 1.51937E+03
 1.52000E+03
 1.52063E+03
 1.52126E+03
 1.52189E+03
 1.52252E+03
 1.52315E+03
 1.52378E+03
 1.52441E+03
 1.52504E+03
 1.52567E+03
 1.52630E+03
 1.52693E+03
 1.52756E+03
 1.52819E+03
 1.52882E+03
 1.52944E+03
 1.53007E+03
 1.53070E+03
 1.53133E+03
 1.53196E+03
 1.53259E+03
 1.53322E+03
 1.53384E+03
 1.53447E+03
 1.53510E+03
 1.53573E+03
 1.53636E+03
 1.53698E+03
 1.53761E+03
 1.53824E+03
 1.53887E+03
 1.53949E+03
 1.54012E+03
 1.54075E+03
 1.54138E+03
 1.54200E+03
 1.54263E+03
 1.54326E+03
 1.54388E+03
 1.54451E+03
 1.54514E+03
 1.54576E+03
 1.54639E+03
 1.54702E+03
 1.54764E+03
 1.54827E+03
 1.54890E+03
 1.54952E+03
 1.55015E+03
 1.55077E+03
 1.55140E+03
 1.55203E+03
 1.55265E+03
 1.55328E+03
 1.55390E+03
 1.55453E+03
 1.55515E+03
 1.55578E+03
 1.55640E+03
 1.55703E+03
 1.55765E+03
 1.55828E+03
 1.55890E+03
 1.55953E+03
 1.56015E+03
 1.56078E+03
 1.56140E+03
 1.56203E+03
 1.56265E+03
 1.56328E+03
 1.56390E+03
 1.56452E+03
 1.56515E+03
 1.56577E+03
 1.56640E+03
 1.56702E+03
 1.56764E+03
 1.56827E+03
 1.56889E+03
 1.56951E+03
 1.57014E+03
 1.57076E+03
 1.57139E+03
 1.57201E+03
 1.57263E+03
 1.57325E+03
 1.57388E+03
 1.57450E+03
 1.57512E+03
 1.57575E+03
 1.57637E+03
 1.57699E+03
 1.57761E+03
 1.57824E+03
 1.57886E+03
 1.57948E+03
 1.58010E+03
 1.58072E+03
 1.58135E+03
 1.58197E+03
 1.58259E+03
 1.58321E+03
 1.58383E+03
 1.58446E+03
 1.58508E+03
 1.58570E+03
 1.58632E+03
 1.58694E+03
 1.58756E+03
 1.58818E+03
 1.58880E+03
 1.58942E+03
 1.59005E+03
 1.59067E+03
 1.59129E+03
 1.59191E+03
 1.59253E+03
 1.59315E+03
 1.59377E+03
 1.59439E+03
 1.59501E+03
 1.59563E+03
 1.59625E+03
 1.59687E+03
 1.59749E+03
 1.59811E+03
 1.59873E+03
 1.59935E+03
 1.59997E+03
 1.60059E+03
 1.60121E+03
 1.60183E+03
 1.60245E+03
 1.60306E+03
 1.60368E+03
 1.60430E+03
 1.60492E+03
 1.60554E+03
 1.60616E+03
 1.60678E+03
 1.60740E+03
 1.60802E+03
 1.60863E+03
 1.60925E+03
 1.60987E+03
 1.61049E+03
 1.61111E+03
 1.61172E+03
 1.61234E+03
 1.61296E+03
 1.61358E+03
 1.61420E+03
 1.61481E+03
 1.61543E+03
 1.61605E+03
 1.61667E+03
 1.61728E+03
 1.61790E+03
 1.61852E+03
 1.61913E+03
 1.61975E+03
 1.62037E+03
 1.62098E+03
 1.62160E+03
 1.62222E+03
 1.62283E+03
 1.62345E+03
 1.62407E+03
 1.62468E+03
 1.62530E+03
 1.62592E+03
 1.62653E+03
 1.62715E+03
 1.62776E+03
 1.62838E+03
 1.62900E+03
 1.62961E+03
 1.63023E+03
 1.63084E+03
 1.63146E+03
 1.63207E+03
 1.63269E+03
 1.63330E+03
 1.63392E+03
 1.63453E+03
 1.63515E+03
 1.63576E+03
 1.63638E+03
 1.63699E+03
 1.63761E+03
 1.63822E+03
 1.63884E+03
 1.63945E+03
 1.64007E+03
 1.64068E+03
 1.64129E+03
 1.64191E+03
 1.64252E+03
 1.64314E+03
 1.64375E+03
 1.64436E+03
 1.64498E+03
 1.64559E+03
 1.64620E+03
 1.64682E+03
 1.64743E+03
 1.64804E+03
 1.64866E+03
 1.64927E+03
 1.64988E+03
 1.65050E+03
 1.65111E+03
 1.65172E+03
 1.65233E+03
 1.65295E+03
 1.65356E+03
 1.65417E+03
 1.65478E+03
 1.65540E+03
 1.65601E+03
 1.65662E+03
 1.65723E+03
 1.65785E+03
 1.65846E+03
 1.65907E+03
 1.65968E+03
 1.66029E+03
 1.66090E+03
 1.66152E+03
 1.66213E+03
 1.66274E+03
 1.66335E+03
 1.66396E+03
 1.66457E+03
 1.66518E+03
 1.66579E+03
 1.66640E+03
 1.66701E+03
 1.66763E+03
 1.66824E+03
 1.66885E+03
 1.66946E+03
 1.67007E+03
 1.67068E+03
 1.67129E+03
 1.67190E+03
 1.67251E+03
 1.67312E+03
 1.67373E+03
 1.67434E+03
 1.67495E+03
 1.67556E+03
 1.67617E+03
 1.67678E+03
 1.67739E+03
 1.67799E+03
 1.67860E+03
 1.67921E+03
 1.67982E+03
 1.68043E+03
 1.68104E+03
 1.68165E+03
 1.68226E+03
 1.68287E+03
 1.68348E+03
 1.68408E+03
 1.68469E+03
 1.68530E+03
 1.68591E+03
 1.68652E+03
 1.68712E+03
 1.68773E+03
 1.68834E+03
 1.68895E+03
 1.68956E+03
 1.69016E+03
 1.69077E+03
 1.69138E+03
 1.69199E+03
 1.69259E+03
 1.69320E+03
 1.69381E+03
 1.69442E+03
 1.69502E+03
 1.69563E+03
 1.69624E+03
 1.69684E+03
 1.69745E+03
 1.69806E+03
 1.69866E+03
 1.69927E+03
 1.69988E+03
 1.70048E+03
 1.70109E+03
 1.70170E+03
 1.70230E+03
 1.70291E+03
 1.70351E+03
 1.70412E+03
 1.70473E+03
 1.70533E+03
 1.70594E+03
 1.70654E+03
 1.70715E+03
 1.70775E+03
 1.70836E+03
 1.70896E+03
 1.70957E+03
