634.948122577771	1524
635.690341530823	1541.19995117188
636.43246851086	1535
637.174503525845	1520.80004882813
637.916446583745	1519.40002441406
638.658297692538	1520
639.400056860179	1512.59997558594
640.141724094637	1518
640.883299403885	1517.40002441406
641.62478279588	1513
642.366174278594	1514
643.107473859989	1527
643.848681548029	1534.59997558594
644.589797350679	1538.59997558594
645.330821275901	1541.19995117188
646.071753331665	1541.59997558594
646.812593525922	1545.80004882813
647.553341866646	1540.19995117188
648.293998361798	1538.80004882813
649.03456301933	1526.19995117188
649.775035847216	1527.80004882813
650.515416853409	1533.40002441406
651.255706045874	1527.19995117188
651.995903432568	1522.59997558594
652.736009021453	1531.59997558594
653.476022820486	1538.19995117188
654.215944837629	1528.59997558594
654.955775080842	1526.19995117188
655.695513558081	1518.80004882813
656.435160277301	1521.80004882813
657.174715246465	1521.80004882813
657.914178473527	1536.40002441406
658.653549966449	1548.40002441406
659.392829733176	1519.19995117188
660.132017781678	1546.59997558594
660.871114119901	1556.59997558594
661.610118755803	1553.80004882813
662.349031697343	1550.59997558594
663.087852952468	1550.59997558594
663.826582529139	1550.59997558594
664.565220435305	1566
665.30376667892	1577
666.04222126794	1556.59997558594
666.780584210316	1566.80004882813
667.518855514	1563.19995117188
668.25703518694	1567
668.995123237096	1559.40002441406
669.733119672413	1566
670.471024500842	1546.40002441406
671.208837730333	1555.19995117188
671.946559368839	1567.40002441406
672.684189424308	1563.19995117188
673.421727904689	1549
674.159174817929	1551.80004882813
674.896530171977	1548.80004882813
675.633793974786	1551.19995117188
676.370966234295	1545.80004882813
677.108046958461	1543.40002441406
677.845036155219	1557.59997558594
678.581933832528	1568.40002441406
679.318739998323	1573.19995117188
680.055454660558	1581.40002441406
680.792077827172	1559.19995117188
681.528609506116	1548.19995117188
682.265049705331	1551.80004882813
683.001398432759	1568.80004882813
683.737655696349	1573.19995117188
684.47382150404	1579.19995117188
685.20989586378	1570.40002441406
685.945878783503	1584
686.68177027116	1561
687.417570334688	1561.80004882813
688.153278982032	1549.40002441406
688.888896221129	1542.19995117188
689.624422059921	1550.59997558594
690.359856506349	1532.19995117188
691.095199568354	1531
691.830451253874	1531
692.565611570844	1530.80004882813
693.300680527212	1544.59997558594
694.03565813091	1540
694.770544389877	1546.40002441406
695.505339312053	1555.59997558594
696.240042905372	1553.80004882813
696.974655177772	1574.19995117188
697.70917613719	1571.80004882813
698.443605791561	1554.80004882813
699.177944148826	1544
699.912191216909	1539.80004882813
700.646347003755	1541.80004882813
701.380411517295	1530.59997558594
702.114384765465	1545.19995117188
702.848266756195	1566.80004882813
703.582057497421	1555.40002441406
704.315756997074	1573.80004882813
705.049365263089	1568.80004882813
705.782882303399	1571.40002441406
706.516308125936	1585.40002441406
707.249642738626	1589.80004882813
707.982886149403	1607.40002441406
708.716038366204	1605.40002441406
709.449099396949	1583.59997558594
710.182069249577	1584.40002441406
710.914947932009	1568
711.647735452181	1559.19995117188
712.380431818022	1556.80004882813
713.113037037454	1551.19995117188
713.845551118411	1559
714.577974068818	1554
715.310305896604	1575.59997558594
716.042546609694	1575.19995117188
716.774696216013	1576.59997558594
717.506754723493	1554
718.238722140053	1568.59997558594
718.970598473624	1585.19995117188
719.702383732127	1587
720.43407792349	1581
721.165681055634	1578.19995117188
721.897193136486	1576.19995117188
722.628614173966	1569.80004882813
723.359944175997	1556
724.091183150505	1566.80004882813
724.822331105412	1565
725.553388048638	1572.19995117188
726.284353988106	1578.80004882813
727.015228931734	1579
727.746012887449	1580.40002441406
728.476705863162	1588.59997558594
729.207307866803	1604.59997558594
729.937818906289	1577.80004882813
730.668238989535	1571.59997558594
731.398568124459	1556.40002441406
732.128806318986	1545.80004882813
732.858953581034	1558
733.589009918514	1536.40002441406
734.318975339348	1555.59997558594
735.048849851452	1565.40002441406
735.778633462744	1559.80004882813
736.508326181137	1558.40002441406
737.237928014549	1585.40002441406
737.967438970897	1593.80004882813
738.696859058095	1594.59997558594
739.426188284054	1592.80004882813
740.155426656692	1596
740.884574183922	1589.80004882813
741.613630873659	1575.19995117188
742.342596733815	1573.59997558594
743.071471772302	1584
743.800255997034	1576.19995117188
744.528949415921	1574.80004882813
745.257552036877	1569.59997558594
745.986063867811	1564.80004882813
746.714484916638	1571.80004882813
747.442815191261	1557.19995117188
748.171054699597	1562
748.899203449554	1572.40002441406
749.627261449039	1557.40002441406
750.355228705966	1571.80004882813
751.083105228239	1592
751.810891023765	1581.40002441406
752.538586100459	1572.59997558594
753.266190466218	1572
753.99370412896	1569.19995117188
754.721127096582	1576.19995117188
755.448459377	1590.40002441406
756.175700978114	1580.19995117188
756.902851907828	1600.19995117188
757.629912174055	1607.19995117188
758.356881784688	1593.80004882813
759.083760747639	1596.19995117188
759.810549070817	1588.19995117188
760.537246762113	1589.80004882813
761.263853829442	1598.59997558594
761.990370280698	1599.19995117188
762.716796123791	1598.80004882813
763.443131366618	1609.19995117188
764.169376017082	1608.40002441406
764.895530083085	1623
765.621593572527	1602.80004882813
766.347566493312	1611.80004882813
767.073448853336	1619
767.799240660502	1626.40002441406
768.524941922707	1632.59997558594
769.250552647854	1633
769.976072843836	1639.80004882813
770.701502518551	1647.19995117188
771.426841679905	1642.59997558594
772.152090335793	1659.80004882813
772.877248494107	1643.80004882813
773.602316162747	1651.80004882813
774.327293349609	1663.80004882813
775.052180062592	1644
775.776976309589	1663.80004882813
776.501682098496	1651.80004882813
777.226297437206	1660
777.950822333616	1641.80004882813
778.675256795621	1635.59997558594
779.399600831111	1639.80004882813
780.123854447983	1622.80004882813
780.84801765413	1605.40002441406
781.572090457441	1608.19995117188
782.296072865811	1601.19995117188
783.019964887131	1597.80004882813
783.743766529297	1603
784.467477800194	1586.40002441406
785.191098707719	1589.40002441406
785.914629259756	1602.19995117188
786.638069464194	1589.19995117188
787.361419328932	1588.80004882813
788.084678861852	1568.80004882813
788.807848070845	1573.80004882813
789.530926963798	1561.40002441406
790.253915548602	1557.80004882813
790.976813833144	1558.80004882813
791.699621825307	1548.40002441406
792.422339532986	1556
793.144966964061	1573.40002441406
793.86750412642	1547.40002441406
794.589951027946	1571.40002441406
795.312307676536	1573.59997558594
796.03457408006	1575.19995117188
796.756750246417	1562.40002441406
797.478836183477	1558
798.200831899137	1555.40002441406
798.92273740127	1562.59997558594
799.644552697769	1561.40002441406
800.36627779651	1579.19995117188
801.087912705374	1558
801.809457432251	1560.80004882813
802.530911985017	1561
803.252276371558	1570
803.973550599748	1574.80004882813
804.694734677472	1578.19995117188
805.415828612611	1591.80004882813
806.136832413045	1578.40002441406
806.857746086646	1590.19995117188
807.578569641305	1583.59997558594
808.299303084892	1583.19995117188
809.019946425289	1581.40002441406
809.740499670372	1573.19995117188
810.460962828022	1570.40002441406
811.181335906114	1566.40002441406
811.901618912524	1562.59997558594
812.621811855131	1561.40002441406
813.341914741809	1589.40002441406
814.061927580433	1586.40002441406
814.781850378881	1586.40002441406
815.501683145025	1579.40002441406
816.221425886743	1581
816.941078611903	1578.80004882813
817.660641328387	1582.40002441406
818.380114044065	1556.19995117188
819.099496766808	1567.19995117188
819.818789504492	1563.59997558594
820.53799226499	1558.59997558594
821.257105056168	1547
821.976127885904	1539.40002441406
822.695060762064	1543.80004882813
823.413903692525	1555
824.132656685151	1546.40002441406
824.851319747817	1540
825.569892888388	1545.19995117188
826.288376114739	1554.80004882813
827.006769434737	1540.80004882813
827.725072856249	1555.19995117188
828.443286387142	1566.40002441406
829.161410035285	1561.40002441406
829.87944380855	1571
830.597387714798	1570.59997558594
831.315241761898	1567.40002441406
832.033005957715	1583.40002441406
832.750680310119	1578.19995117188
833.468264826969	1572.59997558594
834.18575951614	1576.40002441406
834.903164385486	1594
835.620479442878	1591.19995117188
836.337704696181	1575.80004882813
837.054840153255	1572.19995117188
837.771885821962	1557.59997558594
838.488841710172	1575
839.20570782574	1576.59997558594
839.922484176531	1589
840.639170770409	1600.80004882813
841.355767615231	1595.59997558594
842.072274718864	1588
842.788692089164	1570.59997558594
843.505019733993	1568.59997558594
844.221257661209	1549.59997558594
844.937405878676	1557.40002441406
845.65346439425	1554.59997558594
846.369433215789	1567
847.085312351156	1551.59997558594
847.801101808205	1549
848.516801594793	1561.59997558594
849.232411718781	1555.19995117188
849.947932188021	1566.40002441406
850.663363010376	1549.40002441406
851.378704193698	1546.80004882813
852.093955745842	1563.59997558594
852.809117674669	1549
853.524189988028	1544.59997558594
854.239172693778	1530.80004882813
854.954065799768	1522.59997558594
855.668869313857	1532.40002441406
856.383583243899	1544.40002441406
857.098207597743	1530.80004882813
857.812742383246	1530.19995117188
858.527187608255	1530.59997558594
859.241543280628	1525.19995117188
859.955809408218	1521
860.669985998868	1520.80004882813
861.384073060437	1511.19995117188
862.098070600772	1514.80004882813
862.811978627724	1510
863.52579714914	1509.19995117188
864.239526172873	1505.40002441406
864.953165706776	1495.59997558594
865.666715758687	1525.80004882813
866.380176336464	1534.59997558594
867.093547447951	1543.59997558594
867.806829100996	1528.80004882813
868.520021303444	1534.19995117188
869.233124063149	1532
869.94613738795	1528.59997558594
870.659061285693	1538.80004882813
871.37189576423	1543.40002441406
872.084640831403	1544.19995117188
872.797296495057	1553.40002441406
873.509862763039	1545.59997558594
874.22233964319	1519.40002441406
874.934727143353	1520.59997558594
875.647025271374	1543.19995117188
876.359234035097	1527.40002441406
877.071353442361	1526
877.783383501015	1524.80004882813
878.495324218895	1536.80004882813
879.207175603844	1552.59997558594
879.918937663705	1550.59997558594
880.630610406318	1541.19995117188
881.342193839524	1527
882.053687971161	1532.80004882813
882.765092809069	1528.80004882813
883.476408361091	1512.19995117188
884.187634635066	1540
884.898771638828	1522.19995117188
885.609819380221	1530.59997558594
886.320777867076	1541.59997558594
887.031647107236	1538
887.742427108536	1552.80004882813
888.453117878816	1552.19995117188
889.16371942591	1541.40002441406
889.874231757652	1533.59997558594
890.584654881883	1526.40002441406
891.294988806434	1537
892.005233539141	1548.59997558594
892.715389087837	1534.40002441406
893.42545546036	1557.19995117188
894.135432664543	1556.80004882813
894.845320708216	1545.40002441406
895.555119599216	1541.80004882813
896.264829345375	1526.19995117188
896.974449954526	1530.80004882813
897.683981434496	1521
898.393423793125	1544.59997558594
899.102777038235	1532.59997558594
899.812041177664	1539.80004882813
900.521216219239	1547.19995117188
901.230302170793	1542.19995117188
901.939299040155	1543.19995117188
902.64820683515	1554.19995117188
903.357025563612	1540.19995117188
904.065755233368	1535.40002441406
904.774395852247	1520.59997558594
905.482947428076	1542.80004882813
906.191409968682	1537.40002441406
906.899783481897	1551.59997558594
907.608067975538	1531.19995117188
908.316263457443	1522.40002441406
909.02436993543	1523.40002441406
909.732387417327	1519.19995117188
910.440315910959	1530.40002441406
911.148155424154	1532.80004882813
911.855905964731	1528.59997558594
912.563567540521	1516.59997558594
913.271140159339	1517.80004882813
913.978623829017	1513.59997558594
914.686018557374	1529.19995117188
915.393324352237	1532
916.100541221421	1540
916.807669172752	1543.19995117188
917.514708214054	1532.59997558594
918.221658353142	1525
918.928519597843	1530.80004882813
919.635291955976	1522.80004882813
920.341975435358	1527
921.048570043813	1530.19995117188
921.75507578916	1542
922.461492679212	1543.19995117188
923.167820721795	1548.40002441406
923.874059924726	1537.59997558594
924.58021029582	1543.59997558594
925.286271842893	1557
925.992244573769	1560.80004882813
926.698128496262	1567
927.403923618184	1552
928.109629947355	1536.19995117188
928.815247491593	1529.59997558594
929.520776258708	1536
930.226216256519	1530.19995117188
930.931567492841	1516.59997558594
931.636829975482	1509
932.342003712263	1511.40002441406
933.047088710995	1515.80004882813
933.752084979491	1512
934.456992525564	1506.80004882813
935.161811357024	1509.80004882813
935.866541481688	1505.19995117188
936.571182907363	1500.40002441406
937.275735641861	1498.80004882813
937.980199692995	1495.59997558594
938.684575068572	1488.80004882813
939.388861776411	1505.40002441406
940.093059824311	1515.59997558594
940.797169220085	1513
941.501189971544	1520
942.205122086495	1523
942.908965572751	1518.59997558594
943.612720438111	1527.19995117188
944.316386690391	1524.80004882813
945.019964337391	1524.80004882813
945.723453386924	1509
946.426853846795	1513.40002441406
947.130165724808	1513
947.83338902877	1533.80004882813
948.536523766488	1517.80004882813
949.239569945764	1518.59997558594
949.942527574402	1519.19995117188
950.64539666021	1509.80004882813
951.348177210993	1500.19995117188
952.050869234548	1514.19995117188
952.753472738683	1503.59997558594
953.455987731199	1517.40002441406
954.158414219898	1512
954.860752212587	1523.59997558594
955.563001717061	1510.19995117188
956.265162741124	1524.19995117188
956.967235292576	1514.40002441406
957.669219379224	1521.19995117188
958.371115008857	1512.59997558594
959.072922189283	1519.80004882813
959.774640928301	1508.19995117188
960.476271233708	1527
961.177813113301	1528.19995117188
961.879266574882	1526.59997558594
962.580631626248	1518
963.281908275194	1520.40002441406
963.98309652952	1510.59997558594
964.684196397022	1503.40002441406
965.3852078855	1488.40002441406
966.086131002745	1500
966.786965756555	1501
967.487712154726	1502.19995117188
968.188370205055	1499.19995117188
968.888939915331	1505.59997558594
969.589421293352	1491.59997558594
970.289814346909	1486.80004882813
970.990119083801	1465.40002441406
971.690335511819	1482.80004882813
972.39046363875	1487
973.090503472398	1504.40002441406
973.790455020545	1489.40002441406
974.490318290987	1504.19995117188
975.190093291516	1487
975.889780029923	1490.19995117188
976.589378513998	1499.19995117188
977.288888751527	1500.80004882813
977.988310750308	1509
978.687644518122	1507.59997558594
979.386890062767	1485.80004882813
980.086047392025	1488.40002441406
980.785116513689	1470.59997558594
981.484097435542	1488.80004882813
982.182990165377	1497.19995117188
982.88179471098	1503.59997558594
983.580511080137	1503.59997558594
984.279139280632	1516.80004882813
984.977679320253	1521.80004882813
985.67613120679	1506.80004882813
986.374494948027	1512.19995117188
987.072770551745	1497.80004882813
987.770958025731	1503.80004882813
988.469057377772	1489.19995117188
989.167068615649	1490.19995117188
989.864991747145	1487.19995117188
990.562826780047	1490.19995117188
991.260573722134	1486.80004882813
991.958232581195	1471.59997558594
992.655803365003	1482.59997558594
993.353286081346	1482.19995117188
994.050680738006	1476.59997558594
994.74798734276	1486
995.44520590339	1492.80004882813
996.142336427681	1495.19995117188
996.839378923407	1489.40002441406
997.536333398348	1473.19995117188
998.233199860289	1468.40002441406
998.929978317004	1478.19995117188
999.626668776274	1466
1000.32327124587	1468.80004882813
1001.01978573359	1478.80004882813
1001.71621224718	1477.19995117188
1002.41255079445	1476.80004882813
1003.10880138315	1465.40002441406
1003.80496402107	1469
1004.50103871599	1460.19995117188
1005.19702547567	1480.80004882813
1005.8929243079	1475.59997558594
1006.58873522045	1456.19995117188
1007.2844582211	1457.19995117188
1007.98009331761	1456.40002441406
1008.67564051776	1472.19995117188
1009.37109982933	1466
1010.06647126009	1463.19995117188
1010.7617548178	1477.19995117188
1011.45695051026	1495.80004882813
1012.15205834522	1517.80004882813
1012.84707833045	1512.80004882813
1013.54201047373	1496
1014.23685478284	1493.40002441406
1014.93161126553	1485.80004882813
1015.62627992959	1500.80004882813
1016.32086078277	1476.59997558594
1017.01535383285	1486
1017.70975908761	1490.40002441406
1018.40407655479	1490
1019.09830624219	1476.80004882813
1019.79244815755	1482
1020.48650230866	1466.19995117188
1021.18046870328	1474.59997558594
1021.87434734917	1468.80004882813
1022.56813825411	1463.19995117188
1023.26184142584	1462.19995117188
1023.95545687216	1462.19995117188
1024.64898460082	1485.19995117188
1025.34242461957	1479.40002441406
1026.0357769362	1488.80004882813
1026.72904155846	1490.80004882813
1027.42221849412	1483.19995117188
1028.11530775094	1460.19995117188
1028.80830933668	1456.40002441406
1029.50122325911	1474.40002441406
1030.19404952599	1470
1030.88678814508	1467.40002441406
1031.57943912414	1468.80004882813
1032.27200247093	1466.80004882813
1032.96447819323	1452.19995117188
1033.65686629878	1450.19995117188
1034.34916679534	1466
1035.04137969068	1472
1035.73350499256	1469.40002441406
1036.42554270874	1464.40002441406
1037.11749284697	1466.40002441406
1037.80935541501	1460.19995117188
1038.50113042062	1471
1039.19281787156	1471
1039.88441777559	1477.80004882813
1040.57593014046	1473
1041.26735497393	1477.59997558594
1041.95869228376	1475.80004882813
1042.6499420777	1460.19995117188
1043.3411043635	1467.40002441406
1044.03217914893	1454.40002441406
1044.72316644174	1460.80004882813
1045.41406624968	1470.40002441406
1046.1048785805	1454.19995117188
1046.79560344197	1457.40002441406
1047.48624084182	1436.59997558594
1048.17679078783	1457
1048.86725328774	1464.80004882813
1049.55762834929	1467.19995117188
1050.24791598025	1471.40002441406
1050.93811618837	1475
1051.62822898139	1480.80004882813
1052.31825436707	1469.59997558594
1053.00819235315	1459.80004882813
1053.6980429474	1460.40002441406
1054.38780615755	1464
1055.07748199136	1456.80004882813
1055.76707045658	1430.19995117188
1056.45657156095	1430.40002441406
1057.14598531222	1428.40002441406
1057.83531171814	1445.80004882813
1058.52455078646	1450
1059.21370252494	1456.19995117188
1059.90276694129	1450.80004882813
1060.5917440433	1444.59997558594
1061.28063383868	1444.40002441406
1061.9694363352	1447.19995117188
1062.65815154059	1439.80004882813
1063.34677946261	1439
1064.03532010899	1429.59997558594
1064.72377348748	1420.80004882813
1065.41213960583	1431.19995117188
1066.10041847177	1455
1066.78861009306	1454.19995117188
1067.47671447743	1472.80004882813
1068.16473163263	1469.19995117188
1068.85266156639	1464.80004882813
1069.54050428647	1460.80004882813
1070.2282598006	1463.19995117188
1070.91592811652	1446
1071.60350924198	1448.80004882813
1072.29100318471	1430.59997558594
1072.97840995245	1432.59997558594
1073.66572955295	1437.80004882813
1074.35296199394	1431.40002441406
1075.04010728316	1448
1075.72716542836	1440
1076.41413643726	1443.80004882813
1077.10102031761	1444
1077.78781707715	1443.59997558594
1078.4745267236	1436.59997558594
1079.16114926471	1446.40002441406
1079.84768470822	1446.19995117188
1080.53413306185	1448.59997558594
1081.22049433336	1447.80004882813
1081.90676853046	1457
1082.5929556609	1446.19995117188
1083.27905573241	1428.80004882813
1083.96506875272	1446.40002441406
1084.65099472957	1439.40002441406
1085.3368336707	1447.40002441406
1086.02258558383	1439.40002441406
1086.70825047669	1457
1087.39382835703	1438.19995117188
1088.07931923257	1443
1088.76472311104	1445
1089.45004000018	1429.59997558594
1090.13526990771	1424.40002441406
1090.82041284137	1437.80004882813
1091.50546880889	1455.80004882813
1092.19043781799	1452.40002441406
1092.87531987642	1462
1093.56011499188	1458.80004882813
1094.24482317212	1450.40002441406
1094.92944442486	1429.40002441406
1095.61397875783	1426.19995117188
1096.29842617876	1427.40002441406
1096.98278669537	1426.59997558594
1097.6670603154	1414.80004882813
1098.35124704656	1418.80004882813
1099.03534689659	1396.80004882813
1099.71935987322	1415.40002441406
1100.40328598416	1415.40002441406
1101.08712523713	1425.59997558594
1101.77087763988	1433
1102.45454320012	1422
1103.13812192557	1434.59997558594
1103.82161382396	1438.19995117188
1104.50501890301	1431.40002441406
1105.18833717045	1444.40002441406
1105.87156863399	1450.80004882813
1106.55471330137	1437.40002441406
1107.2377711803	1452.40002441406
1107.9207422785	1439.59997558594
1108.60362660369	1433.40002441406
1109.2864241636	1420
1109.96913496594	1407.40002441406
1110.65175901844	1417.80004882813
1111.33429632882	1419
1112.01674690479	1422.40002441406
1112.69911075408	1424.80004882813
1113.38138788439	1414.19995117188
1114.06357830346	1424
1114.745682019	1428
1115.42769903872	1431.59997558594
1116.10962937035	1438
1116.7914730216	1450.19995117188
1117.47323000018	1448.59997558594
1118.15490031382	1450.40002441406
1118.83648397022	1437.19995117188
1119.51798097712	1421
1120.1993913422	1423.40002441406
1120.88071507321	1424
1121.56195217784	1421
1122.24310266381	1429.80004882813
1122.92416653884	1418.59997558594
1123.60514381064	1427
1124.28603448692	1424.40002441406
1124.9668385754	1429.40002441406
1125.64755608378	1427.40002441406
1126.32818701978	1424.59997558594
1127.00873139111	1433
1127.68918920548	1442
1128.3695604706	1447
1129.04984519419	1440
1129.73004338394	1432
1130.41015504758	1432
1131.09018019281	1419.80004882813
1131.77011882734	1437.80004882813
1132.44997095888	1429
1133.12973659514	1426.40002441406
1133.80941574381	1427.19995117188
1134.48900841263	1410.80004882813
1135.16851460927	1402.19995117188
1135.84793434147	1407.40002441406
1136.52726761692	1430.19995117188
1137.20651444333	1426.19995117188
1137.8856748284	1438.19995117188
1138.56474877984	1427
1139.24373630536	1423
1139.92263741265	1414.40002441406
1140.60145210943	1420.59997558594
1141.28018040339	1413.40002441406
1141.95882230225	1398.40002441406
1142.6373778137	1417.80004882813
1143.31584694545	1413.19995117188
1143.99422970519	1422
1144.67252610064	1432.80004882813
1145.35073613949	1430.59997558594
1146.02885982944	1431
1146.7068971782	1409.59997558594
1147.38484819347	1401.59997558594
1148.06271288294	1400
1148.74049125432	1399.19995117188
1149.41818331531	1378.19995117188
1150.0957890736	1385.80004882813
1150.77330853689	1376.19995117188
1151.45074171289	1390.80004882813
1152.12808860928	1385
1152.80534923378	1399.19995117188
1153.48252359407	1401
1154.15961169786	1393
1154.83661355283	1401.80004882813
1155.51352916669	1384.80004882813
1156.19035854713	1379.19995117188
1156.86710170185	1386.80004882813
1157.54375863855	1375
1158.22032936491	1375.19995117188
1158.89681388863	1384.59997558594
1159.57321221741	1374.59997558594
1160.24952435894	1381.59997558594
1160.92575032092	1385
1161.60189011103	1385
1162.27794373697	1394.80004882813
1162.95391120644	1383.59997558594
1163.62979252712	1398
1164.3055877067	1389.19995117188
1164.98129675288	1383.19995117188
1165.65691967336	1395.40002441406
1166.33245647581	1379.59997558594
1167.00790716792	1393.80004882813
1167.6832717574	1396.19995117188
1168.35855025193	1410.80004882813
1169.0337426592	1414
1169.70884898689	1417.19995117188
1170.3838692427	1402.19995117188
1171.05880343431	1417.40002441406
1171.73365156941	1422.59997558594
1172.40841365569	1417.59997558594
1173.08308970083	1432.40002441406
1173.75767971253	1421.19995117188
1174.43218369847	1419.40002441406
1175.10660166633	1409
1175.7809336238	1405
1176.45517957857	1413.59997558594
1177.12933953832	1410.59997558594
1177.80341351073	1411
1178.47740150349	1427
1179.15130352429	1423.80004882813
1179.8251195808	1429.59997558594
1180.49884968071	1417.59997558594
1181.1724938317	1417.59997558594
1181.84605204145	1411.19995117188
1182.51952431766	1414.19995117188
1183.19291066799	1427.59997558594
1183.86621110013	1433.80004882813
1184.53942562176	1433.19995117188
1185.21255424057	1426.19995117188
1185.88559696422	1433.40002441406
1186.55855380041	1441.40002441406
1187.2314247568	1437.80004882813
1187.90420984109	1425.59997558594
1188.57690906095	1422.40002441406
1189.24952242405	1405.59997558594
1189.92204993808	1408.40002441406
1190.59449161071	1399.19995117188
1191.26684744962	1390.59997558594
1191.93911746249	1391.80004882813
1192.61130165699	1400
1193.28340004081	1405.80004882813
1193.95541262161	1413.40002441406
1194.62733940707	1403.59997558594
1195.29918040487	1413.80004882813
1195.97093562269	1407.40002441406
1196.64260506819	1415
1197.31418874905	1397.19995117188
1197.98568667295	1411.40002441406
1198.65709884755	1412.80004882813
1199.32842528053	1410.19995117188
1199.99966597957	1402.19995117188
1200.67082095234	1399.59997558594
1201.3418902065	1403.19995117188
1202.01287374974	1414
1202.68377158971	1414.80004882813
1203.3545837341	1403.19995117188
1204.02531019057	1398
1204.6959509668	1392
1205.36650607045	1397.19995117188
1206.03697550919	1386.59997558594
1206.70735929069	1399.19995117188
1207.37765742263	1394
1208.04786991266	1394.40002441406
1208.71799676846	1387.19995117188
1209.38803799769	1381.80004882813
1210.05799360803	1368.40002441406
1210.72786360714	1369
1211.39764800268	1373
1212.06734680233	1387.80004882813
1212.73696001375	1376.80004882813
1213.4064876446	1382.59997558594
1214.07592970255	1383.80004882813
1214.74528619526	1391.19995117188
1215.4145571304	1381.19995117188
1216.08374251564	1381.19995117188
1216.75284235863	1389.40002441406
1217.42185666704	1377
1218.09078544854	1382.40002441406
1218.75962871078	1384.19995117188
1219.42838646143	1372.40002441406
1220.09705870816	1373.40002441406
1220.76564545861	1378.80004882813
1221.43414672046	1376.80004882813
1222.10256250136	1379.40002441406
1222.77089280898	1368.80004882813
1223.43913765098	1377.59997558594
1224.107297035	1375.80004882813
1224.77537096873	1376
1225.44335945981	1367
1226.1112625159	1368
1226.77908014467	1368
1227.44681235376	1350.19995117188
1228.11445915085	1363.59997558594
1228.78202054357	1361.19995117188
1229.44949653961	1369.19995117188
1230.11688714659	1363.59997558594
1230.7841923722	1361.80004882813
1231.45141222407	1370
1232.11854670988	1366.19995117188
1232.78559583726	1357.59997558594
1233.45255961388	1355.40002441406
1234.1194380474	1355
1234.78623114546	1365.19995117188
1235.45293891572	1370.59997558594
1236.11956136583	1361.80004882813
1236.78609850345	1352.80004882813
1237.45255033623	1358
1238.11891687182	1363.80004882813
1238.78519811788	1359
1239.45139408205	1356.40002441406
1240.11750477198	1350
1240.78353019534	1365.59997558594
1241.44947035976	1368
1242.11532527291	1384.19995117188
1242.78109494242	1384
1243.44677937595	1396.80004882813
1244.11237858115	1381.80004882813
1244.77789256567	1371.80004882813
1245.44332133715	1372.80004882813
1246.10866490325	1361.59997558594
1246.7739232716	1352.80004882813
1247.43909644987	1342.59997558594
1248.10418444569	1350.59997558594
1248.76918726671	1345.59997558594
1249.43410492059	1336.80004882813
1250.09893741496	1352.59997558594
1250.76368475747	1346.19995117188
1251.42834695576	1346.40002441406
1252.09292401749	1355
1252.75741595029	1355.80004882813
1253.42182276182	1345
1254.08614445971	1336.80004882813
1254.75038105161	1349.40002441406
1255.41453254515	1353.40002441406
1256.07859894799	1350.40002441406
1256.74258026777	1342
1257.40647651213	1347.59997558594
1258.0702876887	1345.40002441406
1258.73401380514	1351.19995117188
1259.39765486908	1354.80004882813
1260.06121088817	1346.40002441406
1260.72468187004	1341.40002441406
1261.38806782233	1359.19995117188
1262.05136875269	1352.80004882813
1262.71458466875	1363.40002441406
1263.37771557815	1360.59997558594
1264.04076148854	1361.40002441406
1264.70372240753	1357
1265.3665983428	1356.40002441406
1266.02938930195	1365.59997558594
1266.69209529263	1360.40002441406
1267.35471632249	1364
1268.01725239914	1351.19995117188
1268.67970353024	1355.40002441406
1269.34206972342	1356.19995117188
1270.00435098631	1358.19995117188
1270.66654732655	1357
1271.32865875177	1347
1271.9906852696	1354.40002441406
1272.65262688768	1351.19995117188
1273.31448361365	1340.80004882813
1273.97625545514	1352.40002441406
1274.63794241978	1355.40002441406
1275.2995445152	1358.59997558594
1275.96106174903	1360.40002441406
1276.62249412892	1364.59997558594
1277.28384166248	1370.59997558594
1277.94510435735	1357.19995117188
1278.60628222116	1346.59997558594
1279.26737526155	1349.59997558594
1279.92838348613	1335
1280.58930690255	1324.59997558594
1281.25014551842	1330.59997558594
1281.91089934139	1333.80004882813
1282.57156837907	1331.80004882813
1283.2321526391	1334.19995117188
1283.89265212911	1334.80004882813
1284.55306685671	1335.59997558594
1285.21339682955	1339.40002441406
1285.87364205525	1351
1286.53380254142	1342
1287.19387829571	1345.19995117188
1287.85386932573	1338
1288.51377563911	1336.80004882813
1289.17359724348	1338.59997558594
1289.83333414646	1335.59997558594
1290.49298635567	1338
1291.15255387874	1344.19995117188
1291.8120367233	1328.19995117188
1292.47143489696	1340.59997558594
1293.13074840736	1343.19995117188
1293.7899772621	1346.59997558594
1294.44912146882	1354
1295.10818103513	1355.59997558594
1295.76715596866	1361.19995117188
1296.42604627704	1358.59997558594
1297.08485196787	1355.59997558594
1297.74357304878	1363
1298.4022095274	1353
1299.06076141134	1357.80004882813
1299.71922870821	1349.19995117188
1300.37761142565	1352.80004882813
1301.03590957126	1356
1301.69412315268	1362
1302.3522521775	1354.59997558594
1303.01029665336	1368
1303.66825658787	1367.80004882813
1304.32613198865	1361.80004882813
1304.98392286332	1363
1305.64162921948	1369.80004882813
1306.29925106476	1367.19995117188
1306.95678840677	1357.59997558594
1307.61424125312	1363.19995117188
1308.27160961145	1359.40002441406
1308.92889348934	1367.19995117188
1309.58609289443	1369.80004882813
1310.24320783432	1358
1310.90023831664	1362.19995117188
1311.55718434898	1361
1312.21404593897	1367.19995117188
1312.87082309421	1358.40002441406
1313.52751582233	1368
1314.18412413092	1359.19995117188
1314.84064802761	1377.40002441406
1315.49708752	1387
1316.1534426157	1373
1316.80971332233	1376.40002441406
1317.46589964749	1360.59997558594
1318.1220015988	1370.19995117188
1318.77801918386	1365.19995117188
1319.43395241028	1367.19995117188
1320.08980128567	1356.59997558594
1320.74556581764	1353.19995117188
1321.4012460138	1351.59997558594
1322.05684188176	1342.40002441406
1322.71235342911	1344.59997558594
1323.36778066347	1336.80004882813
1324.02312359245	1352.19995117188
1324.67838222365	1356.19995117188
1325.33355656468	1335
1325.98864662314	1335.59997558594
1326.64365240663	1332.80004882813
1327.29857392277	1334.80004882813
1327.95341117915	1343.40002441406
1328.60816418339	1340.19995117188
1329.26283294308	1346.59997558594
1329.91741746582	1337.40002441406
1330.57191775923	1345
1331.2263338309	1341.59997558594
1331.88066568843	1346.80004882813
1332.53491333943	1343
1333.1890767915	1345.19995117188
1333.84315605224	1341.40002441406
1334.49715112925	1338.80004882813
1335.15106203013	1344.40002441406
1335.80488876249	1331.80004882813
1336.45863133391	1356
1337.112289752	1351.40002441406
1337.76586402437	1349.80004882813
1338.4193541586	1358.40002441406
1339.0727601623	1338.59997558594
1339.72608204306	1363
1340.37931980849	1346.19995117188
1341.03247346617	1360.80004882813
1341.68554302372	1337.19995117188
1342.33852848871	1350.80004882813
1342.99142986876	1343.40002441406
1343.64424717145	1335.19995117188
1344.29698040438	1328
1344.94962957515	1330.40002441406
1345.60219469135	1335.19995117188
1346.25467576058	1337.19995117188
1346.90707279042	1337
1347.55938578848	1332.19995117188
1348.21161476235	1330
1348.86375971962	1329.19995117188
1349.51582066787	1333
1350.16779761472	1355.40002441406
1350.81969056774	1363.19995117188
1351.47149953453	1365.59997558594
1352.12322452269	1360.19995117188
1352.77486553979	1364.59997558594
1353.42642259344	1358.59997558594
1354.07789569122	1368.19995117188
1354.72928484072	1362.40002441406
1355.38059004953	1358
1356.03181132525	1372.40002441406
1356.68294867545	1368.40002441406
1357.33400210773	1359.40002441406
1357.98497162968	1373.19995117188
1358.63585724889	1375.59997558594
1359.28665897294	1378.19995117188
1359.93737680942	1386.80004882813
1360.58801076591	1398
1361.23856085001	1411.80004882813
1361.88902706929	1413
1362.53940943135	1408
1363.18970794377	1406.40002441406
1363.83992261413	1409.40002441406
1364.49005345003	1407.80004882813
1365.14010045904	1388.40002441406
1365.79006364874	1386.19995117188
1366.43994302673	1375.59997558594
1367.08973860058	1377.19995117188
1367.73945037788	1364
1368.38907836621	1358.40002441406
1369.03862257315	1341.40002441406
1369.68808300629	1336.19995117188
1370.3374596732	1339.80004882813
1370.98675258148	1342.59997558594
1371.63596173868	1340.59997558594
1372.28508715241	1336.80004882813
1372.93412883024	1327
1373.58308677974	1335.80004882813
1374.2319610085	1320.80004882813
1374.8807515241	1329.59997558594
1375.52945833412	1322.40002441406
1376.17808144612	1322.59997558594
1376.82662086771	1328
1377.47507660644	1319.19995117188
1378.12344866989	1322.80004882813
1378.77173706565	1313.80004882813
1379.41994180129	1318.19995117188
1380.06806288439	1323.19995117188
1380.71610032252	1311.80004882813
1381.36405412326	1316.80004882813
1382.01192429419	1324.19995117188
1382.65971084287	1316.40002441406
1383.30741377688	1319.19995117188
1383.95503310381	1317.80004882813
1384.60256883121	1319
1385.25002096667	1326.19995117188
1385.89738951775	1312.59997558594
1386.54467449204	1319
1387.19187589709	1313.59997558594
1387.8389937405	1312.19995117188
1388.48602802982	1318.80004882813
1389.13297877262	1307.40002441406
1389.77984597649	1318.80004882813
1390.42662964899	1313.19995117188
1391.07332979768	1313.80004882813
1391.71994643015	1310.80004882813
1392.36647955395	1299
1393.01292917667	1310.59997558594
1393.65929530586	1299.80004882813
1394.3055779491	1295.80004882813
1394.95177711395	1300.80004882813
1395.59789280799	1292.80004882813
1396.24392503877	1286.80004882813
1396.88987381387	1296.40002441406
1397.53573914086	1292.19995117188
1398.1815210273	1286.19995117188
1398.82721948075	1286.80004882813
1399.47283450878	1289.40002441406
1400.11836611897	1296.59997558594
1400.76381431886	1292.40002441406
1401.40917911603	1288.59997558594
1402.05446051805	1304.19995117188
1402.69965853247	1291.59997558594
1403.34477316686	1284.80004882813
1403.98980442878	1277.19995117188
1404.6347523258	1287.19995117188
1405.27961686548	1281.40002441406
1405.92439805538	1283.80004882813
1406.56909590306	1272
1407.21371041608	1277.19995117188
1407.85824160202	1282.59997558594
1408.50268946841	1283.19995117188
1409.14705402284	1269
1409.79133527285	1275.19995117188
1410.43553322601	1285.40002441406
1411.07964788987	1283.40002441406
1411.723679272	1272.40002441406
1412.36762737996	1272.40002441406
1413.01149222129	1265.80004882813
1413.65527380357	1285.80004882813
1414.29897213435	1278
1414.94258722118	1283.40002441406
1415.58611907163	1273.59997558594
1416.22956769325	1275
1416.87293309359	1270.80004882813
1417.51621528021	1273.19995117188
1418.15941426067	1263.19995117188
1418.80253004253	1265
1419.44556263333	1273.59997558594
1420.08851204063	1268.40002441406
1420.731378272	1269
1421.37416133497	1282.80004882813
1422.0168612371	1267.40002441406
1422.65947798596	1269.80004882813
1423.30201158908	1280.59997558594
1423.94446205403	1271
1424.58682938835	1291.40002441406
1425.2291135996	1304.19995117188
1425.87131469532	1297.59997558594
1426.51343268308	1288.40002441406
1427.15546757042	1295.80004882813
1427.79741936488	1290.19995117188
1428.43928807403	1287.59997558594
1429.0810737054	1277
1429.72277626656	1274
1430.36439576504	1281.59997558594
1431.00593220841	1276.59997558594
1431.64738560419	1278.59997558594
1432.28875595995	1277.19995117188
1432.93004328324	1274.19995117188
1433.57124758159	1280.40002441406
1434.21236886255	1283.80004882813
1434.85340713368	1279.80004882813
1435.49436240252	1284.80004882813
1436.13523467661	1301.40002441406
1436.77602396349	1294
1437.41673027073	1298.59997558594
1438.05735360585	1300.59997558594
1438.69789397641	1286.80004882813
1439.33835138994	1285.80004882813
1439.978725854	1298.19995117188
1440.61901737612	1293.80004882813
1441.25922596385	1295
1441.89935162473	1295.19995117188
1442.53939436631	1288.40002441406
1443.17935419612	1282.19995117188
1443.81923112171	1274
1444.45902515061	1264
1445.09873629038	1261.80004882813
1445.73836454854	1257.40002441406
1446.37790993265	1263.40002441406
1447.01737245024	1261.80004882813
1447.65675210885	1264.59997558594
1448.29604891602	1270.80004882813
1448.93526287928	1279.19995117188
1449.57439400618	1267.40002441406
1450.21344230426	1269.19995117188
1450.85240778105	1269
1451.49129044409	1269.19995117188
1452.13009030092	1277.59997558594
1452.76880735907	1279.19995117188
1453.40744162608	1279.80004882813
1454.04599310949	1276
1454.68446181683	1279.40002441406
1455.32284775564	1277.40002441406
1455.96115093345	1273.19995117188
1456.5993713578	1266.40002441406
1457.23750903623	1269.59997558594
1457.87556397626	1270.59997558594
1458.51353618543	1282.59997558594
1459.15142567127	1270.59997558594
1459.78923244132	1276.80004882813
1460.42695650311	1279.40002441406
1461.06459786417	1265
1461.70215653203	1268.80004882813
1462.33963251423	1263
1462.97702581829	1272
1463.61433645175	1271.59997558594
1464.25156442214	1266
1464.88870973699	1266.40002441406
1465.52577240382	1259
1466.16275243017	1249.19995117188
1466.79964982356	1243.19995117188
1467.43646459154	1239.40002441406
1468.07319674161	1234.19995117188
1468.70984628132	1233.59997558594
1469.34641321818	1231.59997558594
1469.98289755974	1245.19995117188
1470.6192993135	1246.40002441406
1471.25561848701	1251
1471.89185508779	1255
1472.52800912336	1268.40002441406
1473.16408060124	1266.80004882813
1473.80006952897	1263.19995117188
1474.43597591407	1271.40002441406
1475.07179976406	1264.19995117188
1475.70754108647	1270.40002441406
1476.34319988883	1268.19995117188
1476.97877617865	1266.80004882813
1477.61426996345	1264.40002441406
1478.24968125077	1265.59997558594
1478.88501004812	1265
1479.52025636303	1263.59997558594
1480.15542020302	1262.40002441406
1480.79050157561	1260.80004882813
1481.42550048832	1259.80004882813
1482.06041694867	1256.40002441406
1482.69525096418	1269.19995117188
1483.33000254237	1268.59997558594
1483.96467169077	1276
1484.59925841689	1269.40002441406
1485.23376272825	1271.80004882813
1485.86818463237	1271.59997558594
1486.50252413677	1267
1487.13678124896	1266
1487.77095597646	1262
1488.4050483268	1259.59997558594
1489.03905830749	1266.19995117188
1489.67298592604	1266.19995117188
1490.30683118996	1267.59997558594
1490.9405941068	1275.80004882813
1491.57427468403	1278.59997558594
1492.2078729292	1269.59997558594
1492.84138884981	1265.80004882813
1493.47482245338	1265
1494.10817374742	1266.59997558594
1494.74144273944	1266.19995117188
1495.37462943696	1266.59997558594
1496.0077338475	1256.80004882813
1496.64075597856	1258.80004882813
1497.27369583765	1252.80004882813
1497.9065534323	1264.19995117188
1498.53932877001	1278.19995117188
1499.17202185829	1285.80004882813
1499.80463270465	1287.40002441406
1500.43716131661	1293.59997558594
1501.06960770167	1292.40002441406
1501.70197186735	1293.40002441406
1502.33425382116	1285.59997558594
1502.96645357059	1284
1503.59857112317	1289.40002441406
1504.23060648641	1289.40002441406
1504.8625596678	1293.40002441406
1505.49443067486	1288.19995117188
1506.1262195151	1289.19995117188
1506.75792619602	1296.59997558594
1507.38955072513	1300.80004882813
1508.02109310993	1283.80004882813
1508.65255335794	1286.19995117188
1509.28393147666	1271.19995117188
1509.91522747359	1280.59997558594
1510.54644135624	1296.19995117188
1511.17757313212	1293.80004882813
1511.80862280872	1291.59997558594
1512.43959039356	1310.80004882813
1513.07047589413	1310
1513.70127931795	1274.59997558594
1514.33200067251	1282
1514.96263996531	1275.19995117188
1515.59319720386	1275.80004882813
1516.22367239567	1271
1516.85406554822	1272
1517.48437666903	1271.40002441406
1518.1146057656	1268
1518.74475284542	1276.59997558594
1519.374817916	1281.19995117188
1520.00480098483	1264.80004882813
1520.63470205942	1278.59997558594
1521.26452114726	1259
1521.89425825586	1262.19995117188
1522.52391339271	1265.40002441406
1523.15348656531	1260.59997558594
1523.78297778116	1257.59997558594
1524.41238704775	1250
1525.04171437259	1245.80004882813
1525.67095976317	1249
1526.30012322699	1244.40002441406
1526.92920477154	1253.59997558594
1527.55820440432	1233.59997558594
1528.18712213283	1252.19995117188
1528.81595796455	1237
1529.44471190699	1236.19995117188
1530.07338396764	1237.59997558594
1530.70197415399	1235.80004882813
1531.33048247353	1224.59997558594
1531.95890893377	1219.59997558594
1532.58725354219	1219
1533.21551630629	1212
1533.84369723356	1217.40002441406
1534.47179633148	1220
1535.09981360757	1223.80004882813
1535.72774906929	1241.19995117188
1536.35560272415	1243.59997558594
1536.98337457963	1239.19995117188
1537.61106464323	1233.19995117188
1538.23867292243	1243.19995117188
1538.86619942473	1251.19995117188
1539.49364415762	1244.40002441406
1540.12100712857	1226
1540.74828834509	1237.40002441406
1541.37548781466	1224.59997558594
1542.00260554478	1233.80004882813
1542.62964154291	1241.40002441406
1543.25659581655	1243.19995117188
1543.8834683732	1230.40002441406
1544.51025922034	1233.19995117188
1545.13696836544	1232.19995117188
1545.76359581601	1230
1546.39014157952	1227
1547.01660566345	1228.80004882813
1547.64298807531	1221.40002441406
1548.26928882255	1222.80004882813
1548.89550791269	1223.40002441406
1549.52164535318	1226.80004882813
1550.14770115153	1229.80004882813
1550.77367531521	1232.80004882813
1551.39956785171	1224.40002441406
1552.0253787685	1227.40002441406
1552.65110807307	1232
1553.2767557729	1225.40002441406
1553.90232187548	1224.59997558594
1554.52780638828	1221.59997558594
1555.15320931879	1230.40002441406
1555.77853067447	1225.59997558594
1556.40377046282	1226.80004882813
1557.02892869132	1217.19995117188
1557.65400536744	1223.40002441406
1558.27900049866	1226.59997558594
1558.90391409247	1230.80004882813
1559.52874615633	1220.40002441406
1560.15349669773	1224.40002441406
1560.77816572414	1211
1561.40275324305	1211.80004882813
1562.02725926192	1226.59997558594
1562.65168378824	1217.19995117188
1563.27602682948	1225.40002441406
1563.90028839311	1228.80004882813
1564.52446848662	1225.80004882813
1565.14856711748	1228.80004882813
1565.77258429316	1219.40002441406
1566.39652002113	1226.19995117188
1567.02037430887	1223.19995117188
1567.64414716387	1228.59997558594
1568.26783859357	1232.59997558594
1568.89144860547	1230.59997558594
1569.51497720703	1232.19995117188
1570.13842440573	1229.19995117188
1570.76179020904	1242.80004882813
1571.38507462442	1239.19995117188
1572.00827765936	1234.40002441406
1572.63139932132	1246.80004882813
1573.25443961777	1237.19995117188
1573.87739855618	1259.40002441406
1574.50027614402	1240.19995117188
1575.12307238877	1240.80004882813
1575.74578729789	1245.80004882813
1576.36842087885	1250
1576.99097313912	1253.19995117188
1577.61344408616	1248.19995117188
1578.23583372745	1247.40002441406
1578.85814207046	1251.80004882813
1579.48036912264	1239
1580.10251489147	1240.19995117188
1580.72457938441	1242.59997558594
1581.34656260893	1245
1581.9684645725	1236
1582.59028528258	1233.80004882813
1583.21202474663	1216
1583.83368297212	1222.40002441406
1584.45525996652	1202.80004882813
1585.07675573728	1202.40002441406
1585.69817029188	1198.19995117188
1586.31950363778	1207.59997558594
1586.94075578243	1200.80004882813
1587.5619267333	1202.59997558594
1588.18301649786	1202.19995117188
1588.80402508357	1200.80004882813
1589.42495249788	1198.19995117188
1590.04579874826	1200
1590.66656384217	1202.40002441406
1591.28724778707	1202
1591.90785059042	1192
1592.52837225968	1198.19995117188
1593.14881280232	1193.80004882813
1593.76917222578	1189.40002441406
1594.38945053753	1194
1595.00964774502	1200.80004882813
1595.62976385573	1195.19995117188
1596.24979887709	1191.40002441406
1596.86975281657	1187
1597.48962568164	1184.80004882813
1598.10941747974	1186
1598.72912821832	1188.59997558594
1599.34875790486	1191.80004882813
1599.9683065468	1199
1600.58777415159	1196.80004882813
1601.2071607267	1195.19995117188
1601.82646627958	1199.59997558594
1602.44569081769	1200.59997558594
1603.06483434846	1194.80004882813
1603.68389687937	1200.59997558594
1604.30287841786	1198.59997558594
1604.92177897139	1185.80004882813
1605.54059854741	1176.59997558594
1606.15933715337	1178.80004882813
1606.77799479672	1179.40002441406
1607.39657148492	1177.80004882813
1608.01506722542	1187.40002441406
1608.63348202566	1186.19995117188
1609.2518158931	1190
1609.87006883519	1188.19995117188
1610.48824085939	1188.80004882813
1611.10633197312	1191
1611.72434218386	1192.80004882813
1612.34227149904	1188
1612.96011992612	1191
1613.57788747254	1178.80004882813
1614.19557414575	1173.40002441406
1614.8131799532	1181
1615.43070490234	1178
1616.04814900061	1171.19995117188
1616.66551225545	1180.40002441406
1617.28279467433	1176.59997558594
1617.89999626467	1184.19995117188
1618.51711703393	1186.80004882813
1619.13415698955	1182.59997558594
1619.75111613898	1178.40002441406
1620.36799448966	1170.19995117188
1620.98479204903	1169.40002441406
1621.60150882455	1173.19995117188
1622.21814482364	1176.80004882813
1622.83470005376	1184.59997558594
1623.45117452235	1180
1624.06756823685	1189.59997558594
1624.6838812047	1193.40002441406
1625.30011343335	1188.80004882813
1625.91626493022	1189.80004882813
1626.53233570278	1188.80004882813
1627.14832575845	1182.59997558594
1627.76423510468	1179.59997558594
1628.38006374891	1168
1628.99581169857	1171.40002441406
1629.61147896111	1176
1630.22706554397	1165.40002441406
1630.84257145457	1172.19995117188
1631.45799670038	1167
1632.07334128881	1159
1632.6886052273	1156.59997558594
1633.3037885233	1161.19995117188
1633.91889118425	1170
1634.53391321757	1149.19995117188
1635.1488546307	1156.59997558594
1635.76371543108	1149
1636.37849562616	1158.19995117188
1636.99319522335	1149.19995117188
1637.60781423009	1155
1638.22235265383	1150.59997558594
1638.83681050198	1155.19995117188
1639.451187782	1158.59997558594
1640.0654845013	1157.80004882813
1640.67970066734	1160.59997558594
1641.29383628752	1169
1641.9078913693	1160.59997558594
1642.5218659201	1168.40002441406
1643.13575994735	1167.40002441406
1643.74957345849	1164.40002441406
1644.36330646094	1171.80004882813
1644.97695896213	1174.80004882813
1645.59053096951	1167.40002441406
1646.20402249049	1157.19995117188
1646.8174335325	1171.40002441406
1647.43076410298	1168.80004882813
1648.04401420935	1173.40002441406
1648.65718385905	1185
1649.2702730595	1186.19995117188
1649.88328181812	1173
1650.49621014236	1175.80004882813
1651.10905803963	1173.80004882813
1651.72182551735	1172
1652.33451258297	1180.59997558594
1652.9471192439	1180.40002441406
1653.55964550757	1185.19995117188
1654.1720913814	1188.80004882813
1654.78445687283	1178
1655.39674198926	1163.40002441406
1656.00894673814	1157.80004882813
1656.62107112688	1157.59997558594
1657.23311516291	1140.80004882813
1657.84507885365	1146.59997558594
1658.45696220652	1141
1659.06876522895	1155.59997558594
1659.68048792835	1148.80004882813
1660.29213031217	1160
1660.90369238779	1168.40002441406
1661.51517416267	1162.80004882813
1662.12657564421	1166.59997558594
1662.73789683984	1157.80004882813
1663.34913775697	1154.59997558594
1663.96029840303	1140.59997558594
1664.57137878544	1133
1665.18237891161	1133
1665.79329878897	1132.59997558594
1666.40413842493	1117.59997558594
1667.01489782691	1125
1667.62557700233	1127.80004882813
1668.2361759586	1130
1668.84669470315	1120.59997558594
1669.4571332434	1118.19995117188
1670.06749158675	1127.40002441406
1670.67776974062	1121
1671.28796771243	1132.19995117188
1671.8980855096	1130.59997558594
1672.50812313954	1136.59997558594
1673.11808060967	1129.59997558594
1673.72795792739	1134.40002441406
1674.33775510013	1126.40002441406
1674.9474721353	1128.19995117188
1675.55710904031	1119.80004882813
1676.16666582257	1121.19995117188
1676.7761424895	1111.40002441406
1677.38553904851	1107.80004882813
1677.99485550702	1105.59997558594
1678.60409187243	1098.59997558594
1679.21324815215	1098.19995117188
1679.8223243536	1102.59997558594
1680.43132048419	1096.40002441406
1681.04023655132	1094.59997558594
1681.64907256241	1101.19995117188
1682.25782852487	1101.40002441406
1682.86650444611	1098.40002441406
1683.47510033353	1094.40002441406
1684.08361619455	1093
1684.69205203657	1098
1685.300407867	1094.40002441406
1685.90868369325	1100.19995117188
1686.51687952272	1102.19995117188
1687.12499536283	1100.80004882813
1687.73303122098	1096.40002441406
1688.34098710457	1087.59997558594
1688.94886302101	1100.59997558594
1689.55665897772	1101
1690.16437498208	1091.59997558594
1690.77201104152	1096
1691.37956716342	1099.40002441406
1691.9870433552	1089.80004882813
1692.59443962426	1090.19995117188
1693.20175597801	1094.40002441406
1693.80899242384	1078.40002441406
1694.41614896916	1085.40002441406
1695.02322562138	1094.59997558594
1695.63022238789	1092.59997558594
1696.23713927609	1098.59997558594
1696.8439762934	1098.80004882813
1697.4507334472	1089.80004882813
1698.05741074491	1099.40002441406
1698.66400819391	1087.80004882813
1699.27052580161	1097
1699.87696357542	1082
1700.48332152272	1092.59997558594
1701.08959965092	1084
1701.69579796742	1094.19995117188
1702.30191647962	1083.59997558594
1702.90795519491	1080.59997558594
1703.51391412069	1078.40002441406
1704.11979326437	1085.19995117188
1704.72559263332	1084.19995117188
1705.33131223496	1093.80004882813
1705.93695207668	1087.80004882813
1706.54251216588	1082.59997558594
1707.14799250994	1083.80004882813
1707.75339311628	1079
1708.35871399227	1077.19995117188
1708.96395514532	1069.40002441406
1709.56911658282	1068.19995117188
