634.948122577771	1299.59997558594
635.690341530823	1299.40002441406
636.43246851086	1309.59997558594
637.174503525845	1298.40002441406
637.916446583745	1310.80004882813
638.658297692538	1299.19995117188
639.400056860179	1294.80004882813
640.141724094637	1290.40002441406
640.883299403885	1285.59997558594
641.62478279588	1289
642.366174278594	1286
643.107473859989	1280.80004882813
643.848681548029	1277.19995117188
644.589797350679	1286.40002441406
645.330821275901	1281.59997558594
646.071753331665	1289.59997558594
646.812593525922	1282
647.553341866646	1272.40002441406
648.293998361798	1273.59997558594
649.03456301933	1279
649.775035847216	1274.19995117188
650.515416853409	1285.59997558594
651.255706045874	1282.80004882813
651.995903432568	1280.80004882813
652.736009021453	1282.19995117188
653.476022820486	1276.80004882813
654.215944837629	1296
654.955775080842	1295.80004882813
655.695513558081	1284.19995117188
656.435160277301	1276.19995117188
657.174715246465	1296
657.914178473527	1301
658.653549966449	1310.80004882813
659.392829733176	1308.59997558594
660.132017781678	1317.40002441406
660.871114119901	1304.40002441406
661.610118755803	1317
662.349031697343	1308
663.087852952468	1303
663.826582529139	1312.40002441406
664.565220435305	1310.59997558594
665.30376667892	1306
666.04222126794	1308.40002441406
666.780584210316	1319.59997558594
667.518855514	1314
668.25703518694	1321
668.995123237096	1325.40002441406
669.733119672413	1317.80004882813
670.471024500842	1313.19995117188
671.208837730333	1311.40002441406
671.946559368839	1316.40002441406
672.684189424308	1309.40002441406
673.421727904689	1314.80004882813
674.159174817929	1307.59997558594
674.896530171977	1321.80004882813
675.633793974786	1320.40002441406
676.370966234295	1313
677.108046958461	1312.59997558594
677.845036155219	1315
678.581933832528	1321.19995117188
679.318739998323	1318.80004882813
680.055454660558	1322.40002441406
680.792077827172	1314.80004882813
681.528609506116	1328.40002441406
682.265049705331	1318
683.001398432759	1333
683.737655696349	1329
684.47382150404	1329.40002441406
685.20989586378	1328.59997558594
685.945878783503	1339.59997558594
686.68177027116	1326.40002441406
687.417570334688	1325
688.153278982032	1313.19995117188
688.888896221129	1313.19995117188
689.624422059921	1308.80004882813
690.359856506349	1299.40002441406
691.095199568354	1306.80004882813
691.830451253874	1307.40002441406
692.565611570844	1302.59997558594
693.300680527212	1299
694.03565813091	1307
694.770544389877	1309.40002441406
695.505339312053	1310
696.240042905372	1319.19995117188
696.974655177772	1318
697.70917613719	1330.19995117188
698.443605791561	1316.59997558594
699.177944148826	1313.19995117188
699.912191216909	1304.40002441406
700.646347003755	1296.19995117188
701.380411517295	1305.40002441406
702.114384765465	1313
702.848266756195	1323.19995117188
703.582057497421	1322.40002441406
704.315756997074	1317.59997558594
705.049365263089	1328.80004882813
705.782882303399	1319.59997558594
706.516308125936	1331.80004882813
707.249642738626	1336.80004882813
707.982886149403	1345
708.716038366204	1339.40002441406
709.449099396949	1344.40002441406
710.182069249577	1334.40002441406
710.914947932009	1324.40002441406
711.647735452181	1316.40002441406
712.380431818022	1322
713.113037037454	1317.19995117188
713.845551118411	1307.80004882813
714.577974068818	1320.40002441406
715.310305896604	1331.59997558594
716.042546609694	1320.59997558594
716.774696216013	1326.80004882813
717.506754723493	1317.59997558594
718.238722140053	1321.80004882813
718.970598473624	1331
719.702383732127	1335.19995117188
720.43407792349	1331.40002441406
721.165681055634	1341.59997558594
721.897193136486	1330.80004882813
722.628614173966	1326.40002441406
723.359944175997	1315
724.091183150505	1323
724.822331105412	1325.80004882813
725.553388048638	1318.40002441406
726.284353988106	1330.59997558594
727.015228931734	1343.40002441406
727.746012887449	1341.59997558594
728.476705863162	1335.40002441406
729.207307866803	1334.59997558594
729.937818906289	1336
730.668238989535	1331.19995117188
731.398568124459	1325.40002441406
732.128806318986	1323.40002441406
732.858953581034	1314.80004882813
733.589009918514	1318
734.318975339348	1317.19995117188
735.048849851452	1304
735.778633462744	1303.40002441406
736.508326181137	1307.59997558594
737.237928014549	1328
737.967438970897	1341.59997558594
738.696859058095	1341.19995117188
739.426188284054	1365.80004882813
740.155426656692	1347.80004882813
740.884574183922	1348.59997558594
741.613630873659	1335.59997558594
742.342596733815	1338
743.071471772302	1336.40002441406
743.800255997034	1342.40002441406
744.528949415921	1335.80004882813
745.257552036877	1336.40002441406
745.986063867811	1333.80004882813
746.714484916638	1326.19995117188
747.442815191261	1332.80004882813
748.171054699597	1333.19995117188
748.899203449554	1341.80004882813
749.627261449039	1320.40002441406
750.355228705966	1330.40002441406
751.083105228239	1331.19995117188
751.810891023765	1352.59997558594
752.538586100459	1345.80004882813
753.266190466218	1338
753.99370412896	1337.19995117188
754.721127096582	1342.80004882813
755.448459377	1330.59997558594
756.175700978114	1342.40002441406
756.902851907828	1341
757.629912174055	1354.19995117188
758.356881784688	1346.19995117188
759.083760747639	1347.19995117188
759.810549070817	1348.19995117188
760.537246762113	1349.40002441406
761.263853829442	1342.19995117188
761.990370280698	1349.80004882813
762.716796123791	1352
763.443131366618	1358.19995117188
764.169376017082	1358.80004882813
764.895530083085	1349.59997558594
765.621593572527	1361.19995117188
766.347566493312	1367
767.073448853336	1367.59997558594
767.799240660502	1378
768.524941922707	1365.59997558594
769.250552647854	1384.40002441406
769.976072843836	1390.59997558594
770.701502518551	1391.80004882813
771.426841679905	1388.59997558594
772.152090335793	1402
772.877248494107	1404.40002441406
773.602316162747	1416.59997558594
774.327293349609	1405
775.052180062592	1400.40002441406
775.776976309589	1393.59997558594
776.501682098496	1392
777.226297437206	1388.40002441406
777.950822333616	1393.19995117188
778.675256795621	1378.40002441406
779.399600831111	1375
780.123854447983	1375.59997558594
780.84801765413	1366.19995117188
781.572090457441	1376.80004882813
782.296072865811	1359.40002441406
783.019964887131	1354.40002441406
783.743766529297	1351.19995117188
784.467477800194	1360.40002441406
785.191098707719	1364.19995117188
785.914629259756	1350.59997558594
786.638069464194	1350.80004882813
787.361419328932	1352.59997558594
788.084678861852	1354.59997558594
788.807848070845	1353.40002441406
789.530926963798	1347.40002441406
790.253915548602	1343.40002441406
790.976813833144	1344.80004882813
791.699621825307	1334
792.422339532986	1332.19995117188
793.144966964061	1328.40002441406
793.86750412642	1343.80004882813
794.589951027946	1335.80004882813
795.312307676536	1341
796.03457408006	1346.80004882813
796.756750246417	1344.59997558594
797.478836183477	1336.80004882813
798.200831899137	1335.40002441406
798.92273740127	1338.59997558594
799.644552697769	1337.59997558594
800.36627779651	1328
801.087912705374	1354.80004882813
801.809457432251	1349.80004882813
802.530911985017	1341.59997558594
803.252276371558	1328.80004882813
803.973550599748	1345
804.694734677472	1361.59997558594
805.415828612611	1357.59997558594
806.136832413045	1357.59997558594
806.857746086646	1361.59997558594
807.578569641305	1358.59997558594
808.299303084892	1350.80004882813
809.019946425289	1362
809.740499670372	1351.40002441406
810.460962828022	1363.40002441406
811.181335906114	1360
811.901618912524	1352.40002441406
812.621811855131	1344
813.341914741809	1359.59997558594
814.061927580433	1346.40002441406
814.781850378881	1361
815.501683145025	1370.19995117188
816.221425886743	1364.59997558594
816.941078611903	1370.40002441406
817.660641328387	1359.59997558594
818.380114044065	1352.59997558594
819.099496766808	1354.59997558594
819.818789504492	1347.59997558594
820.53799226499	1339
821.257105056168	1336.19995117188
821.976127885904	1337.80004882813
822.695060762064	1336.59997558594
823.413903692525	1329.40002441406
824.132656685151	1337.40002441406
824.851319747817	1332.59997558594
825.569892888388	1330.80004882813
826.288376114739	1327
827.006769434737	1339.59997558594
827.725072856249	1337.40002441406
828.443286387142	1330.19995117188
829.161410035285	1340.59997558594
829.87944380855	1338.40002441406
830.597387714798	1336.80004882813
831.315241761898	1344.19995117188
832.033005957715	1338
832.750680310119	1355.19995117188
833.468264826969	1347.19995117188
834.18575951614	1353.40002441406
834.903164385486	1370.40002441406
835.620479442878	1358
836.337704696181	1351.19995117188
837.054840153255	1342.59997558594
837.771885821962	1351
838.488841710172	1344.40002441406
839.20570782574	1360.40002441406
839.922484176531	1351.59997558594
840.639170770409	1356
841.355767615231	1366.59997558594
842.072274718864	1370
842.788692089164	1353.59997558594
843.505019733993	1347.40002441406
844.221257661209	1342.80004882813
844.937405878676	1345.19995117188
845.65346439425	1347.80004882813
846.369433215789	1343.80004882813
847.085312351156	1339.80004882813
847.801101808205	1342.19995117188
848.516801594793	1338.19995117188
849.232411718781	1325.80004882813
849.947932188021	1338.80004882813
850.663363010376	1344.40002441406
851.378704193698	1353.19995117188
852.093955745842	1351.19995117188
852.809117674669	1345.40002441406
853.524189988028	1343.40002441406
854.239172693778	1333.59997558594
854.954065799768	1338.40002441406
855.668869313857	1341.80004882813
856.383583243899	1327.19995117188
857.098207597743	1324
857.812742383246	1326.59997558594
858.527187608255	1332.80004882813
859.241543280628	1327
859.955809408218	1325
860.669985998868	1328
861.384073060437	1330.80004882813
862.098070600772	1324
862.811978627724	1322.40002441406
863.52579714914	1327
864.239526172873	1322.40002441406
864.953165706776	1327.40002441406
865.666715758687	1310.59997558594
866.380176336464	1321.19995117188
867.093547447951	1332.40002441406
867.806829100996	1328
868.520021303444	1328
869.233124063149	1324
869.94613738795	1318.19995117188
870.659061285693	1323.80004882813
871.37189576423	1326
872.084640831403	1343.19995117188
872.797296495057	1336.40002441406
873.509862763039	1329.40002441406
874.22233964319	1326.59997558594
874.934727143353	1314.40002441406
875.647025271374	1329.40002441406
876.359234035097	1328
877.071353442361	1326.40002441406
877.783383501015	1322.19995117188
878.495324218895	1313.19995117188
879.207175603844	1335.40002441406
879.918937663705	1329.19995117188
880.630610406318	1321.19995117188
881.342193839524	1337.40002441406
882.053687971161	1330.80004882813
882.765092809069	1323.40002441406
883.476408361091	1315.19995117188
884.187634635066	1311.19995117188
884.898771638828	1321.19995117188
885.609819380221	1327.40002441406
886.320777867076	1330
887.031647107236	1338.80004882813
887.742427108536	1346.19995117188
888.453117878816	1339
889.16371942591	1344
889.874231757652	1321.19995117188
890.584654881883	1319.40002441406
891.294988806434	1322.80004882813
892.005233539141	1328.80004882813
892.715389087837	1330.40002441406
893.42545546036	1333.59997558594
894.135432664543	1334.19995117188
894.845320708216	1327
895.555119599216	1330
896.264829345375	1328
896.974449954526	1342.19995117188
897.683981434496	1313.59997558594
898.393423793125	1329.80004882813
899.102777038235	1331
899.812041177664	1337
900.521216219239	1333.19995117188
901.230302170793	1344.59997558594
901.939299040155	1348
902.64820683515	1344.19995117188
903.357025563612	1343
904.065755233368	1330
904.774395852247	1346.59997558594
905.482947428076	1337.80004882813
906.191409968682	1345.80004882813
906.899783481897	1342
907.608067975538	1348.80004882813
908.316263457443	1335.80004882813
909.02436993543	1345.40002441406
909.732387417327	1333.59997558594
910.440315910959	1329
911.148155424154	1334.59997558594
911.855905964731	1322.40002441406
912.563567540521	1317
913.271140159339	1321
913.978623829017	1314.19995117188
914.686018557374	1312
915.393324352237	1326.19995117188
916.100541221421	1337.59997558594
916.807669172752	1322.40002441406
917.514708214054	1341.19995117188
918.221658353142	1322.19995117188
918.928519597843	1334
919.635291955976	1335.40002441406
920.341975435358	1341
921.048570043813	1334
921.75507578916	1333
922.461492679212	1341.80004882813
923.167820721795	1353
923.874059924726	1344.19995117188
924.58021029582	1342.40002441406
925.286271842893	1348.59997558594
925.992244573769	1366.80004882813
926.698128496262	1352.59997558594
927.403923618184	1351
928.109629947355	1361.19995117188
928.815247491593	1347
929.520776258708	1334.40002441406
930.226216256519	1335.80004882813
930.931567492841	1329
931.636829975482	1322.40002441406
932.342003712263	1323.40002441406
933.047088710995	1324.80004882813
933.752084979491	1323.19995117188
934.456992525564	1316.40002441406
935.161811357024	1314.59997558594
935.866541481688	1326
936.571182907363	1311.80004882813
937.275735641861	1315.40002441406
937.980199692995	1318.59997558594
938.684575068572	1319
939.388861776411	1312.40002441406
940.093059824311	1321.40002441406
940.797169220085	1323.80004882813
941.501189971544	1327.40002441406
942.205122086495	1326.59997558594
942.908965572751	1330.59997558594
943.612720438111	1326
944.316386690391	1332.19995117188
945.019964337391	1335.19995117188
945.723453386924	1331.19995117188
946.426853846795	1321.80004882813
947.130165724808	1330
947.83338902877	1340.19995117188
948.536523766488	1341.19995117188
949.239569945764	1333.59997558594
949.942527574402	1320.80004882813
950.64539666021	1335.19995117188
951.348177210993	1333.19995117188
952.050869234548	1341.59997558594
952.753472738683	1337
953.455987731199	1329.40002441406
954.158414219898	1330
954.860752212587	1332.80004882813
955.563001717061	1334.19995117188
956.265162741124	1323.80004882813
956.967235292576	1332.59997558594
957.669219379224	1331.40002441406
958.371115008857	1333.19995117188
959.072922189283	1323.40002441406
959.774640928301	1319.80004882813
960.476271233708	1330.59997558594
961.177813113301	1333.59997558594
961.879266574882	1330
962.580631626248	1334
963.281908275194	1336
963.98309652952	1332.40002441406
964.684196397022	1330.59997558594
965.3852078855	1326.59997558594
966.086131002745	1324.80004882813
966.786965756555	1329
967.487712154726	1324.59997558594
968.188370205055	1321.59997558594
968.888939915331	1328.80004882813
969.589421293352	1334
970.289814346909	1316.19995117188
970.990119083801	1308.59997558594
971.690335511819	1318.19995117188
972.39046363875	1317.40002441406
973.090503472398	1325.59997558594
973.790455020545	1316.40002441406
974.490318290987	1306.40002441406
975.190093291516	1305.19995117188
975.889780029923	1309
976.589378513998	1314.59997558594
977.288888751527	1327
977.988310750308	1314.59997558594
978.687644518122	1320.80004882813
979.386890062767	1314.19995117188
980.086047392025	1303.59997558594
980.785116513689	1292
981.484097435542	1298
982.182990165377	1305.40002441406
982.88179471098	1310.19995117188
983.580511080137	1320.40002441406
984.279139280632	1323.59997558594
984.977679320253	1334.59997558594
985.67613120679	1339
986.374494948027	1339.80004882813
987.072770551745	1333.59997558594
987.770958025731	1327.59997558594
988.469057377772	1329.80004882813
989.167068615649	1329.40002441406
989.864991747145	1318.59997558594
990.562826780047	1318.40002441406
991.260573722134	1307.59997558594
991.958232581195	1298
992.655803365003	1304
993.353286081346	1302.19995117188
994.050680738006	1304.40002441406
994.74798734276	1318.40002441406
995.44520590339	1325.59997558594
996.142336427681	1321.40002441406
996.839378923407	1323.80004882813
997.536333398348	1308.40002441406
998.233199860289	1316
998.929978317004	1305.59997558594
999.626668776274	1306.80004882813
1000.32327124587	1307.59997558594
1001.01978573359	1320.40002441406
1001.71621224718	1317
1002.41255079445	1314.40002441406
1003.10880138315	1314.80004882813
1003.80496402107	1312
1004.50103871599	1303.19995117188
1005.19702547567	1319.59997558594
1005.8929243079	1302
1006.58873522045	1303.19995117188
1007.2844582211	1296.80004882813
1007.98009331761	1306.59997558594
1008.67564051776	1297.59997558594
1009.37109982933	1293.19995117188
1010.06647126009	1288
1010.7617548178	1297.59997558594
1011.45695051026	1308
1012.15205834522	1314.19995117188
1012.84707833045	1332.40002441406
1013.54201047373	1323.40002441406
1014.23685478284	1318.59997558594
1014.93161126553	1314.40002441406
1015.62627992959	1326.80004882813
1016.32086078277	1322.19995117188
1017.01535383285	1314.40002441406
1017.70975908761	1315.59997558594
1018.40407655479	1318.80004882813
1019.09830624219	1308
1019.79244815755	1305.80004882813
1020.48650230866	1296.80004882813
1021.18046870328	1299.19995117188
1021.87434734917	1301
1022.56813825411	1308
1023.26184142584	1303.59997558594
1023.95545687216	1305.80004882813
1024.64898460082	1305.80004882813
1025.34242461957	1317.40002441406
1026.0357769362	1325.59997558594
1026.72904155846	1313.40002441406
1027.42221849412	1308.59997558594
1028.11530775094	1313.40002441406
1028.80830933668	1315.40002441406
1029.50122325911	1301.40002441406
1030.19404952599	1309
1030.88678814508	1303.40002441406
1031.57943912414	1295.59997558594
1032.27200247093	1304.59997558594
1032.96447819323	1299.19995117188
1033.65686629878	1310.80004882813
1034.34916679534	1305.40002441406
1035.04137969068	1304.19995117188
1035.73350499256	1301.19995117188
1036.42554270874	1312.80004882813
1037.11749284697	1323.19995117188
1037.80935541501	1301
1038.50113042062	1315.40002441406
1039.19281787156	1310.19995117188
1039.88441777559	1310.59997558594
1040.57593014046	1295.59997558594
1041.26735497393	1312
1041.95869228376	1319.59997558594
1042.6499420777	1306.80004882813
1043.3411043635	1306.59997558594
1044.03217914893	1304
1044.72316644174	1306.59997558594
1045.41406624968	1306.40002441406
1046.1048785805	1298.59997558594
1046.79560344197	1305.59997558594
1047.48624084182	1291.59997558594
1048.17679078783	1291.80004882813
1048.86725328774	1305.40002441406
1049.55762834929	1317.19995117188
1050.24791598025	1320
1050.93811618837	1318
1051.62822898139	1315
1052.31825436707	1305
1053.00819235315	1316.40002441406
1053.6980429474	1314
1054.38780615755	1308.19995117188
1055.07748199136	1318.40002441406
1055.76707045658	1290.80004882813
1056.45657156095	1295.80004882813
1057.14598531222	1296.19995117188
1057.83531171814	1292.19995117188
1058.52455078646	1293.40002441406
1059.21370252494	1317.80004882813
1059.90276694129	1312.80004882813
1060.5917440433	1303.59997558594
1061.28063383868	1286.19995117188
1061.9694363352	1286.19995117188
1062.65815154059	1289.19995117188
1063.34677946261	1289
1064.03532010899	1290.19995117188
1064.72377348748	1280.19995117188
1065.41213960583	1286.59997558594
1066.10041847177	1296.59997558594
1066.78861009306	1302.80004882813
1067.47671447743	1307.19995117188
1068.16473163263	1313
1068.85266156639	1313.19995117188
1069.54050428647	1306
1070.2282598006	1304
1070.91592811652	1305.59997558594
1071.60350924198	1298.80004882813
1072.29100318471	1309.19995117188
1072.97840995245	1301
1073.66572955295	1297.59997558594
1074.35296199394	1297.19995117188
1075.04010728316	1300
1075.72716542836	1286.40002441406
1076.41413643726	1294.40002441406
1077.10102031761	1284.80004882813
1077.78781707715	1294.59997558594
1078.4745267236	1293.59997558594
1079.16114926471	1290.80004882813
1079.84768470822	1287.80004882813
1080.53413306185	1291.40002441406
1081.22049433336	1292.19995117188
1081.90676853046	1287.40002441406
1082.5929556609	1290.59997558594
1083.27905573241	1291.80004882813
1083.96506875272	1299.59997558594
1084.65099472957	1289.80004882813
1085.3368336707	1294.59997558594
1086.02258558383	1296.80004882813
1086.70825047669	1301.59997558594
1087.39382835703	1295
1088.07931923257	1297
1088.76472311104	1297
1089.45004000018	1289.59997558594
1090.13526990771	1286.40002441406
1090.82041284137	1290
1091.50546880889	1303.80004882813
1092.19043781799	1300.80004882813
1092.87531987642	1305.40002441406
1093.56011499188	1294.19995117188
1094.24482317212	1301.59997558594
1094.92944442486	1287.80004882813
1095.61397875783	1282.80004882813
1096.29842617876	1295.40002441406
1096.98278669537	1281.80004882813
1097.6670603154	1288
1098.35124704656	1283.40002441406
1099.03534689659	1288.80004882813
1099.71935987322	1284.19995117188
1100.40328598416	1285.59997558594
1101.08712523713	1281.59997558594
1101.77087763988	1283.59997558594
1102.45454320012	1294.80004882813
1103.13812192557	1293.40002441406
1103.82161382396	1293.40002441406
1104.50501890301	1296.19995117188
1105.18833717045	1299
1105.87156863399	1303.40002441406
1106.55471330137	1310.80004882813
1107.2377711803	1286.19995117188
1107.9207422785	1298.80004882813
1108.60362660369	1287.59997558594
1109.2864241636	1281.59997558594
1109.96913496594	1282.40002441406
1110.65175901844	1265.19995117188
1111.33429632882	1280.40002441406
1112.01674690479	1271.19995117188
1112.69911075408	1285
1113.38138788439	1278.80004882813
1114.06357830346	1289.80004882813
1114.745682019	1285.59997558594
1115.42769903872	1270.40002441406
1116.10962937035	1281.80004882813
1116.7914730216	1283.40002441406
1117.47323000018	1294.59997558594
1118.15490031382	1301.59997558594
1118.83648397022	1291.59997558594
1119.51798097712	1299
1120.1993913422	1290.19995117188
1120.88071507321	1272.80004882813
1121.56195217784	1280.40002441406
1122.24310266381	1284.40002441406
1122.92416653884	1287.40002441406
1123.60514381064	1285.59997558594
1124.28603448692	1291.40002441406
1124.9668385754	1286.40002441406
1125.64755608378	1273.59997558594
1126.32818701978	1285.59997558594
1127.00873139111	1299.80004882813
1127.68918920548	1298.40002441406
1128.3695604706	1303.19995117188
1129.04984519419	1309.80004882813
1129.73004338394	1302.59997558594
1130.41015504758	1305.19995117188
1131.09018019281	1297.80004882813
1131.77011882734	1302.80004882813
1132.44997095888	1302.40002441406
1133.12973659514	1290.80004882813
1133.80941574381	1292.40002441406
1134.48900841263	1297.19995117188
1135.16851460927	1287.80004882813
1135.84793434147	1286
1136.52726761692	1290
1137.20651444333	1294.40002441406
1137.8856748284	1308.59997558594
1138.56474877984	1286.59997558594
1139.24373630536	1294.40002441406
1139.92263741265	1297.40002441406
1140.60145210943	1285.80004882813
1141.28018040339	1287
1141.95882230225	1287.80004882813
1142.6373778137	1288.19995117188
1143.31584694545	1289.59997558594
1143.99422970519	1292.40002441406
1144.67252610064	1288.80004882813
1145.35073613949	1285
1146.02885982944	1289.40002441406
1146.7068971782	1275.19995117188
1147.38484819347	1270.80004882813
1148.06271288294	1273.59997558594
1148.74049125432	1267.59997558594
1149.41818331531	1275
1150.0957890736	1274.59997558594
1150.77330853689	1275.19995117188
1151.45074171289	1272.19995117188
1152.12808860928	1269.40002441406
1152.80534923378	1275.80004882813
1153.48252359407	1280.40002441406
1154.15961169786	1268
1154.83661355283	1281.19995117188
1155.51352916669	1272.80004882813
1156.19035854713	1263.59997558594
1156.86710170185	1268.59997558594
1157.54375863855	1267.19995117188
1158.22032936491	1266.59997558594
1158.89681388863	1260
1159.57321221741	1262.59997558594
1160.24952435894	1254.40002441406
1160.92575032092	1258.19995117188
1161.60189011103	1252.40002441406
1162.27794373697	1270.19995117188
1162.95391120644	1266
1163.62979252712	1257.80004882813
1164.3055877067	1272.40002441406
1164.98129675288	1257.59997558594
1165.65691967336	1273.80004882813
1166.33245647581	1269.59997558594
1167.00790716792	1272.19995117188
1167.6832717574	1277.19995117188
1168.35855025193	1278
1169.0337426592	1297
1169.70884898689	1283.40002441406
1170.3838692427	1279.80004882813
1171.05880343431	1294
1171.73365156941	1290.80004882813
1172.40841365569	1300.19995117188
1173.08308970083	1282.80004882813
1173.75767971253	1296
1174.43218369847	1289.19995117188
1175.10660166633	1291.80004882813
1175.7809336238	1291
1176.45517957857	1282
1177.12933953832	1278.80004882813
1177.80341351073	1283
1178.47740150349	1266.19995117188
1179.15130352429	1269.40002441406
1179.8251195808	1282
1180.49884968071	1261.19995117188
1181.1724938317	1273.40002441406
1181.84605204145	1273.19995117188
1182.51952431766	1266
1183.19291066799	1281.59997558594
1183.86621110013	1283.80004882813
1184.53942562176	1281.40002441406
1185.21255424057	1285.59997558594
1185.88559696422	1291.59997558594
1186.55855380041	1282.19995117188
1187.2314247568	1298.19995117188
1187.90420984109	1289.19995117188
1188.57690906095	1300
1189.24952242405	1301.59997558594
1189.92204993808	1300
1190.59449161071	1288.59997558594
1191.26684744962	1299.40002441406
1191.93911746249	1284.40002441406
1192.61130165699	1282.80004882813
1193.28340004081	1283.19995117188
1193.95541262161	1292
1194.62733940707	1298
1195.29918040487	1280.59997558594
1195.97093562269	1286.59997558594
1196.64260506819	1285.40002441406
1197.31418874905	1285.80004882813
1197.98568667295	1297.59997558594
1198.65709884755	1300.59997558594
1199.32842528053	1300.40002441406
1199.99966597957	1294.40002441406
1200.67082095234	1282.40002441406
1201.3418902065	1278.19995117188
1202.01287374974	1286.59997558594
1202.68377158971	1284.40002441406
1203.3545837341	1288.80004882813
1204.02531019057	1283.40002441406
1204.6959509668	1275.40002441406
1205.36650607045	1284
1206.03697550919	1280
1206.70735929069	1278
1207.37765742263	1273.40002441406
1208.04786991266	1255.19995117188
1208.71799676846	1265.40002441406
1209.38803799769	1254.80004882813
1210.05799360803	1252.80004882813
1210.72786360714	1249.80004882813
1211.39764800268	1265.59997558594
1212.06734680233	1263
1212.73696001375	1264.40002441406
1213.4064876446	1277
1214.07592970255	1272.59997558594
1214.74528619526	1273.59997558594
1215.4145571304	1279
1216.08374251564	1266
1216.75284235863	1273.40002441406
1217.42185666704	1281
1218.09078544854	1288
1218.75962871078	1274
1219.42838646143	1274
1220.09705870816	1271.19995117188
1220.76564545861	1274.40002441406
1221.43414672046	1281.80004882813
1222.10256250136	1277.59997558594
1222.77089280898	1276.40002441406
1223.43913765098	1272.19995117188
1224.107297035	1265
1224.77537096873	1262.80004882813
1225.44335945981	1256.80004882813
1226.1112625159	1258.59997558594
1226.77908014467	1254.80004882813
1227.44681235376	1266
1228.11445915085	1262.40002441406
1228.78202054357	1252
1229.44949653961	1256.59997558594
1230.11688714659	1252
1230.7841923722	1242
1231.45141222407	1246
1232.11854670988	1244.80004882813
1232.78559583726	1247.19995117188
1233.45255961388	1237.59997558594
1234.1194380474	1245.40002441406
1234.78623114546	1245
1235.45293891572	1237.19995117188
1236.11956136583	1235.19995117188
1236.78609850345	1246.80004882813
1237.45255033623	1256.40002441406
1238.11891687182	1250.80004882813
1238.78519811788	1265
1239.45139408205	1269
1240.11750477198	1266.80004882813
1240.78353019534	1266.40002441406
1241.44947035976	1256.80004882813
1242.11532527291	1259.59997558594
1242.78109494242	1245.19995117188
1243.44677937595	1274
1244.11237858115	1273.19995117188
1244.77789256567	1270.59997558594
1245.44332133715	1266.19995117188
1246.10866490325	1256.59997558594
1246.7739232716	1252.80004882813
1247.43909644987	1255.80004882813
1248.10418444569	1251.80004882813
1248.76918726671	1251.40002441406
1249.43410492059	1246.40002441406
1250.09893741496	1238.80004882813
1250.76368475747	1244.80004882813
1251.42834695576	1246.80004882813
1252.09292401749	1242
1252.75741595029	1245
1253.42182276182	1244.80004882813
1254.08614445971	1241.59997558594
1254.75038105161	1235.19995117188
1255.41453254515	1245.40002441406
1256.07859894799	1240.40002441406
1256.74258026777	1228.40002441406
1257.40647651213	1234.19995117188
1258.0702876887	1230.59997558594
1258.73401380514	1233.19995117188
1259.39765486908	1236.40002441406
1260.06121088817	1240
1260.72468187004	1241.19995117188
1261.38806782233	1236.19995117188
1262.05136875269	1248
1262.71458466875	1253.59997558594
1263.37771557815	1256.80004882813
1264.04076148854	1251.59997558594
1264.70372240753	1258
1265.3665983428	1255.40002441406
1266.02938930195	1257.59997558594
1266.69209529263	1261.40002441406
1267.35471632249	1246.80004882813
1268.01725239914	1255
1268.67970353024	1250.40002441406
1269.34206972342	1241.19995117188
1270.00435098631	1244
1270.66654732655	1243.80004882813
1271.32865875177	1245.80004882813
1271.9906852696	1241
1272.65262688768	1252.40002441406
1273.31448361365	1242.80004882813
1273.97625545514	1230.80004882813
1274.63794241978	1242
1275.2995445152	1253.40002441406
1275.96106174903	1256.19995117188
1276.62249412892	1253
1277.28384166248	1258.40002441406
1277.94510435735	1253.19995117188
1278.60628222116	1248.19995117188
1279.26737526155	1247.40002441406
1279.92838348613	1242.59997558594
1280.58930690255	1249.40002441406
1281.25014551842	1253.19995117188
1281.91089934139	1246.19995117188
1282.57156837907	1251.80004882813
1283.2321526391	1242.80004882813
1283.89265212911	1244.19995117188
1284.55306685671	1245.19995117188
1285.21339682955	1237.40002441406
1285.87364205525	1236.19995117188
1286.53380254142	1244.19995117188
1287.19387829571	1237.59997558594
1287.85386932573	1244.59997558594
1288.51377563911	1243.80004882813
1289.17359724348	1239.59997558594
1289.83333414646	1245.40002441406
1290.49298635567	1245.19995117188
1291.15255387874	1238.59997558594
1291.8120367233	1239
1292.47143489696	1251.59997558594
1293.13074840736	1250.80004882813
1293.7899772621	1241
1294.44912146882	1245.80004882813
1295.10818103513	1241.40002441406
1295.76715596866	1246
1296.42604627704	1241
1297.08485196787	1239.80004882813
1297.74357304878	1240.19995117188
1298.4022095274	1247.80004882813
1299.06076141134	1251.59997558594
1299.71922870821	1245
1300.37761142565	1250
1301.03590957126	1255.59997558594
1301.69412315268	1262.19995117188
1302.3522521775	1256.59997558594
1303.01029665336	1262
1303.66825658787	1258.59997558594
1304.32613198865	1259.59997558594
1304.98392286332	1257.80004882813
1305.64162921948	1262.59997558594
1306.29925106476	1259
1306.95678840677	1258.19995117188
1307.61424125312	1262
1308.27160961145	1276.59997558594
1308.92889348934	1258
1309.58609289443	1264.40002441406
1310.24320783432	1269
1310.90023831664	1266.19995117188
1311.55718434898	1254.80004882813
1312.21404593897	1254.80004882813
1312.87082309421	1256.80004882813
1313.52751582233	1260
1314.18412413092	1265.40002441406
1314.84064802761	1264.40002441406
1315.49708752	1263
1316.1534426157	1276.40002441406
1316.80971332233	1270.40002441406
1317.46589964749	1269.19995117188
1318.1220015988	1271.80004882813
1318.77801918386	1270.80004882813
1319.43395241028	1271
1320.08980128567	1263.59997558594
1320.74556581764	1264.59997558594
1321.4012460138	1256.40002441406
1322.05684188176	1264.80004882813
1322.71235342911	1252.40002441406
1323.36778066347	1255.80004882813
1324.02312359245	1248.19995117188
1324.67838222365	1245.19995117188
1325.33355656468	1236.19995117188
1325.98864662314	1246
1326.64365240663	1246
1327.29857392277	1235
1327.95341117915	1246
1328.60816418339	1244.59997558594
1329.26283294308	1242.40002441406
1329.91741746582	1250.19995117188
1330.57191775923	1249.59997558594
1331.2263338309	1241.40002441406
1331.88066568843	1247.19995117188
1332.53491333943	1247.40002441406
1333.1890767915	1247.40002441406
1333.84315605224	1247
1334.49715112925	1244.80004882813
1335.15106203013	1241.19995117188
1335.80488876249	1249.59997558594
1336.45863133391	1334.19995117188
1337.112289752	1364
1337.76586402437	1244.19995117188
1338.4193541586	1244
1339.0727601623	1243.80004882813
1339.72608204306	1247.40002441406
1340.37931980849	1249.40002441406
1341.03247346617	1250.40002441406
1341.68554302372	1247
1342.33852848871	1240
1342.99142986876	1246
1343.64424717145	1247.80004882813
1344.29698040438	1248.80004882813
1344.94962957515	1244.80004882813
1345.60219469135	1243.59997558594
1346.25467576058	1254.40002441406
1346.90707279042	1245.40002441406
1347.55938578848	1256.80004882813
1348.21161476235	1248.80004882813
1348.86375971962	1255.80004882813
1349.51582066787	1236.40002441406
1350.16779761472	1255.80004882813
1350.81969056774	1266.40002441406
1351.47149953453	1261.19995117188
1352.12322452269	1266.59997558594
1352.77486553979	1266.40002441406
1353.42642259344	1260.40002441406
1354.07789569122	1280.40002441406
1354.72928484072	1263.40002441406
1355.38059004953	1266
1356.03181132525	1268.59997558594
1356.68294867545	1263.80004882813
1357.33400210773	1259.80004882813
1357.98497162968	1278.59997558594
1358.63585724889	1270.40002441406
1359.28665897294	1281
1359.93737680942	1282.80004882813
1360.58801076591	1296
1361.23856085001	1302.19995117188
1361.88902706929	1305.19995117188
1362.53940943135	1313.59997558594
1363.18970794377	1310.40002441406
1363.83992261413	1308
1364.49005345003	1307.59997558594
1365.14010045904	1308.80004882813
1365.79006364874	1302.59997558594
1366.43994302673	1301.59997558594
1367.08973860058	1294.80004882813
1367.73945037788	1280.19995117188
1368.38907836621	1271.40002441406
1369.03862257315	1266.80004882813
1369.68808300629	1247.40002441406
1370.3374596732	1251.40002441406
1370.98675258148	1236.80004882813
1371.63596173868	1244.80004882813
1372.28508715241	1239.59997558594
1372.93412883024	1236.59997558594
1373.58308677974	1229.59997558594
1374.2319610085	1224.40002441406
1374.8807515241	1230.19995117188
1375.52945833412	1230
1376.17808144612	1224.19995117188
1376.82662086771	1216.19995117188
1377.47507660644	1227.40002441406
1378.12344866989	1228.80004882813
1378.77173706565	1233.59997558594
1379.41994180129	1224.80004882813
1380.06806288439	1226.19995117188
1380.71610032252	1224.40002441406
1381.36405412326	1226.80004882813
1382.01192429419	1216
1382.65971084287	1233.80004882813
1383.30741377688	1225.19995117188
1383.95503310381	1225.59997558594
1384.60256883121	1222
1385.25002096667	1223.40002441406
1385.89738951775	1226.80004882813
1386.54467449204	1228
1387.19187589709	1229.40002441406
1387.8389937405	1220.59997558594
1388.48602802982	1225.19995117188
1389.13297877262	1228
1389.77984597649	1224.59997558594
1390.42662964899	1224.80004882813
1391.07332979768	1217.40002441406
1391.71994643015	1221.19995117188
1392.36647955395	1209.59997558594
1393.01292917667	1212.80004882813
1393.65929530586	1214.59997558594
1394.3055779491	1213.80004882813
1394.95177711395	1209.80004882813
1395.59789280799	1201.40002441406
1396.24392503877	1206.80004882813
1396.88987381387	1213.59997558594
1397.53573914086	1209.40002441406
1398.1815210273	1212
1398.82721948075	1208.40002441406
1399.47283450878	1218.80004882813
1400.11836611897	1213
1400.76381431886	1205.80004882813
1401.40917911603	1209
1402.05446051805	1214.59997558594
1402.69965853247	1215.59997558594
1403.34477316686	1210
1403.98980442878	1193.59997558594
1404.6347523258	1198.80004882813
1405.27961686548	1195.80004882813
1405.92439805538	1199.19995117188
1406.56909590306	1203
1407.21371041608	1202.40002441406
1407.85824160202	1200.19995117188
1408.50268946841	1199.59997558594
1409.14705402284	1210.59997558594
1409.79133527285	1203.40002441406
1410.43553322601	1205.80004882813
1411.07964788987	1201.80004882813
1411.723679272	1202
1412.36762737996	1204
1413.01149222129	1199.19995117188
1413.65527380357	1207.40002441406
1414.29897213435	1206.19995117188
1414.94258722118	1214
1415.58611907163	1207
1416.22956769325	1195.40002441406
1416.87293309359	1195.59997558594
1417.51621528021	1188.80004882813
1418.15941426067	1188.40002441406
1418.80253004253	1196
1419.44556263333	1195.80004882813
1420.08851204063	1196.59997558594
1420.731378272	1196.40002441406
1421.37416133497	1196
1422.0168612371	1188.59997558594
1422.65947798596	1188.59997558594
1423.30201158908	1209.80004882813
1423.94446205403	1203.59997558594
1424.58682938835	1210
1425.2291135996	1223.59997558594
1425.87131469532	1215.19995117188
1426.51343268308	1228.80004882813
1427.15546757042	1232
1427.79741936488	1217.80004882813
1428.43928807403	1222.19995117188
1429.0810737054	1216.80004882813
1429.72277626656	1216.59997558594
1430.36439576504	1215
1431.00593220841	1208.59997558594
1431.64738560419	1213.80004882813
1432.28875595995	1212.80004882813
1432.93004328324	1215.40002441406
1433.57124758159	1203.59997558594
1434.21236886255	1206.19995117188
1434.85340713368	1213.59997558594
1435.49436240252	1211
1436.13523467661	1212.59997558594
1436.77602396349	1225.40002441406
1437.41673027073	1221.40002441406
1438.05735360585	1216.80004882813
1438.69789397641	1212.80004882813
1439.33835138994	1214
1439.978725854	1217.80004882813
1440.61901737612	1223.40002441406
1441.25922596385	1226
1441.89935162473	1203.80004882813
1442.53939436631	1209
1443.17935419612	1204.59997558594
1443.81923112171	1202.59997558594
1444.45902515061	1195.40002441406
1445.09873629038	1196
1445.73836454854	1189.40002441406
1446.37790993265	1192
1447.01737245024	1203.80004882813
1447.65675210885	1201.19995117188
1448.29604891602	1204.59997558594
1448.93526287928	1209.19995117188
1449.57439400618	1210.59997558594
1450.21344230426	1199.59997558594
1450.85240778105	1202
1451.49129044409	1202.59997558594
1452.13009030092	1205
1452.76880735907	1213.80004882813
1453.40744162608	1208.40002441406
1454.04599310949	1215.40002441406
1454.68446181683	1209.59997558594
1455.32284775564	1205
1455.96115093345	1218
1456.5993713578	1206.40002441406
1457.23750903623	1202.59997558594
1457.87556397626	1205.40002441406
1458.51353618543	1207.40002441406
1459.15142567127	1213.40002441406
1459.78923244132	1210.80004882813
1460.42695650311	1209.40002441406
1461.06459786417	1204.80004882813
1461.70215653203	1205.59997558594
1462.33963251423	1190.40002441406
1462.97702581829	1196.59997558594
1463.61433645175	1203.19995117188
1464.25156442214	1224
1464.88870973699	1204
1465.52577240382	1196.40002441406
1466.16275243017	1192.40002441406
1466.79964982356	1191.59997558594
1467.43646459154	1188.40002441406
1468.07319674161	1181
1468.70984628132	1187.19995117188
1469.34641321818	1188.40002441406
1469.98289755974	1187.19995117188
1470.6192993135	1182.80004882813
1471.25561848701	1188
1471.89185508779	1191.80004882813
1472.52800912336	1192.40002441406
1473.16408060124	1204.19995117188
1473.80006952897	1202.80004882813
1474.43597591407	1192.80004882813
1475.07179976406	1193
1475.70754108647	1193.59997558594
1476.34319988883	1200.80004882813
1476.97877617865	1194.40002441406
1477.61426996345	1193.19995117188
1478.24968125077	1207.19995117188
1478.88501004812	1195
1479.52025636303	1188
1480.15542020302	1191.19995117188
1480.79050157561	1182
1481.42550048832	1188.59997558594
1482.06041694867	1190.19995117188
1482.69525096418	1188.59997558594
1483.33000254237	1194.59997558594
1483.96467169077	1204.59997558594
1484.59925841689	1204.59997558594
1485.23376272825	1194.40002441406
1485.86818463237	1208.59997558594
1486.50252413677	1198
1487.13678124896	1201.80004882813
1487.77095597646	1199.80004882813
1488.4050483268	1199.59997558594
1489.03905830749	1203.59997558594
1489.67298592604	1196.80004882813
1490.30683118996	1205.59997558594
1490.9405941068	1199.19995117188
1491.57427468403	1200.40002441406
1492.2078729292	1202.80004882813
1492.84138884981	1208.40002441406
1493.47482245338	1210.19995117188
1494.10817374742	1208
1494.74144273944	1212.19995117188
1495.37462943696	1203
1496.0077338475	1202.19995117188
1496.64075597856	1209.59997558594
1497.27369583765	1194.80004882813
1497.9065534323	1196.19995117188
1498.53932877001	1203.59997558594
1499.17202185829	1216
1499.80463270465	1225
1500.43716131661	1220.80004882813
1501.06960770167	1214.40002441406
1501.70197186735	1221.40002441406
1502.33425382116	1222.80004882813
1502.96645357059	1227.40002441406
1503.59857112317	1223.59997558594
1504.23060648641	1233.59997558594
1504.8625596678	1223.80004882813
1505.49443067486	1229.19995117188
1506.1262195151	1223.59997558594
1506.75792619602	1232
1507.38955072513	1232.59997558594
1508.02109310993	1222.19995117188
1508.65255335794	1218.59997558594
1509.28393147666	1212.80004882813
1509.91522747359	1212
1510.54644135624	1224.40002441406
1511.17757313212	1209.80004882813
1511.80862280872	1214.19995117188
1512.43959039356	1223
1513.07047589413	1220.80004882813
1513.70127931795	1209.40002441406
1514.33200067251	1205.59997558594
1514.96263996531	1207.19995117188
1515.59319720386	1202.40002441406
1516.22367239567	1200.80004882813
1516.85406554822	1195
1517.48437666903	1198
1518.1146057656	1193.19995117188
1518.74475284542	1211.40002441406
1519.374817916	1210
1520.00480098483	1200.80004882813
1520.63470205942	1202
1521.26452114726	1202.19995117188
1521.89425825586	1194.40002441406
1522.52391339271	1195.40002441406
1523.15348656531	1193.59997558594
1523.78297778116	1192
1524.41238704775	1186.40002441406
1525.04171437259	1187
1525.67095976317	1193.80004882813
1526.30012322699	1183.59997558594
1526.92920477154	1180.19995117188
1527.55820440432	1178.19995117188
1528.18712213283	1181.19995117188
1528.81595796455	1180
1529.44471190699	1180.19995117188
1530.07338396764	1182
1530.70197415399	1176.59997558594
1531.33048247353	1171
1531.95890893377	1169.80004882813
1532.58725354219	1161.19995117188
1533.21551630629	1155.59997558594
1533.84369723356	1162.80004882813
1534.47179633148	1161.80004882813
1535.09981360757	1166.59997558594
1535.72774906929	1177.40002441406
1536.35560272415	1171.80004882813
1536.98337457963	1178
1537.61106464323	1176.59997558594
1538.23867292243	1173
1538.86619942473	1178.40002441406
1539.49364415762	1168.19995117188
1540.12100712857	1161.40002441406
1540.74828834509	1168.19995117188
1541.37548781466	1154.80004882813
1542.00260554478	1158.19995117188
1542.62964154291	1167.80004882813
1543.25659581655	1159.40002441406
1543.8834683732	1161
1544.51025922034	1159.59997558594
1545.13696836544	1167.19995117188
1545.76359581601	1173.80004882813
1546.39014157952	1171.80004882813
1547.01660566345	1151.59997558594
1547.64298807531	1159.80004882813
1548.26928882255	1169.59997558594
1548.89550791269	1170.59997558594
1549.52164535318	1164.19995117188
1550.14770115153	1168.59997558594
1550.77367531521	1159.80004882813
1551.39956785171	1173.19995117188
1552.0253787685	1173.59997558594
1552.65110807307	1163.19995117188
1553.2767557729	1173
1553.90232187548	1168.40002441406
1554.52780638828	1164.40002441406
1555.15320931879	1160
1555.77853067447	1160.80004882813
1556.40377046282	1161.80004882813
1557.02892869132	1154.19995117188
1557.65400536744	1155
1558.27900049866	1166.19995117188
1558.90391409247	1161.80004882813
1559.52874615633	1157.80004882813
1560.15349669773	1163.59997558594
1560.77816572414	1162
1561.40275324305	1157.59997558594
1562.02725926192	1165.80004882813
1562.65168378824	1162.19995117188
1563.27602682948	1165.59997558594
1563.90028839311	1176.59997558594
1564.52446848662	1177.80004882813
1565.14856711748	1165
1565.77258429316	1183.59997558594
1566.39652002113	1176
1567.02037430887	1178
1567.64414716387	1172.80004882813
1568.26783859357	1169.59997558594
1568.89144860547	1173.59997558594
1569.51497720703	1178
1570.13842440573	1170.40002441406
1570.76179020904	1178
1571.38507462442	1170.40002441406
1572.00827765936	1176
1572.63139932132	1175.40002441406
1573.25443961777	1169.40002441406
1573.87739855618	1175.40002441406
1574.50027614402	1180
1575.12307238877	1181.40002441406
1575.74578729789	1184.40002441406
1576.36842087885	1182.40002441406
1576.99097313912	1190.40002441406
1577.61344408616	1196
1578.23583372745	1189.80004882813
1578.85814207046	1191.40002441406
1579.48036912264	1185.19995117188
1580.10251489147	1179.80004882813
1580.72457938441	1177.80004882813
1581.34656260893	1171
1581.9684645725	1174.59997558594
1582.59028528258	1172.19995117188
1583.21202474663	1168
1583.83368297212	1157
1584.45525996652	1155.19995117188
1585.07675573728	1148.40002441406
1585.69817029188	1155
1586.31950363778	1150.40002441406
1586.94075578243	1148
1587.5619267333	1150.80004882813
1588.18301649786	1149.59997558594
1588.80402508357	1151.59997558594
1589.42495249788	1157.19995117188
1590.04579874826	1149.80004882813
1590.66656384217	1156
1591.28724778707	1157.80004882813
1591.90785059042	1157.19995117188
1592.52837225968	1154.80004882813
1593.14881280232	1147.59997558594
1593.76917222578	1138
1594.38945053753	1141
1595.00964774502	1134.80004882813
1595.62976385573	1133
1596.24979887709	1129
1596.86975281657	1138.80004882813
1597.48962568164	1132.59997558594
1598.10941747974	1135.19995117188
1598.72912821832	1140.80004882813
1599.34875790486	1145.80004882813
1599.9683065468	1144.19995117188
1600.58777415159	1143.80004882813
1601.2071607267	1141
1601.82646627958	1149
1602.44569081769	1148.40002441406
1603.06483434846	1153.19995117188
1603.68389687937	1137.19995117188
1604.30287841786	1139.19995117188
1604.92177897139	1134.19995117188
1605.54059854741	1142.80004882813
1606.15933715337	1132.19995117188
1606.77799479672	1135.80004882813
1607.39657148492	1125.80004882813
1608.01506722542	1141.40002441406
1608.63348202566	1139
1609.2518158931	1133.59997558594
1609.87006883519	1131.59997558594
1610.48824085939	1138.80004882813
1611.10633197312	1135.19995117188
1611.72434218386	1141.80004882813
1612.34227149904	1137.40002441406
1612.96011992612	1141
1613.57788747254	1136.80004882813
1614.19557414575	1123.40002441406
1614.8131799532	1123.19995117188
1615.43070490234	1117.40002441406
1616.04814900061	1117.19995117188
1616.66551225545	1126.40002441406
1617.28279467433	1119.40002441406
1617.89999626467	1127.80004882813
1618.51711703393	1120.40002441406
1619.13415698955	1125
1619.75111613898	1123.59997558594
1620.36799448966	1124.59997558594
1620.98479204903	1120.19995117188
1621.60150882455	1124.80004882813
1622.21814482364	1123
1622.83470005376	1126.19995117188
1623.45117452235	1133.19995117188
1624.06756823685	1129.80004882813
1624.6838812047	1135.59997558594
1625.30011343335	1132.59997558594
1625.91626493022	1132.19995117188
1626.53233570278	1125.19995117188
1627.14832575845	1119.40002441406
1627.76423510468	1124.80004882813
1628.38006374891	1119.19995117188
1628.99581169857	1114.40002441406
1629.61147896111	1105.80004882813
1630.22706554397	1110
1630.84257145457	1116.19995117188
1631.45799670038	1113.40002441406
1632.07334128881	1119.59997558594
1632.6886052273	1109.80004882813
1633.3037885233	1100.80004882813
1633.91889118425	1104
1634.53391321757	1106.19995117188
1635.1488546307	1104.80004882813
1635.76371543108	1109.59997558594
1636.37849562616	1105.59997558594
1636.99319522335	1110.19995117188
1637.60781423009	1102.80004882813
1638.22235265383	1106
1638.83681050198	1104.19995117188
1639.451187782	1105.80004882813
1640.0654845013	1117.40002441406
1640.67970066734	1117.19995117188
1641.29383628752	1119.59997558594
1641.9078913693	1118
1642.5218659201	1114.59997558594
1643.13575994735	1120.80004882813
1643.74957345849	1119.40002441406
1644.36330646094	1127.80004882813
1644.97695896213	1127.80004882813
1645.59053096951	1121
1646.20402249049	1123.19995117188
1646.8174335325	1131.40002441406
1647.43076410298	1127.80004882813
1648.04401420935	1141
1648.65718385905	1141.19995117188
1649.2702730595	1147.40002441406
1649.88328181812	1147.80004882813
1650.49621014236	1143
1651.10905803963	1139
1651.72182551735	1137.80004882813
1652.33451258297	1138.19995117188
1652.9471192439	1137.80004882813
1653.55964550757	1131.80004882813
1654.1720913814	1138
1654.78445687283	1136.80004882813
1655.39674198926	1139.59997558594
1656.00894673814	1125.19995117188
1656.62107112688	1117.59997558594
1657.23311516291	1100
1657.84507885365	1108
1658.45696220652	1105.59997558594
1659.06876522895	1105.59997558594
1659.68048792835	1101.59997558594
1660.29213031217	1108.40002441406
1660.90369238779	1113.80004882813
1661.51517416267	1118.19995117188
1662.12657564421	1127.19995117188
1662.73789683984	1119
1663.34913775697	1107
1663.96029840303	1109.19995117188
1664.57137878544	1094.80004882813
1665.18237891161	1098.80004882813
1665.79329878897	1089.40002441406
1666.40413842493	1087.40002441406
1667.01489782691	1089.40002441406
1667.62557700233	1087.40002441406
1668.2361759586	1080.19995117188
1668.84669470315	1082.80004882813
1669.4571332434	1085.59997558594
1670.06749158675	1090.80004882813
1670.67776974062	1086
1671.28796771243	1089.40002441406
1671.8980855096	1084
1672.50812313954	1096.80004882813
1673.11808060967	1087
1673.72795792739	1084.40002441406
1674.33775510013	1087.19995117188
1674.9474721353	1083
1675.55710904031	1079.40002441406
1676.16666582257	1079.40002441406
1676.7761424895	1077.40002441406
1677.38553904851	1068.40002441406
1677.99485550702	1070.59997558594
1678.60409187243	1063.19995117188
1679.21324815215	1056.80004882813
1679.8223243536	1057.40002441406
1680.43132048419	1060.19995117188
1681.04023655132	1066.80004882813
1681.64907256241	1065.80004882813
1682.25782852487	1067
1682.86650444611	1064.80004882813
1683.47510033353	1061.59997558594
1684.08361619455	1061.80004882813
1684.69205203657	1068.80004882813
1685.300407867	1060.59997558594
1685.90868369325	1061.19995117188
1686.51687952272	1064.19995117188
1687.12499536283	1067
1687.73303122098	1066.40002441406
1688.34098710457	1061.40002441406
1688.94886302101	1065
1689.55665897772	1065.40002441406
1690.16437498208	1070
1690.77201104152	1064.59997558594
1691.37956716342	1062.40002441406
1691.9870433552	1058
1692.59443962426	1062.40002441406
1693.20175597801	1056.59997558594
1693.80899242384	1058.19995117188
1694.41614896916	1069.80004882813
1695.02322562138	1070.19995117188
1695.63022238789	1064.40002441406
1696.23713927609	1068
1696.8439762934	1064.59997558594
1697.4507334472	1066.40002441406
1698.05741074491	1064.40002441406
1698.66400819391	1065
1699.27052580161	1065
1699.87696357542	1058.59997558594
1700.48332152272	1055.80004882813
1701.08959965092	1056.40002441406
1701.69579796742	1049.80004882813
1702.30191647962	1052.40002441406
1702.90795519491	1048.80004882813
1703.51391412069	1053.19995117188
1704.11979326437	1043.40002441406
1704.72559263332	1051.40002441406
1705.33131223496	1057
1705.93695207668	1053.40002441406
1706.54251216588	1048
1707.14799250994	1047
1707.75339311628	1052.19995117188
1708.35871399227	1044.59997558594
1708.96395514532	1048.59997558594
1709.56911658282	1042.80004882813
