634.948122577771	1508.40002441406
635.690341530823	1531.59997558594
636.43246851086	1520.19995117188
637.174503525845	1522.80004882813
637.916446583745	1520.40002441406
638.658297692538	1512
639.400056860179	1503
640.141724094637	1504
640.883299403885	1500
641.62478279588	1510
642.366174278594	1503.19995117188
643.107473859989	1508.80004882813
643.848681548029	1493
644.589797350679	1508.59997558594
645.330821275901	1493.40002441406
646.071753331665	1491.19995117188
646.812593525922	1469.40002441406
647.553341866646	1459.19995117188
648.293998361798	1469.80004882813
649.03456301933	1457.40002441406
649.775035847216	1463.80004882813
650.515416853409	1479
651.255706045874	1483
651.995903432568	1479.19995117188
652.736009021453	1474
653.476022820486	1472.59997558594
654.215944837629	1476.19995117188
654.955775080842	1484.40002441406
655.695513558081	1495.59997558594
656.435160277301	1488.19995117188
657.174715246465	1503.19995117188
657.914178473527	1505.40002441406
658.653549966449	1507.80004882813
659.392829733176	1523.19995117188
660.132017781678	1511.19995117188
660.871114119901	1523.59997558594
661.610118755803	1524.80004882813
662.349031697343	1507.40002441406
663.087852952468	1517.40002441406
663.826582529139	1523.80004882813
664.565220435305	1514.40002441406
665.30376667892	1508.80004882813
666.04222126794	1520.40002441406
666.780584210316	1528.59997558594
667.518855514	1524.80004882813
668.25703518694	1531.80004882813
668.995123237096	1532.80004882813
669.733119672413	1533.80004882813
670.471024500842	1531.40002441406
671.208837730333	1524.59997558594
671.946559368839	1510.59997558594
672.684189424308	1509.80004882813
673.421727904689	1513.59997558594
674.159174817929	1523.40002441406
674.896530171977	1513.59997558594
675.633793974786	1520.40002441406
676.370966234295	1512.40002441406
677.108046958461	1518.40002441406
677.845036155219	1537.80004882813
678.581933832528	1526.80004882813
679.318739998323	1527.19995117188
680.055454660558	1533.59997558594
680.792077827172	1541
681.528609506116	1531.40002441406
682.265049705331	1543.19995117188
683.001398432759	1538.59997558594
683.737655696349	1550.19995117188
684.47382150404	1550.59997558594
685.20989586378	1532.40002441406
685.945878783503	1539
686.68177027116	1540.19995117188
687.417570334688	1543.59997558594
688.153278982032	1520.19995117188
688.888896221129	1524.40002441406
689.624422059921	1512.80004882813
690.359856506349	1537.59997558594
691.095199568354	1518.80004882813
691.830451253874	1505
692.565611570844	1508.59997558594
693.300680527212	1510.59997558594
694.03565813091	1513.40002441406
694.770544389877	1504.40002441406
695.505339312053	1504.40002441406
696.240042905372	1512
696.974655177772	1525.59997558594
697.70917613719	1526.59997558594
698.443605791561	1536.59997558594
699.177944148826	1519.80004882813
699.912191216909	1499
700.646347003755	1495.80004882813
701.380411517295	1506.40002441406
702.114384765465	1513.19995117188
702.848266756195	1528.40002441406
703.582057497421	1533.40002441406
704.315756997074	1534
705.049365263089	1545
705.782882303399	1531.80004882813
706.516308125936	1530.40002441406
707.249642738626	1542
707.982886149403	1551
708.716038366204	1559.59997558594
709.449099396949	1540.59997558594
710.182069249577	1556
710.914947932009	1538.80004882813
711.647735452181	1529.40002441406
712.380431818022	1521.40002441406
713.113037037454	1511.40002441406
713.845551118411	1518
714.577974068818	1523.80004882813
715.310305896604	1540.40002441406
716.042546609694	1551.19995117188
716.774696216013	1535
717.506754723493	1536
718.238722140053	1522.40002441406
718.970598473624	1530.59997558594
719.702383732127	1525.80004882813
720.43407792349	1535.40002441406
721.165681055634	1544.19995117188
721.897193136486	1547
722.628614173966	1537.59997558594
723.359944175997	1538.80004882813
724.091183150505	1525.59997558594
724.822331105412	1525.59997558594
725.553388048638	1527.59997558594
726.284353988106	1540.80004882813
727.015228931734	1545.40002441406
727.746012887449	1547.19995117188
728.476705863162	1541.80004882813
729.207307866803	1536.40002441406
729.937818906289	1546.80004882813
730.668238989535	1525.80004882813
731.398568124459	1525.40002441406
732.128806318986	1525.19995117188
732.858953581034	1520
733.589009918514	1511.19995117188
734.318975339348	1510.19995117188
735.048849851452	1496.59997558594
735.778633462744	1508
736.508326181137	1494.80004882813
737.237928014549	1512.80004882813
737.967438970897	1548.19995117188
738.696859058095	1549.59997558594
739.426188284054	1556
740.155426656692	1565.59997558594
740.884574183922	1554
741.613630873659	1556.59997558594
742.342596733815	1547.80004882813
743.071471772302	1539.40002441406
743.800255997034	1533.19995117188
744.528949415921	1531.59997558594
745.257552036877	1534.19995117188
745.986063867811	1533.80004882813
746.714484916638	1530.59997558594
747.442815191261	1528.40002441406
748.171054699597	1531.19995117188
748.899203449554	1542.80004882813
749.627261449039	1541.80004882813
750.355228705966	1547.80004882813
751.083105228239	1546.80004882813
751.810891023765	1558
752.538586100459	1556.59997558594
753.266190466218	1556.80004882813
753.99370412896	1551
754.721127096582	1542.40002441406
755.448459377	1535.59997558594
756.175700978114	1545.80004882813
756.902851907828	1537
757.629912174055	1546.59997558594
758.356881784688	1558.80004882813
759.083760747639	1552.59997558594
759.810549070817	1557.80004882813
760.537246762113	1547
761.263853829442	1554.59997558594
761.990370280698	1549.40002441406
762.716796123791	1553.59997558594
763.443131366618	1571.59997558594
764.169376017082	1570.19995117188
764.895530083085	1569.80004882813
765.621593572527	1576
766.347566493312	1574.59997558594
767.073448853336	1577.19995117188
767.799240660502	1583.59997558594
768.524941922707	1594.80004882813
769.250552647854	1599.80004882813
769.976072843836	1621.80004882813
770.701502518551	1627
771.426841679905	1628.40002441406
772.152090335793	1638
772.877248494107	1649.59997558594
773.602316162747	1644.80004882813
774.327293349609	1669
775.052180062592	1647.80004882813
775.776976309589	1644.40002441406
776.501682098496	1644.59997558594
777.226297437206	1631.40002441406
777.950822333616	1627.40002441406
778.675256795621	1620
779.399600831111	1606.80004882813
780.123854447983	1597.80004882813
780.84801765413	1589.40002441406
781.572090457441	1587.59997558594
782.296072865811	1562.19995117188
783.019964887131	1563.19995117188
783.743766529297	1574.40002441406
784.467477800194	1562.80004882813
785.191098707719	1565.80004882813
785.914629259756	1569
786.638069464194	1567
787.361419328932	1564.59997558594
788.084678861852	1566.19995117188
788.807848070845	1558.19995117188
789.530926963798	1546.40002441406
790.253915548602	1551.19995117188
790.976813833144	1546
791.699621825307	1533
792.422339532986	1521.80004882813
793.144966964061	1523.59997558594
793.86750412642	1538.40002441406
794.589951027946	1525.59997558594
795.312307676536	1539.40002441406
796.03457408006	1532.19995117188
796.756750246417	1538
797.478836183477	1531.19995117188
798.200831899137	1529.40002441406
798.92273740127	1550
799.644552697769	1547.80004882813
800.36627779651	1547.40002441406
801.087912705374	1547.19995117188
801.809457432251	1554
802.530911985017	1550.80004882813
803.252276371558	1527.59997558594
803.973550599748	1532
804.694734677472	1559
805.415828612611	1571.19995117188
806.136832413045	1564.40002441406
806.857746086646	1565.19995117188
807.578569641305	1569.19995117188
808.299303084892	1571.59997558594
809.019946425289	1575.19995117188
809.740499670372	1573.40002441406
810.460962828022	1559.59997558594
811.181335906114	1557.80004882813
811.901618912524	1548.40002441406
812.621811855131	1563.40002441406
813.341914741809	1541.59997558594
814.061927580433	1554.59997558594
814.781850378881	1554.40002441406
815.501683145025	1570.40002441406
816.221425886743	1565
816.941078611903	1574
817.660641328387	1565.19995117188
818.380114044065	1562.59997558594
819.099496766808	1560
819.818789504492	1560
820.53799226499	1554.40002441406
821.257105056168	1540.19995117188
821.976127885904	1533.40002441406
822.695060762064	1540.80004882813
823.413903692525	1534.19995117188
824.132656685151	1533.59997558594
824.851319747817	1542.40002441406
825.569892888388	1533.40002441406
826.288376114739	1528.19995117188
827.006769434737	1528.19995117188
827.725072856249	1524.19995117188
828.443286387142	1526.80004882813
829.161410035285	1523.59997558594
829.87944380855	1529
830.597387714798	1523.80004882813
831.315241761898	1531
832.033005957715	1541.80004882813
832.750680310119	1545.40002441406
833.468264826969	1529.40002441406
834.18575951614	1552.19995117188
834.903164385486	1538.59997558594
835.620479442878	1536.19995117188
836.337704696181	1552.19995117188
837.054840153255	1542.59997558594
837.771885821962	1547.19995117188
838.488841710172	1532.40002441406
839.20570782574	1544.59997558594
839.922484176531	1546.80004882813
840.639170770409	1552
841.355767615231	1552.59997558594
842.072274718864	1551.59997558594
842.788692089164	1564
843.505019733993	1534.40002441406
844.221257661209	1546.80004882813
844.937405878676	1526.59997558594
845.65346439425	1517.80004882813
846.369433215789	1527.59997558594
847.085312351156	1531.40002441406
847.801101808205	1533.40002441406
848.516801594793	1527.59997558594
849.232411718781	1528
849.947932188021	1534.80004882813
850.663363010376	1533.19995117188
851.378704193698	1535.40002441406
852.093955745842	1520.59997558594
852.809117674669	1531.80004882813
853.524189988028	1537.80004882813
854.239172693778	1536
854.954065799768	1517.80004882813
855.668869313857	1530.59997558594
856.383583243899	1510.59997558594
857.098207597743	1520.40002441406
857.812742383246	1535.80004882813
858.527187608255	1511.40002441406
859.241543280628	1516.59997558594
859.955809408218	1536.19995117188
860.669985998868	1511.59997558594
861.384073060437	1519.80004882813
862.098070600772	1514.80004882813
862.811978627724	1510.40002441406
863.52579714914	1509.59997558594
864.239526172873	1522.19995117188
864.953165706776	1499.59997558594
865.666715758687	1500.59997558594
866.380176336464	1512.40002441406
867.093547447951	1500.59997558594
867.806829100996	1496.19995117188
868.520021303444	1506
869.233124063149	1504.80004882813
869.94613738795	1510
870.659061285693	1511.19995117188
871.37189576423	1510.59997558594
872.084640831403	1526.80004882813
872.797296495057	1525.80004882813
873.509862763039	1512.40002441406
874.22233964319	1515.40002441406
874.934727143353	1501.59997558594
875.647025271374	1505.80004882813
876.359234035097	1495
877.071353442361	1483.59997558594
877.783383501015	1502.40002441406
878.495324218895	1494.40002441406
879.207175603844	1507
879.918937663705	1507
880.630610406318	1496.59997558594
881.342193839524	1500.80004882813
882.053687971161	1504.59997558594
882.765092809069	1483.19995117188
883.476408361091	1497.40002441406
884.187634635066	1486.80004882813
884.898771638828	1498.40002441406
885.609819380221	1502.59997558594
886.320777867076	1510.19995117188
887.031647107236	1518.80004882813
887.742427108536	1514.80004882813
888.453117878816	1517.80004882813
889.16371942591	1513.59997558594
889.874231757652	1502.19995117188
890.584654881883	1494.59997558594
891.294988806434	1489.40002441406
892.005233539141	1486.19995117188
892.715389087837	1496.80004882813
893.42545546036	1498.19995117188
894.135432664543	1510
894.845320708216	1515
895.555119599216	1515
896.264829345375	1515.40002441406
896.974449954526	1514.59997558594
897.683981434496	1509.40002441406
898.393423793125	1509.59997558594
899.102777038235	1518.40002441406
899.812041177664	1521.80004882813
900.521216219239	1530.19995117188
901.230302170793	1540.80004882813
901.939299040155	1528.80004882813
902.64820683515	1530.19995117188
903.357025563612	1529
904.065755233368	1519.40002441406
904.774395852247	1496
905.482947428076	1507.19995117188
906.191409968682	1496.80004882813
906.899783481897	1515.19995117188
907.608067975538	1511
908.316263457443	1506
909.02436993543	1511.19995117188
909.732387417327	1523.19995117188
910.440315910959	1511.40002441406
911.148155424154	1505
911.855905964731	1484
912.563567540521	1481.80004882813
913.271140159339	1483.59997558594
913.978623829017	1489.59997558594
914.686018557374	1496.59997558594
915.393324352237	1505.80004882813
916.100541221421	1495.80004882813
916.807669172752	1508.80004882813
917.514708214054	1514.40002441406
918.221658353142	1504.59997558594
918.928519597843	1503.80004882813
919.635291955976	1499
920.341975435358	1511.40002441406
921.048570043813	1508.40002441406
921.75507578916	1514
922.461492679212	1519.19995117188
923.167820721795	1524.19995117188
923.874059924726	1520.80004882813
924.58021029582	1522.19995117188
925.286271842893	1530.59997558594
925.992244573769	1517.40002441406
926.698128496262	1521.80004882813
927.403923618184	1532.59997558594
928.109629947355	1534
928.815247491593	1539.80004882813
929.520776258708	1526.40002441406
930.226216256519	1519.19995117188
930.931567492841	1522.19995117188
931.636829975482	1500.19995117188
932.342003712263	1491.40002441406
933.047088710995	1497
933.752084979491	1493.40002441406
934.456992525564	1489
935.161811357024	1481.59997558594
935.866541481688	1488.40002441406
936.571182907363	1485
937.275735641861	1486.80004882813
937.980199692995	1489.19995117188
938.684575068572	1487
939.388861776411	1484.19995117188
940.093059824311	1491.40002441406
940.797169220085	1496.40002441406
941.501189971544	1481.80004882813
942.205122086495	1496
942.908965572751	1495.40002441406
943.612720438111	1488.40002441406
944.316386690391	1484
945.019964337391	1490
945.723453386924	1490.80004882813
946.426853846795	1490.19995117188
947.130165724808	1489
947.83338902877	1485.59997558594
948.536523766488	1495.40002441406
949.239569945764	1473.19995117188
949.942527574402	1485
950.64539666021	1467
951.348177210993	1473.19995117188
952.050869234548	1481
952.753472738683	1476.40002441406
953.455987731199	1487.80004882813
954.158414219898	1482.40002441406
954.860752212587	1477
955.563001717061	1481.19995117188
956.265162741124	1485
956.967235292576	1491.59997558594
957.669219379224	1485.80004882813
958.371115008857	1492
959.072922189283	1493.59997558594
959.774640928301	1476.40002441406
960.476271233708	1501.59997558594
961.177813113301	1498
961.879266574882	1515.19995117188
962.580631626248	1490.40002441406
963.281908275194	1500.59997558594
963.98309652952	1496
964.684196397022	1491.19995117188
965.3852078855	1480.19995117188
966.086131002745	1478.19995117188
966.786965756555	1483.19995117188
967.487712154726	1490.40002441406
968.188370205055	1488
968.888939915331	1493
969.589421293352	1488.40002441406
970.289814346909	1461
970.990119083801	1466.59997558594
971.690335511819	1465.59997558594
972.39046363875	1481.59997558594
973.090503472398	1485.19995117188
973.790455020545	1466.59997558594
974.490318290987	1475.40002441406
975.190093291516	1477
975.889780029923	1474
976.589378513998	1467.59997558594
977.288888751527	1477
977.988310750308	1480
978.687644518122	1480.80004882813
979.386890062767	1480
980.086047392025	1466.80004882813
980.785116513689	1450.40002441406
981.484097435542	1454.19995117188
982.182990165377	1457.80004882813
982.88179471098	1453.59997558594
983.580511080137	1470.19995117188
984.279139280632	1464.59997558594
984.977679320253	1490.40002441406
985.67613120679	1494.80004882813
986.374494948027	1499.19995117188
987.072770551745	1487.80004882813
987.770958025731	1495
988.469057377772	1473.80004882813
989.167068615649	1480
989.864991747145	1467.40002441406
990.562826780047	1466.59997558594
991.260573722134	1469
991.958232581195	1459.59997558594
992.655803365003	1437.19995117188
993.353286081346	1452.40002441406
994.050680738006	1465.59997558594
994.74798734276	1456.40002441406
995.44520590339	1462
996.142336427681	1471.59997558594
996.839378923407	1452.59997558594
997.536333398348	1462.80004882813
998.233199860289	1466.59997558594
998.929978317004	1472.59997558594
999.626668776274	1466
1000.32327124587	1458
1001.01978573359	1467
1001.71621224718	1464.80004882813
1002.41255079445	1463.59997558594
1003.10880138315	1459.59997558594
1003.80496402107	1455.40002441406
1004.50103871599	1461.19995117188
1005.19702547567	1461
1005.8929243079	1458
1006.58873522045	1454.19995117188
1007.2844582211	1444.19995117188
1007.98009331761	1451.40002441406
1008.67564051776	1446.19995117188
1009.37109982933	1435.80004882813
1010.06647126009	1440.59997558594
1010.7617548178	1438.40002441406
1011.45695051026	1458.80004882813
1012.15205834522	1487.19995117188
1012.84707833045	1487.19995117188
1013.54201047373	1479.80004882813
1014.23685478284	1473
1014.93161126553	1478
1015.62627992959	1479.19995117188
1016.32086078277	1468.40002441406
1017.01535383285	1485.40002441406
1017.70975908761	1466.80004882813
1018.40407655479	1457.19995117188
1019.09830624219	1449.19995117188
1019.79244815755	1454.40002441406
1020.48650230866	1453.59997558594
1021.18046870328	1439
1021.87434734917	1425.80004882813
1022.56813825411	1445.19995117188
1023.26184142584	1444.40002441406
1023.95545687216	1441.80004882813
1024.64898460082	1434.40002441406
1025.34242461957	1454.19995117188
1026.0357769362	1443.59997558594
1026.72904155846	1454
1027.42221849412	1465.59997558594
1028.11530775094	1467.59997558594
1028.80830933668	1457.59997558594
1029.50122325911	1455.40002441406
1030.19404952599	1446.40002441406
1030.88678814508	1453.59997558594
1031.57943912414	1455
1032.27200247093	1449.80004882813
1032.96447819323	1444
1033.65686629878	1445
1034.34916679534	1434.80004882813
1035.04137969068	1452.40002441406
1035.73350499256	1452.40002441406
1036.42554270874	1445
1037.11749284697	1446.40002441406
1037.80935541501	1449.80004882813
1038.50113042062	1454.19995117188
1039.19281787156	1455.40002441406
1039.88441777559	1448
1040.57593014046	1460.80004882813
1041.26735497393	1450
1041.95869228376	1453.80004882813
1042.6499420777	1453.40002441406
1043.3411043635	1447.40002441406
1044.03217914893	1438.40002441406
1044.72316644174	1439.59997558594
1045.41406624968	1436.80004882813
1046.1048785805	1426
1046.79560344197	1427.19995117188
1047.48624084182	1429.40002441406
1048.17679078783	1430.40002441406
1048.86725328774	1418.80004882813
1049.55762834929	1443.59997558594
1050.24791598025	1442.19995117188
1050.93811618837	1448.40002441406
1051.62822898139	1452.80004882813
1052.31825436707	1449.59997558594
1053.00819235315	1442.19995117188
1053.6980429474	1446.40002441406
1054.38780615755	1440.40002441406
1055.07748199136	1443
1055.76707045658	1438.80004882813
1056.45657156095	1427.19995117188
1057.14598531222	1416.40002441406
1057.83531171814	1431.59997558594
1058.52455078646	1437
1059.21370252494	1432.59997558594
1059.90276694129	1433.40002441406
1060.5917440433	1440.80004882813
1061.28063383868	1437
1061.9694363352	1427.40002441406
1062.65815154059	1427.80004882813
1063.34677946261	1414.40002441406
1064.03532010899	1418
1064.72377348748	1405.40002441406
1065.41213960583	1405.19995117188
1066.10041847177	1415
1066.78861009306	1427.40002441406
1067.47671447743	1440.40002441406
1068.16473163263	1442.59997558594
1068.85266156639	1432.59997558594
1069.54050428647	1433.40002441406
1070.2282598006	1431.40002441406
1070.91592811652	1433.80004882813
1071.60350924198	1437.19995117188
1072.29100318471	1439.80004882813
1072.97840995245	1416.40002441406
1073.66572955295	1425.80004882813
1074.35296199394	1423.59997558594
1075.04010728316	1425
1075.72716542836	1427.59997558594
1076.41413643726	1426.40002441406
1077.10102031761	1427
1077.78781707715	1421
1078.4745267236	1416.80004882813
1079.16114926471	1429
1079.84768470822	1423.80004882813
1080.53413306185	1411.19995117188
1081.22049433336	1424.80004882813
1081.90676853046	1419.59997558594
1082.5929556609	1420
1083.27905573241	1411.80004882813
1083.96506875272	1421.59997558594
1084.65099472957	1416.19995117188
1085.3368336707	1416.40002441406
1086.02258558383	1424.80004882813
1086.70825047669	1430.19995117188
1087.39382835703	1431.80004882813
1088.07931923257	1427.59997558594
1088.76472311104	1426
1089.45004000018	1419.40002441406
1090.13526990771	1412.59997558594
1090.82041284137	1419.80004882813
1091.50546880889	1431.80004882813
1092.19043781799	1439
1092.87531987642	1437.19995117188
1093.56011499188	1420
1094.24482317212	1419.19995117188
1094.92944442486	1414.40002441406
1095.61397875783	1406
1096.29842617876	1403.19995117188
1096.98278669537	1394.40002441406
1097.6670603154	1410.40002441406
1098.35124704656	1411.59997558594
1099.03534689659	1399.40002441406
1099.71935987322	1399.40002441406
1100.40328598416	1399.80004882813
1101.08712523713	1410.59997558594
1101.77087763988	1400.59997558594
1102.45454320012	1406.80004882813
1103.13812192557	1404.19995117188
1103.82161382396	1405.80004882813
1104.50501890301	1401.59997558594
1105.18833717045	1403.59997558594
1105.87156863399	1420.59997558594
1106.55471330137	1423.19995117188
1107.2377711803	1426.19995117188
1107.9207422785	1423.19995117188
1108.60362660369	1420.19995117188
1109.2864241636	1417.59997558594
1109.96913496594	1399.40002441406
1110.65175901844	1412.40002441406
1111.33429632882	1389
1112.01674690479	1392.80004882813
1112.69911075408	1383.40002441406
1113.38138788439	1399.80004882813
1114.06357830346	1409.59997558594
1114.745682019	1413.59997558594
1115.42769903872	1408
1116.10962937035	1407.19995117188
1116.7914730216	1413.40002441406
1117.47323000018	1413.80004882813
1118.15490031382	1419.19995117188
1118.83648397022	1412.19995117188
1119.51798097712	1411.40002441406
1120.1993913422	1405.40002441406
1120.88071507321	1398
1121.56195217784	1401
1122.24310266381	1403
1122.92416653884	1400.19995117188
1123.60514381064	1398.80004882813
1124.28603448692	1406.59997558594
1124.9668385754	1413.59997558594
1125.64755608378	1407.40002441406
1126.32818701978	1408.80004882813
1127.00873139111	1411.59997558594
1127.68918920548	1417.80004882813
1128.3695604706	1418.19995117188
1129.04984519419	1430.80004882813
1129.73004338394	1410.59997558594
1130.41015504758	1425.59997558594
1131.09018019281	1423
1131.77011882734	1428.40002441406
1132.44997095888	1413.19995117188
1133.12973659514	1421.40002441406
1133.80941574381	1412.80004882813
1134.48900841263	1412.19995117188
1135.16851460927	1407.80004882813
1135.84793434147	1398.59997558594
1136.52726761692	1414.19995117188
1137.20651444333	1416.59997558594
1137.8856748284	1434
1138.56474877984	1427.40002441406
1139.24373630536	1413
1139.92263741265	1410
1140.60145210943	1420.40002441406
1141.28018040339	1419.80004882813
1141.95882230225	1420.80004882813
1142.6373778137	1411.80004882813
1143.31584694545	1404
1143.99422970519	1406.59997558594
1144.67252610064	1401
1145.35073613949	1396.19995117188
1146.02885982944	1399.40002441406
1146.7068971782	1388.59997558594
1147.38484819347	1395.59997558594
1148.06271288294	1401.59997558594
1148.74049125432	1400.40002441406
1149.41818331531	1381.59997558594
1150.0957890736	1376.19995117188
1150.77330853689	1376
1151.45074171289	1371.19995117188
1152.12808860928	1385.59997558594
1152.80534923378	1373.80004882813
1153.48252359407	1385.40002441406
1154.15961169786	1394.19995117188
1154.83661355283	1390.59997558594
1155.51352916669	1387.80004882813
1156.19035854713	1378.59997558594
1156.86710170185	1381.19995117188
1157.54375863855	1379
1158.22032936491	1379
1158.89681388863	1374.40002441406
1159.57321221741	1377.59997558594
1160.24952435894	1376.59997558594
1160.92575032092	1362.40002441406
1161.60189011103	1370.59997558594
1162.27794373697	1377.40002441406
1162.95391120644	1371.19995117188
1163.62979252712	1369.80004882813
1164.3055877067	1375.80004882813
1164.98129675288	1378
1165.65691967336	1396.40002441406
1166.33245647581	1385.40002441406
1167.00790716792	1382.19995117188
1167.6832717574	1392.40002441406
1168.35855025193	1388.40002441406
1169.0337426592	1395.40002441406
1169.70884898689	1397.40002441406
1170.3838692427	1398.19995117188
1171.05880343431	1400
1171.73365156941	1390.19995117188
1172.40841365569	1399.19995117188
1173.08308970083	1382.80004882813
1173.75767971253	1402.19995117188
1174.43218369847	1404.59997558594
1175.10660166633	1400.59997558594
1175.7809336238	1400.19995117188
1176.45517957857	1398
1177.12933953832	1398.80004882813
1177.80341351073	1397.40002441406
1178.47740150349	1377.80004882813
1179.15130352429	1382.80004882813
1179.8251195808	1370.80004882813
1180.49884968071	1382.40002441406
1181.1724938317	1375.19995117188
1181.84605204145	1368.40002441406
1182.51952431766	1376.59997558594
1183.19291066799	1366.80004882813
1183.86621110013	1386
1184.53942562176	1396.59997558594
1185.21255424057	1402.59997558594
1185.88559696422	1407.40002441406
1186.55855380041	1407.80004882813
1187.2314247568	1412.40002441406
1187.90420984109	1416
1188.57690906095	1423.80004882813
1189.24952242405	1423.80004882813
1189.92204993808	1403.59997558594
1190.59449161071	1417.19995117188
1191.26684744962	1399
1191.93911746249	1410.19995117188
1192.61130165699	1405.59997558594
1193.28340004081	1393.59997558594
1193.95541262161	1396.19995117188
1194.62733940707	1389.59997558594
1195.29918040487	1396.59997558594
1195.97093562269	1399
1196.64260506819	1383.80004882813
1197.31418874905	1395.40002441406
1197.98568667295	1386.59997558594
1198.65709884755	1399
1199.32842528053	1413.40002441406
1199.99966597957	1405.19995117188
1200.67082095234	1394
1201.3418902065	1401.40002441406
1202.01287374974	1402.19995117188
1202.68377158971	1408.40002441406
1203.3545837341	1401.19995117188
1204.02531019057	1402.19995117188
1204.6959509668	1405.59997558594
1205.36650607045	1404.40002441406
1206.03697550919	1392
1206.70735929069	1384.40002441406
1207.37765742263	1375
1208.04786991266	1377
1208.71799676846	1368.19995117188
1209.38803799769	1363
1210.05799360803	1366.40002441406
1210.72786360714	1370.80004882813
1211.39764800268	1364.80004882813
1212.06734680233	1364.40002441406
1212.73696001375	1374.19995117188
1213.4064876446	1374.40002441406
1214.07592970255	1379.59997558594
1214.74528619526	1389.59997558594
1215.4145571304	1389.59997558594
1216.08374251564	1379.19995117188
1216.75284235863	1365
1217.42185666704	1373.40002441406
1218.09078544854	1367
1218.75962871078	1377.59997558594
1219.42838646143	1384.19995117188
1220.09705870816	1378.40002441406
1220.76564545861	1374.19995117188
1221.43414672046	1376
1222.10256250136	1396.40002441406
1222.77089280898	1381.59997558594
1223.43913765098	1386.40002441406
1224.107297035	1375.80004882813
1224.77537096873	1377
1225.44335945981	1370.19995117188
1226.1112625159	1354.40002441406
1226.77908014467	1341
1227.44681235376	1346.80004882813
1228.11445915085	1349.80004882813
1228.78202054357	1359.80004882813
1229.44949653961	1367
1230.11688714659	1357.19995117188
1230.7841923722	1362
1231.45141222407	1347.80004882813
1232.11854670988	1347.80004882813
1232.78559583726	1342.19995117188
1233.45255961388	1330.19995117188
1234.1194380474	1330.40002441406
1234.78623114546	1335.40002441406
1235.45293891572	1327.40002441406
1236.11956136583	1327.19995117188
1236.78609850345	1332.19995117188
1237.45255033623	1352.19995117188
1238.11891687182	1344.19995117188
1238.78519811788	1343
1239.45139408205	1348.19995117188
1240.11750477198	1355.80004882813
1240.78353019534	1369.80004882813
1241.44947035976	1348.40002441406
1242.11532527291	1355
1242.78109494242	1350.19995117188
1243.44677937595	1355.40002441406
1244.11237858115	1358.80004882813
1244.77789256567	1365.59997558594
1245.44332133715	1353.80004882813
1246.10866490325	1351.40002441406
1246.7739232716	1350
1247.43909644987	1343.19995117188
1248.10418444569	1345
1248.76918726671	1341.80004882813
1249.43410492059	1339.59997558594
1250.09893741496	1339.80004882813
1250.76368475747	1331.80004882813
1251.42834695576	1334.80004882813
1252.09292401749	1336.80004882813
1252.75741595029	1339.40002441406
1253.42182276182	1333.80004882813
1254.08614445971	1342
1254.75038105161	1341.19995117188
1255.41453254515	1332.40002441406
1256.07859894799	1339.59997558594
1256.74258026777	1326
1257.40647651213	1312.19995117188
1258.0702876887	1321.40002441406
1258.73401380514	1324.19995117188
1259.39765486908	1324.40002441406
1260.06121088817	1324.59997558594
1260.72468187004	1339.19995117188
1261.38806782233	1342
1262.05136875269	1348.59997558594
1262.71458466875	1344.19995117188
1263.37771557815	1355.19995117188
1264.04076148854	1354.40002441406
1264.70372240753	1362.40002441406
1265.3665983428	1357.40002441406
1266.02938930195	1349
1266.69209529263	1352.40002441406
1267.35471632249	1354
1268.01725239914	1349.59997558594
1268.67970353024	1327.80004882813
1269.34206972342	1328
1270.00435098631	1330.19995117188
1270.66654732655	1336.40002441406
1271.32865875177	1335
1271.9906852696	1328.40002441406
1272.65262688768	1336.19995117188
1273.31448361365	1329.59997558594
1273.97625545514	1324.40002441406
1274.63794241978	1327.59997558594
1275.2995445152	1331
1275.96106174903	1336
1276.62249412892	1342.80004882813
1277.28384166248	1343.80004882813
1277.94510435735	1341.59997558594
1278.60628222116	1351
1279.26737526155	1336.59997558594
1279.92838348613	1335
1280.58930690255	1333
1281.25014551842	1337.19995117188
1281.91089934139	1340.80004882813
1282.57156837907	1334.19995117188
1283.2321526391	1349
1283.89265212911	1345
1284.55306685671	1336.59997558594
1285.21339682955	1337.59997558594
1285.87364205525	1341.80004882813
1286.53380254142	1344.80004882813
1287.19387829571	1338.59997558594
1287.85386932573	1335.59997558594
1288.51377563911	1336
1289.17359724348	1342.19995117188
1289.83333414646	1342
1290.49298635567	1341
1291.15255387874	1338.59997558594
1291.8120367233	1339
1292.47143489696	1344.59997558594
1293.13074840736	1325.19995117188
1293.7899772621	1346.40002441406
1294.44912146882	1351.80004882813
1295.10818103513	1339.40002441406
1295.76715596866	1340.59997558594
1296.42604627704	1343.19995117188
1297.08485196787	1337.59997558594
1297.74357304878	1338.80004882813
1298.4022095274	1335.40002441406
1299.06076141134	1335.80004882813
1299.71922870821	1331
1300.37761142565	1336
1301.03590957126	1353.40002441406
1301.69412315268	1348.40002441406
1302.3522521775	1355.59997558594
1303.01029665336	1357.59997558594
1303.66825658787	1360.19995117188
1304.32613198865	1370.80004882813
1304.98392286332	1357
1305.64162921948	1365.40002441406
1306.29925106476	1362.19995117188
1306.95678840677	1356.19995117188
1307.61424125312	1351.59997558594
1308.27160961145	1357.59997558594
1308.92889348934	1360.19995117188
1309.58609289443	1352.80004882813
1310.24320783432	1358.80004882813
1310.90023831664	1353.19995117188
1311.55718434898	1353.19995117188
1312.21404593897	1343.40002441406
1312.87082309421	1353.19995117188
1313.52751582233	1350.80004882813
1314.18412413092	1343
1314.84064802761	1353.59997558594
1315.49708752	1357
1316.1534426157	1357.19995117188
1316.80971332233	1361.80004882813
1317.46589964749	1351.40002441406
1318.1220015988	1353.59997558594
1318.77801918386	1356.19995117188
1319.43395241028	1363.40002441406
1320.08980128567	1365
1320.74556581764	1361.59997558594
1321.4012460138	1355.59997558594
1322.05684188176	1351.19995117188
1322.71235342911	1345.80004882813
1323.36778066347	1349.59997558594
1324.02312359245	1335
1324.67838222365	1327
1325.33355656468	1327.40002441406
1325.98864662314	1328.59997558594
1326.64365240663	1319.59997558594
1327.29857392277	1324.40002441406
1327.95341117915	1319.80004882813
1328.60816418339	1332.80004882813
1329.26283294308	1342.40002441406
1329.91741746582	1323.19995117188
1330.57191775923	1325.40002441406
1331.2263338309	1321.59997558594
1331.88066568843	1326.59997558594
1332.53491333943	1328.19995117188
1333.1890767915	1328.80004882813
1333.84315605224	1334.80004882813
1334.49715112925	1328.59997558594
1335.15106203013	1326.59997558594
1335.80488876249	1332.40002441406
1336.45863133391	1325
1337.112289752	1330.19995117188
1337.76586402437	1325.40002441406
1338.4193541586	1326
1339.0727601623	1324.59997558594
1339.72608204306	1333.40002441406
1340.37931980849	1340
1341.03247346617	1338.19995117188
1341.68554302372	1330.19995117188
1342.33852848871	1316.80004882813
1342.99142986876	1322.59997558594
1343.64424717145	1321.59997558594
1344.29698040438	1329.59997558594
1344.94962957515	1324.80004882813
1345.60219469135	1329.59997558594
1346.25467576058	1337.40002441406
1346.90707279042	1334.59997558594
1347.55938578848	1333
1348.21161476235	1320.80004882813
1348.86375971962	1321.80004882813
1349.51582066787	1333.80004882813
1350.16779761472	1341.40002441406
1350.81969056774	1341.59997558594
1351.47149953453	1346.19995117188
1352.12322452269	1350.19995117188
1352.77486553979	1350
1353.42642259344	1346.40002441406
1354.07789569122	1358.19995117188
1354.72928484072	1360.19995117188
1355.38059004953	1369.19995117188
1356.03181132525	1369
1356.68294867545	1378.59997558594
1357.33400210773	1381.80004882813
1357.98497162968	1379
1358.63585724889	1381
1359.28665897294	1376.59997558594
1359.93737680942	1379.80004882813
1360.58801076591	1388.59997558594
1361.23856085001	1392.59997558594
1361.88902706929	1412.40002441406
1362.53940943135	1436.40002441406
1363.18970794377	1426.80004882813
1363.83992261413	1429.80004882813
1364.49005345003	1425.80004882813
1365.14010045904	1434
1365.79006364874	1426.40002441406
1366.43994302673	1408.80004882813
1367.08973860058	1402.59997558594
1367.73945037788	1386
1368.38907836621	1390.80004882813
1369.03862257315	1365.40002441406
1369.68808300629	1355.40002441406
1370.3374596732	1347.19995117188
1370.98675258148	1338.80004882813
1371.63596173868	1340.40002441406
1372.28508715241	1339.19995117188
1372.93412883024	1335
1373.58308677974	1330.80004882813
1374.2319610085	1319.80004882813
1374.8807515241	1318.80004882813
1375.52945833412	1311
1376.17808144612	1311.40002441406
1376.82662086771	1302.59997558594
1377.47507660644	1309.59997558594
1378.12344866989	1310.19995117188
1378.77173706565	1304.40002441406
1379.41994180129	1310.19995117188
1380.06806288439	1300.80004882813
1380.71610032252	1305
1381.36405412326	1304.80004882813
1382.01192429419	1303
1382.65971084287	1311.59997558594
1383.30741377688	1298.80004882813
1383.95503310381	1299.59997558594
1384.60256883121	1297.19995117188
1385.25002096667	1307
1385.89738951775	1299.59997558594
1386.54467449204	1308.80004882813
1387.19187589709	1315.59997558594
1387.8389937405	1305.19995117188
1388.48602802982	1306
1389.13297877262	1305.19995117188
1389.77984597649	1307.19995117188
1390.42662964899	1303.80004882813
1391.07332979768	1299.40002441406
1391.71994643015	1303.19995117188
1392.36647955395	1295.19995117188
1393.01292917667	1300.59997558594
1393.65929530586	1299.19995117188
1394.3055779491	1295.40002441406
1394.95177711395	1282.59997558594
1395.59789280799	1284.59997558594
1396.24392503877	1287
1396.88987381387	1285.19995117188
1397.53573914086	1293
1398.1815210273	1277.40002441406
1398.82721948075	1286
1399.47283450878	1279.19995117188
1400.11836611897	1284.59997558594
1400.76381431886	1274.59997558594
1401.40917911603	1281.40002441406
1402.05446051805	1290.80004882813
1402.69965853247	1291.80004882813
1403.34477316686	1275
1403.98980442878	1271.19995117188
1404.6347523258	1268.80004882813
1405.27961686548	1261
1405.92439805538	1271.19995117188
1406.56909590306	1263
1407.21371041608	1269.19995117188
1407.85824160202	1268.80004882813
1408.50268946841	1262.80004882813
1409.14705402284	1264.59997558594
1409.79133527285	1274.40002441406
1410.43553322601	1276
1411.07964788987	1288
1411.723679272	1280
1412.36762737996	1269.19995117188
1413.01149222129	1276.40002441406
1413.65527380357	1276.80004882813
1414.29897213435	1272.59997558594
1414.94258722118	1285.40002441406
1415.58611907163	1280
1416.22956769325	1276.40002441406
1416.87293309359	1276.40002441406
1417.51621528021	1256.19995117188
1418.15941426067	1255.40002441406
1418.80253004253	1252.19995117188
1419.44556263333	1264
1420.08851204063	1252
1420.731378272	1264.59997558594
1421.37416133497	1258.40002441406
1422.0168612371	1257
1422.65947798596	1255.80004882813
1423.30201158908	1263.59997558594
1423.94446205403	1269.19995117188
1424.58682938835	1275.19995117188
1425.2291135996	1269.19995117188
1425.87131469532	1283
1426.51343268308	1287.59997558594
1427.15546757042	1286.40002441406
1427.79741936488	1290.80004882813
1428.43928807403	1291.40002441406
1429.0810737054	1302.59997558594
1429.72277626656	1296.59997558594
1430.36439576504	1301.40002441406
1431.00593220841	1285.19995117188
1431.64738560419	1278.80004882813
1432.28875595995	1274.59997558594
1432.93004328324	1275
1433.57124758159	1285
1434.21236886255	1279.80004882813
1434.85340713368	1285.80004882813
1435.49436240252	1275
1436.13523467661	1282.80004882813
1436.77602396349	1292.19995117188
1437.41673027073	1285.80004882813
1438.05735360585	1286.80004882813
1438.69789397641	1282
1439.33835138994	1276.80004882813
1439.978725854	1270.40002441406
1440.61901737612	1285.40002441406
1441.25922596385	1282.59997558594
1441.89935162473	1287
1442.53939436631	1276.40002441406
1443.17935419612	1275.59997558594
1443.81923112171	1264.59997558594
1444.45902515061	1255.80004882813
1445.09873629038	1249.80004882813
1445.73836454854	1247
1446.37790993265	1256.80004882813
1447.01737245024	1257.40002441406
1447.65675210885	1258.80004882813
1448.29604891602	1268.59997558594
1448.93526287928	1268.19995117188
1449.57439400618	1266.40002441406
1450.21344230426	1267
1450.85240778105	1262.19995117188
1451.49129044409	1269.40002441406
1452.13009030092	1286.40002441406
1452.76880735907	1282.40002441406
1453.40744162608	1285
1454.04599310949	1281.40002441406
1454.68446181683	1270.40002441406
1455.32284775564	1263.19995117188
1455.96115093345	1268.19995117188
1456.5993713578	1265.19995117188
1457.23750903623	1267.80004882813
1457.87556397626	1271.80004882813
1458.51353618543	1277.80004882813
1459.15142567127	1276.59997558594
1459.78923244132	1287.59997558594
1460.42695650311	1280.59997558594
1461.06459786417	1284
1461.70215653203	1273.19995117188
1462.33963251423	1270.59997558594
1462.97702581829	1283.80004882813
1463.61433645175	1286.80004882813
1464.25156442214	1283.19995117188
1464.88870973699	1287.19995117188
1465.52577240382	1268
1466.16275243017	1265.40002441406
1466.79964982356	1268.40002441406
1467.43646459154	1256.19995117188
1468.07319674161	1255.59997558594
1468.70984628132	1260
1469.34641321818	1254.19995117188
1469.98289755974	1247
1470.6192993135	1257
1471.25561848701	1256.80004882813
1471.89185508779	1262.59997558594
1472.52800912336	1262
1473.16408060124	1279.59997558594
1473.80006952897	1267.19995117188
1474.43597591407	1280.59997558594
1475.07179976406	1265.40002441406
1475.70754108647	1264.59997558594
1476.34319988883	1274
1476.97877617865	1271.40002441406
1477.61426996345	1264.19995117188
1478.24968125077	1256.59997558594
1478.88501004812	1268.19995117188
1479.52025636303	1263
1480.15542020302	1263
1480.79050157561	1253.59997558594
1481.42550048832	1248
1482.06041694867	1253
1482.69525096418	1260
1483.33000254237	1268.40002441406
1483.96467169077	1271.40002441406
1484.59925841689	1270.19995117188
1485.23376272825	1272
1485.86818463237	1272.80004882813
1486.50252413677	1264.19995117188
1487.13678124896	1274
1487.77095597646	1262.59997558594
1488.4050483268	1257
1489.03905830749	1262.80004882813
1489.67298592604	1263
1490.30683118996	1259.80004882813
1490.9405941068	1264.80004882813
1491.57427468403	1265.40002441406
1492.2078729292	1268.40002441406
1492.84138884981	1272
1493.47482245338	1271.59997558594
1494.10817374742	1262.80004882813
1494.74144273944	1269.80004882813
1495.37462943696	1264
1496.0077338475	1265.40002441406
1496.64075597856	1266.59997558594
1497.27369583765	1269
1497.9065534323	1263.80004882813
1498.53932877001	1277
1499.17202185829	1275.19995117188
1499.80463270465	1288.80004882813
1500.43716131661	1285.80004882813
1501.06960770167	1279.19995117188
1501.70197186735	1285.59997558594
1502.33425382116	1284.59997558594
1502.96645357059	1293.80004882813
1503.59857112317	1295.59997558594
1504.23060648641	1298.40002441406
1504.8625596678	1305.59997558594
1505.49443067486	1298
1506.1262195151	1301.40002441406
1506.75792619602	1312.80004882813
1507.38955072513	1311.19995117188
1508.02109310993	1303.59997558594
1508.65255335794	1297.80004882813
1509.28393147666	1289.40002441406
1509.91522747359	1287
1510.54644135624	1295.19995117188
1511.17757313212	1292.19995117188
1511.80862280872	1304
1512.43959039356	1303.80004882813
1513.07047589413	1301.59997558594
1513.70127931795	1296.80004882813
1514.33200067251	1282
1514.96263996531	1283
1515.59319720386	1280.19995117188
1516.22367239567	1271
1516.85406554822	1280.59997558594
1517.48437666903	1278.19995117188
1518.1146057656	1274.40002441406
1518.74475284542	1276.80004882813
1519.374817916	1277.80004882813
1520.00480098483	1275
1520.63470205942	1283.59997558594
1521.26452114726	1271.19995117188
1521.89425825586	1276
1522.52391339271	1255.80004882813
1523.15348656531	1252.80004882813
1523.78297778116	1256.19995117188
1524.41238704775	1255
1525.04171437259	1258.19995117188
1525.67095976317	1250.59997558594
1526.30012322699	1246
1526.92920477154	1242
1527.55820440432	1241.19995117188
1528.18712213283	1241.80004882813
1528.81595796455	1238.59997558594
1529.44471190699	1237.59997558594
1530.07338396764	1237.40002441406
1530.70197415399	1246.80004882813
1531.33048247353	1247.40002441406
1531.95890893377	1236.40002441406
1532.58725354219	1235.19995117188
1533.21551630629	1225.19995117188
1533.84369723356	1222.40002441406
1534.47179633148	1228.59997558594
1535.09981360757	1237.19995117188
1535.72774906929	1240.59997558594
1536.35560272415	1252.19995117188
1536.98337457963	1242.40002441406
1537.61106464323	1243.19995117188
1538.23867292243	1244.59997558594
1538.86619942473	1239.19995117188
1539.49364415762	1236
1540.12100712857	1229.80004882813
1540.74828834509	1226.59997558594
1541.37548781466	1226.40002441406
1542.00260554478	1230.80004882813
1542.62964154291	1232
1543.25659581655	1227.19995117188
1543.8834683732	1218.59997558594
1544.51025922034	1222.59997558594
1545.13696836544	1218
1545.76359581601	1233.19995117188
1546.39014157952	1219.80004882813
1547.01660566345	1221.80004882813
1547.64298807531	1215.19995117188
1548.26928882255	1222.19995117188
1548.89550791269	1220.19995117188
1549.52164535318	1219
1550.14770115153	1223
1550.77367531521	1221.40002441406
1551.39956785171	1231.59997558594
1552.0253787685	1230.40002441406
1552.65110807307	1226.19995117188
1553.2767557729	1214.59997558594
1553.90232187548	1218.19995117188
1554.52780638828	1228.80004882813
1555.15320931879	1229
1555.77853067447	1224.80004882813
1556.40377046282	1223.19995117188
1557.02892869132	1222.59997558594
1557.65400536744	1222.19995117188
1558.27900049866	1219.80004882813
1558.90391409247	1217.40002441406
1559.52874615633	1214.80004882813
1560.15349669773	1213.40002441406
1560.77816572414	1218.59997558594
1561.40275324305	1222.80004882813
1562.02725926192	1232.59997558594
1562.65168378824	1226.59997558594
1563.27602682948	1227
1563.90028839311	1224.19995117188
1564.52446848662	1227.59997558594
1565.14856711748	1231.80004882813
1565.77258429316	1224.40002441406
1566.39652002113	1231.80004882813
1567.02037430887	1237.19995117188
1567.64414716387	1232
1568.26783859357	1220.80004882813
1568.89144860547	1231.59997558594
1569.51497720703	1227.19995117188
1570.13842440573	1232
1570.76179020904	1235
1571.38507462442	1234.40002441406
1572.00827765936	1238.80004882813
1572.63139932132	1247.80004882813
1573.25443961777	1240.40002441406
1573.87739855618	1241.80004882813
1574.50027614402	1248.80004882813
1575.12307238877	1248.80004882813
1575.74578729789	1245.19995117188
1576.36842087885	1250.40002441406
1576.99097313912	1251.80004882813
1577.61344408616	1246
1578.23583372745	1254.40002441406
1578.85814207046	1266.80004882813
1579.48036912264	1254.40002441406
1580.10251489147	1253.19995117188
1580.72457938441	1247.80004882813
1581.34656260893	1248
1581.9684645725	1246.19995117188
1582.59028528258	1232
1583.21202474663	1231.40002441406
1583.83368297212	1230
1584.45525996652	1217.80004882813
1585.07675573728	1209.59997558594
1585.69817029188	1211.80004882813
1586.31950363778	1205.19995117188
1586.94075578243	1207.40002441406
1587.5619267333	1202.19995117188
1588.18301649786	1196.80004882813
1588.80402508357	1196
1589.42495249788	1207
1590.04579874826	1205.80004882813
1590.66656384217	1201.59997558594
1591.28724778707	1205.59997558594
1591.90785059042	1213.19995117188
1592.52837225968	1201.80004882813
1593.14881280232	1206.59997558594
1593.76917222578	1198.80004882813
1594.38945053753	1195.80004882813
1595.00964774502	1189.59997558594
1595.62976385573	1191
1596.24979887709	1187
1596.86975281657	1181.40002441406
1597.48962568164	1183
1598.10941747974	1178.80004882813
1598.72912821832	1180.19995117188
1599.34875790486	1184.80004882813
1599.9683065468	1181.80004882813
1600.58777415159	1187
1601.2071607267	1183.59997558594
1601.82646627958	1193.59997558594
1602.44569081769	1190
1603.06483434846	1191
1603.68389687937	1192.19995117188
1604.30287841786	1198
1604.92177897139	1175
1605.54059854741	1179
1606.15933715337	1181.40002441406
1606.77799479672	1174.59997558594
1607.39657148492	1183.59997558594
1608.01506722542	1179.80004882813
1608.63348202566	1183.19995117188
1609.2518158931	1179.80004882813
1609.87006883519	1186.80004882813
1610.48824085939	1189
1611.10633197312	1191
1611.72434218386	1188.59997558594
1612.34227149904	1186.19995117188
1612.96011992612	1201
1613.57788747254	1182.80004882813
1614.19557414575	1172.59997558594
1614.8131799532	1162.80004882813
1615.43070490234	1169
1616.04814900061	1173.80004882813
1616.66551225545	1170.40002441406
1617.28279467433	1177
1617.89999626467	1171.80004882813
1618.51711703393	1170.80004882813
1619.13415698955	1181.19995117188
1619.75111613898	1183.80004882813
1620.36799448966	1187.59997558594
1620.98479204903	1171.19995117188
1621.60150882455	1172
1622.21814482364	1180.19995117188
1622.83470005376	1181.80004882813
1623.45117452235	1187.19995117188
1624.06756823685	1178.80004882813
1624.6838812047	1191.80004882813
1625.30011343335	1208.80004882813
1625.91626493022	1196.59997558594
1626.53233570278	1194.40002441406
1627.14832575845	1186.40002441406
1627.76423510468	1177.80004882813
1628.38006374891	1185.40002441406
1628.99581169857	1176.80004882813
1629.61147896111	1167.80004882813
1630.22706554397	1168.19995117188
1630.84257145457	1176.80004882813
1631.45799670038	1186.19995117188
1632.07334128881	1233.80004882813
1632.6886052273	1167.59997558594
1633.3037885233	1159.80004882813
1633.91889118425	1159.40002441406
1634.53391321757	1155.80004882813
1635.1488546307	1160.59997558594
1635.76371543108	1159.40002441406
1636.37849562616	1156.19995117188
1636.99319522335	1156.19995117188
1637.60781423009	1162.80004882813
1638.22235265383	1150.80004882813
1638.83681050198	1150.80004882813
1639.451187782	1157
1640.0654845013	1162.59997558594
1640.67970066734	1161.40002441406
1641.29383628752	1165.80004882813
1641.9078913693	1157.59997558594
1642.5218659201	1162
1643.13575994735	1159.59997558594
1643.74957345849	1163.19995117188
1644.36330646094	1167.80004882813
1644.97695896213	1167
1645.59053096951	1162.59997558594
1646.20402249049	1172.80004882813
1646.8174335325	1171.80004882813
1647.43076410298	1174
1648.04401420935	1185
1648.65718385905	1182.40002441406
1649.2702730595	1196.80004882813
1649.88328181812	1200.19995117188
1650.49621014236	1202.80004882813
1651.10905803963	1204.40002441406
1651.72182551735	1198.80004882813
1652.33451258297	1198.19995117188
1652.9471192439	1192.40002441406
1653.55964550757	1191.59997558594
1654.1720913814	1195
1654.78445687283	1188.80004882813
1655.39674198926	1181.80004882813
1656.00894673814	1168.40002441406
1656.62107112688	1161.40002441406
1657.23311516291	1158.80004882813
1657.84507885365	1142
1658.45696220652	1139
1659.06876522895	1139.80004882813
1659.68048792835	1143.80004882813
1660.29213031217	1150.80004882813
1660.90369238779	1150.19995117188
1661.51517416267	1153.80004882813
1662.12657564421	1153.59997558594
1662.73789683984	1157
1663.34913775697	1157
1663.96029840303	1145.59997558594
1664.57137878544	1139.40002441406
1665.18237891161	1132.40002441406
1665.79329878897	1137.80004882813
1666.40413842493	1129
1667.01489782691	1119.80004882813
1667.62557700233	1126.59997558594
1668.2361759586	1125.59997558594
1668.84669470315	1122.59997558594
1669.4571332434	1122.80004882813
1670.06749158675	1118.40002441406
1670.67776974062	1129.19995117188
1671.28796771243	1126.19995117188
1671.8980855096	1122.59997558594
1672.50812313954	1130
1673.11808060967	1126.59997558594
1673.72795792739	1126.19995117188
1674.33775510013	1120
1674.9474721353	1121.40002441406
1675.55710904031	1110.19995117188
1676.16666582257	1099.80004882813
1676.7761424895	1114.19995117188
1677.38553904851	1113.19995117188
1677.99485550702	1103
1678.60409187243	1093.80004882813
1679.21324815215	1099
1679.8223243536	1086.40002441406
1680.43132048419	1095.59997558594
1681.04023655132	1101
1681.64907256241	1104.40002441406
1682.25782852487	1109.19995117188
1682.86650444611	1103.59997558594
1683.47510033353	1104.80004882813
1684.08361619455	1101.40002441406
1684.69205203657	1101.80004882813
1685.300407867	1092.19995117188
1685.90868369325	1097.59997558594
1686.51687952272	1096.59997558594
1687.12499536283	1100.59997558594
1687.73303122098	1102.80004882813
1688.34098710457	1099.80004882813
1688.94886302101	1098.59997558594
1689.55665897772	1093.40002441406
1690.16437498208	1101
1690.77201104152	1099
1691.37956716342	1102
1691.9870433552	1096.19995117188
1692.59443962426	1087
1693.20175597801	1097.19995117188
1693.80899242384	1097.40002441406
1694.41614896916	1095.19995117188
1695.02322562138	1106.19995117188
1695.63022238789	1103.80004882813
1696.23713927609	1116.80004882813
1696.8439762934	1102.19995117188
1697.4507334472	1100
1698.05741074491	1101
1698.66400819391	1102
1699.27052580161	1096.59997558594
1699.87696357542	1089.19995117188
1700.48332152272	1094.19995117188
1701.08959965092	1099.19995117188
1701.69579796742	1092.40002441406
1702.30191647962	1092.80004882813
1702.90795519491	1082
1703.51391412069	1083
1704.11979326437	1079
1704.72559263332	1080.80004882813
1705.33131223496	1083.40002441406
1705.93695207668	1087.80004882813
1706.54251216588	1088
1707.14799250994	1086
1707.75339311628	1081.40002441406
1708.35871399227	1081
1708.96395514532	1083.40002441406
1709.56911658282	1072.19995117188
