634.948122577771	1354
635.690341530823	1358.40002441406
636.43246851086	1346.80004882813
637.174503525845	1365.80004882813
637.916446583745	1365.40002441406
638.658297692538	1359.59997558594
639.400056860179	1374.80004882813
640.141724094637	1350.59997558594
640.883299403885	1342.59997558594
641.62478279588	1347.40002441406
642.366174278594	1354
643.107473859989	1349.19995117188
643.848681548029	1358
644.589797350679	1354
645.330821275901	1362.40002441406
646.071753331665	1357.40002441406
646.812593525922	1342.40002441406
647.553341866646	1343.40002441406
648.293998361798	1348.40002441406
649.03456301933	1336.40002441406
649.775035847216	1339.59997558594
650.515416853409	1350.40002441406
651.255706045874	1350.59997558594
651.995903432568	1341.59997558594
652.736009021453	1332
653.476022820486	1348.40002441406
654.215944837629	1337.19995117188
654.955775080842	1338.19995117188
655.695513558081	1350
656.435160277301	1342.19995117188
657.174715246465	1343.59997558594
657.914178473527	1343.40002441406
658.653549966449	1350.19995117188
659.392829733176	1364.40002441406
660.132017781678	1358
660.871114119901	1356.59997558594
661.610118755803	1349.40002441406
662.349031697343	1360.40002441406
663.087852952468	1340.19995117188
663.826582529139	1346.40002441406
664.565220435305	1352.59997558594
665.30376667892	1343
666.04222126794	1352.19995117188
666.780584210316	1354.59997558594
667.518855514	1357.80004882813
668.25703518694	1365.80004882813
668.995123237096	1371.59997558594
669.733119672413	1387.80004882813
670.471024500842	1377.59997558594
671.208837730333	1376.40002441406
671.946559368839	1380.80004882813
672.684189424308	1382.19995117188
673.421727904689	1361
674.159174817929	1374.59997558594
674.896530171977	1362.19995117188
675.633793974786	1352.59997558594
676.370966234295	1354.40002441406
677.108046958461	1359
677.845036155219	1365.59997558594
678.581933832528	1365
679.318739998323	1366.19995117188
680.055454660558	1368.40002441406
680.792077827172	1363.59997558594
681.528609506116	1366
682.265049705331	1366
683.001398432759	1380.19995117188
683.737655696349	1370.59997558594
684.47382150404	1388
685.20989586378	1384.40002441406
685.945878783503	1393.19995117188
686.68177027116	1399
687.417570334688	1384.19995117188
688.153278982032	1384.40002441406
688.888896221129	1367
689.624422059921	1369.40002441406
690.359856506349	1361.80004882813
691.095199568354	1374
691.830451253874	1365
692.565611570844	1357.80004882813
693.300680527212	1350.19995117188
694.03565813091	1366
694.770544389877	1363.19995117188
695.505339312053	1353.80004882813
696.240042905372	1361.59997558594
696.974655177772	1369
697.70917613719	1380.40002441406
698.443605791561	1387.40002441406
699.177944148826	1385.59997558594
699.912191216909	1359.59997558594
700.646347003755	1353.59997558594
701.380411517295	1365.19995117188
702.114384765465	1369.40002441406
702.848266756195	1379.19995117188
703.582057497421	1383.19995117188
704.315756997074	1385.19995117188
705.049365263089	1379.80004882813
705.782882303399	1375.59997558594
706.516308125936	1382.80004882813
707.249642738626	1385.19995117188
707.982886149403	1385.59997558594
708.716038366204	1384.40002441406
709.449099396949	1386.59997558594
710.182069249577	1389.19995117188
710.914947932009	1381.19995117188
711.647735452181	1382.80004882813
712.380431818022	1366.19995117188
713.113037037454	1368.80004882813
713.845551118411	1355.40002441406
714.577974068818	1375.80004882813
715.310305896604	1378
716.042546609694	1385
716.774696216013	1387.80004882813
717.506754723493	1374
718.238722140053	1373.19995117188
718.970598473624	1365.59997558594
719.702383732127	1363.59997558594
720.43407792349	1374.19995117188
721.165681055634	1373.59997558594
721.897193136486	1381.19995117188
722.628614173966	1367.59997558594
723.359944175997	1370.19995117188
724.091183150505	1381.59997558594
724.822331105412	1375.19995117188
725.553388048638	1369
726.284353988106	1376
727.015228931734	1380.59997558594
727.746012887449	1400.19995117188
728.476705863162	1395.19995117188
729.207307866803	1387.19995117188
729.937818906289	1379.59997558594
730.668238989535	1375
731.398568124459	1382.40002441406
732.128806318986	1364.59997558594
732.858953581034	1358.59997558594
733.589009918514	1359.80004882813
734.318975339348	1367.40002441406
735.048849851452	1359.59997558594
735.778633462744	1358.59997558594
736.508326181137	1361.80004882813
737.237928014549	1363.40002441406
737.967438970897	1370.40002441406
738.696859058095	1365
739.426188284054	1380.40002441406
740.155426656692	1388.40002441406
740.884574183922	1389.59997558594
741.613630873659	1398.80004882813
742.342596733815	1390.80004882813
743.071471772302	1381.80004882813
743.800255997034	1377.19995117188
744.528949415921	1372
745.257552036877	1370.40002441406
745.986063867811	1370.19995117188
746.714484916638	1378.80004882813
747.442815191261	1373
748.171054699597	1378.40002441406
748.899203449554	1376.40002441406
749.627261449039	1381.80004882813
750.355228705966	1381
751.083105228239	1382.59997558594
751.810891023765	1384.80004882813
752.538586100459	1364
753.266190466218	1383.80004882813
753.99370412896	1382.40002441406
754.721127096582	1386.40002441406
755.448459377	1389.40002441406
756.175700978114	1381.19995117188
756.902851907828	1385.80004882813
757.629912174055	1385
758.356881784688	1382.19995117188
759.083760747639	1397.19995117188
759.810549070817	1385
760.537246762113	1398
761.263853829442	1387
761.990370280698	1378.19995117188
762.716796123791	1368.59997558594
763.443131366618	1391.80004882813
764.169376017082	1397
764.895530083085	1406.59997558594
765.621593572527	1404.59997558594
766.347566493312	1411.80004882813
767.073448853336	1414.19995117188
767.799240660502	1422
768.524941922707	1433.59997558594
769.250552647854	1438
769.976072843836	1434.80004882813
770.701502518551	1430.40002441406
771.426841679905	1429
772.152090335793	1438.40002441406
772.877248494107	1440.19995117188
773.602316162747	1456
774.327293349609	1445
775.052180062592	1444.59997558594
775.776976309589	1451.19995117188
776.501682098496	1456.80004882813
777.226297437206	1446.19995117188
777.950822333616	1445.40002441406
778.675256795621	1441.59997558594
779.399600831111	1426.19995117188
780.123854447983	1428.80004882813
780.84801765413	1410
781.572090457441	1413.40002441406
782.296072865811	1405.40002441406
783.019964887131	1396.19995117188
783.743766529297	1390.59997558594
784.467477800194	1396.40002441406
785.191098707719	1379.40002441406
785.914629259756	1376.19995117188
786.638069464194	1374.59997558594
787.361419328932	1388.40002441406
788.084678861852	1398.80004882813
788.807848070845	1394.80004882813
789.530926963798	1390.80004882813
790.253915548602	1387.40002441406
790.976813833144	1394.19995117188
791.699621825307	1395.80004882813
792.422339532986	1376.80004882813
793.144966964061	1370.19995117188
793.86750412642	1367.80004882813
794.589951027946	1360.40002441406
795.312307676536	1364.59997558594
796.03457408006	1366.40002441406
796.756750246417	1361.59997558594
797.478836183477	1365.80004882813
798.200831899137	1362.59997558594
798.92273740127	1368.59997558594
799.644552697769	1362.40002441406
800.36627779651	1369.80004882813
801.087912705374	1383.19995117188
801.809457432251	1382.80004882813
802.530911985017	1390.19995117188
803.252276371558	1370.40002441406
803.973550599748	1385.19995117188
804.694734677472	1392.80004882813
805.415828612611	1392.19995117188
806.136832413045	1397.19995117188
806.857746086646	1395.40002441406
807.578569641305	1396.40002441406
808.299303084892	1409.19995117188
809.019946425289	1412
809.740499670372	1394.59997558594
810.460962828022	1393.40002441406
811.181335906114	1395.40002441406
811.901618912524	1388.19995117188
812.621811855131	1380.80004882813
813.341914741809	1382.59997558594
814.061927580433	1376
814.781850378881	1374.40002441406
815.501683145025	1385.80004882813
816.221425886743	1397
816.941078611903	1396.80004882813
817.660641328387	1394
818.380114044065	1399.40002441406
819.099496766808	1411
819.818789504492	1414.80004882813
820.53799226499	1402.40002441406
821.257105056168	1398.40002441406
821.976127885904	1378.40002441406
822.695060762064	1384.40002441406
823.413903692525	1375
824.132656685151	1389.19995117188
824.851319747817	1390.80004882813
825.569892888388	1380
826.288376114739	1385.40002441406
827.006769434737	1390.40002441406
827.725072856249	1384
828.443286387142	1374.80004882813
829.161410035285	1375.59997558594
829.87944380855	1370
830.597387714798	1375.40002441406
831.315241761898	1367.19995117188
832.033005957715	1372.40002441406
832.750680310119	1369.80004882813
833.468264826969	1365.19995117188
834.18575951614	1377.80004882813
834.903164385486	1368.40002441406
835.620479442878	1370.19995117188
836.337704696181	1388.19995117188
837.054840153255	1378.40002441406
837.771885821962	1381.19995117188
838.488841710172	1378.59997558594
839.20570782574	1371
839.922484176531	1377.19995117188
840.639170770409	1379.40002441406
841.355767615231	1381.80004882813
842.072274718864	1386.40002441406
842.788692089164	1376.59997558594
843.505019733993	1376.19995117188
844.221257661209	1382.40002441406
844.937405878676	1384.40002441406
845.65346439425	1381
846.369433215789	1367.59997558594
847.085312351156	1370.40002441406
847.801101808205	1369.59997558594
848.516801594793	1364
849.232411718781	1356.40002441406
849.947932188021	1372
850.663363010376	1369.19995117188
851.378704193698	1372.19995117188
852.093955745842	1368.19995117188
852.809117674669	1360.40002441406
853.524189988028	1364.59997558594
854.239172693778	1362.40002441406
854.954065799768	1357.80004882813
855.668869313857	1353
856.383583243899	1355.19995117188
857.098207597743	1367.19995117188
857.812742383246	1364.59997558594
858.527187608255	1355
859.241543280628	1368.40002441406
859.955809408218	1362.40002441406
860.669985998868	1374.59997558594
861.384073060437	1363.80004882813
862.098070600772	1362.59997558594
862.811978627724	1366.19995117188
863.52579714914	1357.40002441406
864.239526172873	1360.80004882813
864.953165706776	1350.19995117188
865.666715758687	1340.40002441406
866.380176336464	1363.80004882813
867.093547447951	1349.19995117188
867.806829100996	1343.59997558594
868.520021303444	1357.80004882813
869.233124063149	1348.40002441406
869.94613738795	1356.80004882813
870.659061285693	1373.59997558594
871.37189576423	1368.40002441406
872.084640831403	1365
872.797296495057	1355.40002441406
873.509862763039	1352.40002441406
874.22233964319	1354
874.934727143353	1351.19995117188
875.647025271374	1342.19995117188
876.359234035097	1348.80004882813
877.071353442361	1344
877.783383501015	1342.40002441406
878.495324218895	1346.19995117188
879.207175603844	1355.19995117188
879.918937663705	1348.59997558594
880.630610406318	1345.80004882813
881.342193839524	1350.59997558594
882.053687971161	1349.80004882813
882.765092809069	1344.19995117188
883.476408361091	1343
884.187634635066	1337
884.898771638828	1337.40002441406
885.609819380221	1334.40002441406
886.320777867076	1349.40002441406
887.031647107236	1345
887.742427108536	1346.59997558594
888.453117878816	1351.80004882813
889.16371942591	1348.40002441406
889.874231757652	1352.59997558594
890.584654881883	1357.40002441406
891.294988806434	1349.19995117188
892.005233539141	1354
892.715389087837	1344.19995117188
893.42545546036	1343.59997558594
894.135432664543	1346.59997558594
894.845320708216	1339.19995117188
895.555119599216	1333
896.264829345375	1348.40002441406
896.974449954526	1346.80004882813
897.683981434496	1354
898.393423793125	1347
899.102777038235	1348.59997558594
899.812041177664	1353.80004882813
900.521216219239	1367.19995117188
901.230302170793	1367
901.939299040155	1378.80004882813
902.64820683515	1368.59997558594
903.357025563612	1356.19995117188
904.065755233368	1365.19995117188
904.774395852247	1363.59997558594
905.482947428076	1356
906.191409968682	1353.40002441406
906.899783481897	1350.40002441406
907.608067975538	1358.19995117188
908.316263457443	1368.40002441406
909.02436993543	1363.59997558594
909.732387417327	1360
910.440315910959	1354
911.148155424154	1345.59997558594
911.855905964731	1333.80004882813
912.563567540521	1327.40002441406
913.271140159339	1338.19995117188
913.978623829017	1331.40002441406
914.686018557374	1338
915.393324352237	1353
916.100541221421	1342.59997558594
916.807669172752	1343.19995117188
917.514708214054	1348.40002441406
918.221658353142	1364.19995117188
918.928519597843	1357.80004882813
919.635291955976	1350.40002441406
920.341975435358	1340
921.048570043813	1333.40002441406
921.75507578916	1341.40002441406
922.461492679212	1349.80004882813
923.167820721795	1345.80004882813
923.874059924726	1346.19995117188
924.58021029582	1346.59997558594
925.286271842893	1347.59997558594
925.992244573769	1327.80004882813
926.698128496262	1341.59997558594
927.403923618184	1342.80004882813
928.109629947355	1362
928.815247491593	1380
929.520776258708	1363.19995117188
930.226216256519	1368.59997558594
930.931567492841	1355.40002441406
931.636829975482	1349.59997558594
932.342003712263	1361.19995117188
933.047088710995	1342.80004882813
933.752084979491	1351
934.456992525564	1328
935.161811357024	1318.19995117188
935.866541481688	1333.19995117188
936.571182907363	1338.40002441406
937.275735641861	1324
937.980199692995	1333.40002441406
938.684575068572	1326.19995117188
939.388861776411	1328.40002441406
940.093059824311	1335.40002441406
940.797169220085	1339.19995117188
941.501189971544	1332.19995117188
942.205122086495	1320.40002441406
942.908965572751	1339.40002441406
943.612720438111	1340.40002441406
944.316386690391	1341.19995117188
945.019964337391	1342.19995117188
945.723453386924	1334.40002441406
946.426853846795	1342.59997558594
947.130165724808	1331.59997558594
947.83338902877	1331
948.536523766488	1330.40002441406
949.239569945764	1331.40002441406
949.942527574402	1339.19995117188
950.64539666021	1323.19995117188
951.348177210993	1330.40002441406
952.050869234548	1346
952.753472738683	1331.80004882813
953.455987731199	1330.40002441406
954.158414219898	1326.19995117188
954.860752212587	1334.40002441406
955.563001717061	1328
956.265162741124	1325
956.967235292576	1321.19995117188
957.669219379224	1318
958.371115008857	1329.19995117188
959.072922189283	1334.40002441406
959.774640928301	1328.19995117188
960.476271233708	1336.19995117188
961.177813113301	1331
961.879266574882	1336.19995117188
962.580631626248	1340.40002441406
963.281908275194	1332.19995117188
963.98309652952	1329.40002441406
964.684196397022	1341.80004882813
965.3852078855	1342.19995117188
966.086131002745	1334.40002441406
966.786965756555	1338.59997558594
967.487712154726	1340.19995117188
968.188370205055	1332.19995117188
968.888939915331	1338.40002441406
969.589421293352	1342
970.289814346909	1331.80004882813
970.990119083801	1318.59997558594
971.690335511819	1332
972.39046363875	1329
973.090503472398	1323.40002441406
973.790455020545	1321.80004882813
974.490318290987	1326.80004882813
975.190093291516	1322.59997558594
975.889780029923	1316.59997558594
976.589378513998	1318
977.288888751527	1328.59997558594
977.988310750308	1333.40002441406
978.687644518122	1330.80004882813
979.386890062767	1332
980.086047392025	1335.40002441406
980.785116513689	1325.40002441406
981.484097435542	1313
982.182990165377	1330.80004882813
982.88179471098	1322.59997558594
983.580511080137	1329.40002441406
984.279139280632	1333
984.977679320253	1342.40002441406
985.67613120679	1344.59997558594
986.374494948027	1349
987.072770551745	1333
987.770958025731	1337
988.469057377772	1332.40002441406
989.167068615649	1334.40002441406
989.864991747145	1321.59997558594
990.562826780047	1331
991.260573722134	1341.19995117188
991.958232581195	1327.40002441406
992.655803365003	1316.59997558594
993.353286081346	1322.80004882813
994.050680738006	1314.19995117188
994.74798734276	1314.40002441406
995.44520590339	1328
996.142336427681	1323
996.839378923407	1324.40002441406
997.536333398348	1328.59997558594
998.233199860289	1320.40002441406
998.929978317004	1314.40002441406
999.626668776274	1315.40002441406
1000.32327124587	1316
1001.01978573359	1315.59997558594
1001.71621224718	1323.40002441406
1002.41255079445	1316.19995117188
1003.10880138315	1317.40002441406
1003.80496402107	1306.59997558594
1004.50103871599	1309.59997558594
1005.19702547567	1326
1005.8929243079	1323
1006.58873522045	1321
1007.2844582211	1313.59997558594
1007.98009331761	1318.59997558594
1008.67564051776	1311.40002441406
1009.37109982933	1312.40002441406
1010.06647126009	1303.80004882813
1010.7617548178	1292.40002441406
1011.45695051026	1300.80004882813
1012.15205834522	1301.59997558594
1012.84707833045	1305.59997558594
1013.54201047373	1306.80004882813
1014.23685478284	1306
1014.93161126553	1307.19995117188
1015.62627992959	1310.40002441406
1016.32086078277	1322.80004882813
1017.01535383285	1311
1017.70975908761	1309.19995117188
1018.40407655479	1303.40002441406
1019.09830624219	1309.40002441406
1019.79244815755	1301.59997558594
1020.48650230866	1296.40002441406
1021.18046870328	1291.19995117188
1021.87434734917	1295.19995117188
1022.56813825411	1297.59997558594
1023.26184142584	1299.40002441406
1023.95545687216	1298
1024.64898460082	1299.19995117188
1025.34242461957	1302.80004882813
1026.0357769362	1304
1026.72904155846	1308.80004882813
1027.42221849412	1301.40002441406
1028.11530775094	1302
1028.80830933668	1297.19995117188
1029.50122325911	1300.59997558594
1030.19404952599	1287.80004882813
1030.88678814508	1294.19995117188
1031.57943912414	1304.59997558594
1032.27200247093	1294.19995117188
1032.96447819323	1304.80004882813
1033.65686629878	1310.40002441406
1034.34916679534	1301.59997558594
1035.04137969068	1294.40002441406
1035.73350499256	1286
1036.42554270874	1285.19995117188
1037.11749284697	1289.59997558594
1037.80935541501	1282.19995117188
1038.50113042062	1292.19995117188
1039.19281787156	1299.80004882813
1039.88441777559	1302
1040.57593014046	1293
1041.26735497393	1296.59997558594
1041.95869228376	1295.80004882813
1042.6499420777	1301.40002441406
1043.3411043635	1298.19995117188
1044.03217914893	1293
1044.72316644174	1282.40002441406
1045.41406624968	1278.80004882813
1046.1048785805	1285
1046.79560344197	1279.19995117188
1047.48624084182	1288
1048.17679078783	1284.80004882813
1048.86725328774	1293.59997558594
1049.55762834929	1293.59997558594
1050.24791598025	1290.59997558594
1050.93811618837	1296.19995117188
1051.62822898139	1294.59997558594
1052.31825436707	1299.59997558594
1053.00819235315	1301
1053.6980429474	1296.40002441406
1054.38780615755	1308.40002441406
1055.07748199136	1299.19995117188
1055.76707045658	1295.80004882813
1056.45657156095	1286.40002441406
1057.14598531222	1280.40002441406
1057.83531171814	1272.80004882813
1058.52455078646	1284.40002441406
1059.21370252494	1293.59997558594
1059.90276694129	1302.59997558594
1060.5917440433	1295.59997558594
1061.28063383868	1295.19995117188
1061.9694363352	1289
1062.65815154059	1292.80004882813
1063.34677946261	1287.40002441406
1064.03532010899	1285.59997558594
1064.72377348748	1271
1065.41213960583	1271.80004882813
1066.10041847177	1271.80004882813
1066.78861009306	1269.59997558594
1067.47671447743	1282.59997558594
1068.16473163263	1273.19995117188
1068.85266156639	1283.40002441406
1069.54050428647	1277.40002441406
1070.2282598006	1289.40002441406
1070.91592811652	1291.80004882813
1071.60350924198	1300
1072.29100318471	1293.80004882813
1072.97840995245	1288
1073.66572955295	1283.19995117188
1074.35296199394	1284.80004882813
1075.04010728316	1292.40002441406
1075.72716542836	1273.19995117188
1076.41413643726	1284.59997558594
1077.10102031761	1290
1077.78781707715	1276.19995117188
1078.4745267236	1282
1079.16114926471	1279.59997558594
1079.84768470822	1278.40002441406
1080.53413306185	1274.80004882813
1081.22049433336	1271.80004882813
1081.90676853046	1279.40002441406
1082.5929556609	1273.19995117188
1083.27905573241	1271.80004882813
1083.96506875272	1263.40002441406
1084.65099472957	1265.19995117188
1085.3368336707	1279.80004882813
1086.02258558383	1274.40002441406
1086.70825047669	1279.80004882813
1087.39382835703	1287
1088.07931923257	1288.59997558594
1088.76472311104	1300.59997558594
1089.45004000018	1282.80004882813
1090.13526990771	1295.40002441406
1090.82041284137	1266.59997558594
1091.50546880889	1284
1092.19043781799	1283.40002441406
1092.87531987642	1290.40002441406
1093.56011499188	1292
1094.24482317212	1278.40002441406
1094.92944442486	1287.59997558594
1095.61397875783	1275.59997558594
1096.29842617876	1273.59997558594
1096.98278669537	1275.19995117188
1097.6670603154	1264.40002441406
1098.35124704656	1261
1099.03534689659	1269.80004882813
1099.71935987322	1265.40002441406
1100.40328598416	1266
1101.08712523713	1261
1101.77087763988	1266
1102.45454320012	1254.59997558594
1103.13812192557	1258.19995117188
1103.82161382396	1266.40002441406
1104.50501890301	1268.19995117188
1105.18833717045	1268
1105.87156863399	1272
1106.55471330137	1277.80004882813
1107.2377711803	1281.19995117188
1107.9207422785	1275.80004882813
1108.60362660369	1267.59997558594
1109.2864241636	1265.19995117188
1109.96913496594	1265.19995117188
1110.65175901844	1263.59997558594
1111.33429632882	1252
1112.01674690479	1249
1112.69911075408	1251
1113.38138788439	1247
1114.06357830346	1257.80004882813
1114.745682019	1266.19995117188
1115.42769903872	1264.40002441406
1116.10962937035	1280
1116.7914730216	1266.19995117188
1117.47323000018	1275.59997558594
1118.15490031382	1274.59997558594
1118.83648397022	1275.19995117188
1119.51798097712	1264.80004882813
1120.1993913422	1254.59997558594
1120.88071507321	1253.59997558594
1121.56195217784	1256.40002441406
1122.24310266381	1261.40002441406
1122.92416653884	1264
1123.60514381064	1260
1124.28603448692	1252.80004882813
1124.9668385754	1266.19995117188
1125.64755608378	1274.40002441406
1126.32818701978	1255.80004882813
1127.00873139111	1270
1127.68918920548	1262.80004882813
1128.3695604706	1263
1129.04984519419	1274.59997558594
1129.73004338394	1271.40002441406
1130.41015504758	1266.80004882813
1131.09018019281	1266.59997558594
1131.77011882734	1274.19995117188
1132.44997095888	1284
1133.12973659514	1283
1133.80941574381	1282.80004882813
1134.48900841263	1270.80004882813
1135.16851460927	1267.59997558594
1135.84793434147	1258
1136.52726761692	1266.80004882813
1137.20651444333	1260.40002441406
1137.8856748284	1263.19995117188
1138.56474877984	1272
1139.24373630536	1266.80004882813
1139.92263741265	1272
1140.60145210943	1272.80004882813
1141.28018040339	1275.59997558594
1141.95882230225	1275.59997558594
1142.6373778137	1277.19995117188
1143.31584694545	1271
1143.99422970519	1275.40002441406
1144.67252610064	1267.80004882813
1145.35073613949	1270.19995117188
1146.02885982944	1265.19995117188
1146.7068971782	1261
1147.38484819347	1254.80004882813
1148.06271288294	1274.19995117188
1148.74049125432	1263.80004882813
1149.41818331531	1257.80004882813
1150.0957890736	1255.59997558594
1150.77330853689	1249.59997558594
1151.45074171289	1247.59997558594
1152.12808860928	1249.19995117188
1152.80534923378	1245
1153.48252359407	1256.80004882813
1154.15961169786	1258.19995117188
1154.83661355283	1260
1155.51352916669	1258.40002441406
1156.19035854713	1252.40002441406
1156.86710170185	1251.40002441406
1157.54375863855	1250.59997558594
1158.22032936491	1247.80004882813
1158.89681388863	1247
1159.57321221741	1240
1160.24952435894	1241.59997558594
1160.92575032092	1242.40002441406
1161.60189011103	1245.19995117188
1162.27794373697	1240.19995117188
1162.95391120644	1253.80004882813
1163.62979252712	1239.40002441406
1164.3055877067	1244.59997558594
1164.98129675288	1244.59997558594
1165.65691967336	1248
1166.33245647581	1246.59997558594
1167.00790716792	1250
1167.6832717574	1236.19995117188
1168.35855025193	1250.19995117188
1169.0337426592	1252.80004882813
1169.70884898689	1247.80004882813
1170.3838692427	1251.59997558594
1171.05880343431	1256.59997558594
1171.73365156941	1258.19995117188
1172.40841365569	1246.40002441406
1173.08308970083	1261.80004882813
1173.75767971253	1255.80004882813
1174.43218369847	1246.19995117188
1175.10660166633	1261.40002441406
1175.7809336238	1256.59997558594
1176.45517957857	1246.40002441406
1177.12933953832	1254
1177.80341351073	1250.59997558594
1178.47740150349	1252.19995117188
1179.15130352429	1248.40002441406
1179.8251195808	1241
1180.49884968071	1245.19995117188
1181.1724938317	1242.19995117188
1181.84605204145	1232.59997558594
1182.51952431766	1241.80004882813
1183.19291066799	1245
1183.86621110013	1248.40002441406
1184.53942562176	1245.59997558594
1185.21255424057	1243.80004882813
1185.88559696422	1242
1186.55855380041	1254
1187.2314247568	1255
1187.90420984109	1267.40002441406
1188.57690906095	1269.40002441406
1189.24952242405	1266.80004882813
1189.92204993808	1253
1190.59449161071	1263.19995117188
1191.26684744962	1253.19995117188
1191.93911746249	1258.80004882813
1192.61130165699	1262.59997558594
1193.28340004081	1266.59997558594
1193.95541262161	1253.40002441406
1194.62733940707	1260.80004882813
1195.29918040487	1261.80004882813
1195.97093562269	1251.40002441406
1196.64260506819	1247.19995117188
1197.31418874905	1246.59997558594
1197.98568667295	1244
1198.65709884755	1245
1199.32842528053	1257.80004882813
1199.99966597957	1254.80004882813
1200.67082095234	1252.40002441406
1201.3418902065	1246.19995117188
1202.01287374974	1253.19995117188
1202.68377158971	1259
1203.3545837341	1253.19995117188
1204.02531019057	1249.80004882813
1204.6959509668	1267
1205.36650607045	1254.19995117188
1206.03697550919	1256.59997558594
1206.70735929069	1257.40002441406
1207.37765742263	1249
1208.04786991266	1252.40002441406
1208.71799676846	1248.80004882813
1209.38803799769	1237.19995117188
1210.05799360803	1234.59997558594
1210.72786360714	1233.80004882813
1211.39764800268	1243.59997558594
1212.06734680233	1231.40002441406
1212.73696001375	1236
1213.4064876446	1236.19995117188
1214.07592970255	1235.80004882813
1214.74528619526	1241.59997558594
1215.4145571304	1241.59997558594
1216.08374251564	1239
1216.75284235863	1242.19995117188
1217.42185666704	1239.19995117188
1218.09078544854	1242.59997558594
1218.75962871078	1252
1219.42838646143	1243
1220.09705870816	1254
1220.76564545861	1252.59997558594
1221.43414672046	1249
1222.10256250136	1241.40002441406
1222.77089280898	1238.40002441406
1223.43913765098	1245
1224.107297035	1242.40002441406
1224.77537096873	1239.40002441406
1225.44335945981	1236.19995117188
1226.1112625159	1240.40002441406
1226.77908014467	1231.40002441406
1227.44681235376	1234
1228.11445915085	1237.19995117188
1228.78202054357	1231.19995117188
1229.44949653961	1232.59997558594
1230.11688714659	1223.19995117188
1230.7841923722	1228.19995117188
1231.45141222407	1236.19995117188
1232.11854670988	1225.80004882813
1232.78559583726	1220
1233.45255961388	1212.59997558594
1234.1194380474	1205
1234.78623114546	1206.19995117188
1235.45293891572	1221.40002441406
1236.11956136583	1205.19995117188
1236.78609850345	1208.40002441406
1237.45255033623	1203.19995117188
1238.11891687182	1200.40002441406
1238.78519811788	1199.80004882813
1239.45139408205	1207.80004882813
1240.11750477198	1218
1240.78353019534	1212.80004882813
1241.44947035976	1223
1242.11532527291	1217.59997558594
1242.78109494242	1219.40002441406
1243.44677937595	1226.80004882813
1244.11237858115	1231.40002441406
1244.77789256567	1233.19995117188
1245.44332133715	1227.59997558594
1246.10866490325	1223.59997558594
1246.7739232716	1217.40002441406
1247.43909644987	1226.19995117188
1248.10418444569	1213.80004882813
1248.76918726671	1212.80004882813
1249.43410492059	1210.19995117188
1250.09893741496	1207
1250.76368475747	1212
1251.42834695576	1215
1252.09292401749	1210
1252.75741595029	1214
1253.42182276182	1209
1254.08614445971	1216.59997558594
1254.75038105161	1210.40002441406
1255.41453254515	1207.19995117188
1256.07859894799	1208.80004882813
1256.74258026777	1215
1257.40647651213	1203
1258.0702876887	1201
1258.73401380514	1201.59997558594
1259.39765486908	1197.40002441406
1260.06121088817	1198.80004882813
1260.72468187004	1205.40002441406
1261.38806782233	1202.19995117188
1262.05136875269	1206.40002441406
1262.71458466875	1216.40002441406
1263.37771557815	1222.19995117188
1264.04076148854	1220.19995117188
1264.70372240753	1220
1265.3665983428	1218.40002441406
1266.02938930195	1216.19995117188
1266.69209529263	1222.59997558594
1267.35471632249	1219.40002441406
1268.01725239914	1207.59997558594
1268.67970353024	1206.80004882813
1269.34206972342	1212.59997558594
1270.00435098631	1207.59997558594
1270.66654732655	1214.40002441406
1271.32865875177	1220.80004882813
1271.9906852696	1217
1272.65262688768	1207.59997558594
1273.31448361365	1207.59997558594
1273.97625545514	1199.19995117188
1274.63794241978	1202.19995117188
1275.2995445152	1205.59997558594
1275.96106174903	1204.80004882813
1276.62249412892	1212.40002441406
1277.28384166248	1218
1277.94510435735	1219.80004882813
1278.60628222116	1219
1279.26737526155	1222
1279.92838348613	1216.19995117188
1280.58930690255	1215.59997558594
1281.25014551842	1206.80004882813
1281.91089934139	1218.59997558594
1282.57156837907	1216.19995117188
1283.2321526391	1222
1283.89265212911	1221.80004882813
1284.55306685671	1220.59997558594
1285.21339682955	1212.80004882813
1285.87364205525	1215.40002441406
1286.53380254142	1211.19995117188
1287.19387829571	1221
1287.85386932573	1214.59997558594
1288.51377563911	1218.80004882813
1289.17359724348	1205.59997558594
1289.83333414646	1212.59997558594
1290.49298635567	1226.59997558594
1291.15255387874	1217
1291.8120367233	1215.40002441406
1292.47143489696	1220.59997558594
1293.13074840736	1219
1293.7899772621	1205
1294.44912146882	1212.40002441406
1295.10818103513	1219.80004882813
1295.76715596866	1213.19995117188
1296.42604627704	1212
1297.08485196787	1208.19995117188
1297.74357304878	1215.40002441406
1298.4022095274	1208.40002441406
1299.06076141134	1199.59997558594
1299.71922870821	1198
1300.37761142565	1210.59997558594
1301.03590957126	1214.19995117188
1301.69412315268	1215.19995117188
1302.3522521775	1218
1303.01029665336	1211.40002441406
1303.66825658787	1203.40002441406
1304.32613198865	1211.80004882813
1304.98392286332	1218.19995117188
1305.64162921948	1222.40002441406
1306.29925106476	1227.19995117188
1306.95678840677	1224.40002441406
1307.61424125312	1227
1308.27160961145	1220.59997558594
1308.92889348934	1227.59997558594
1309.58609289443	1216
1310.24320783432	1218.40002441406
1310.90023831664	1218.59997558594
1311.55718434898	1208
1312.21404593897	1210.40002441406
1312.87082309421	1217.59997558594
1313.52751582233	1216.19995117188
1314.18412413092	1216
1314.84064802761	1210.19995117188
1315.49708752	1224.40002441406
1316.1534426157	1215.59997558594
1316.80971332233	1225
1317.46589964749	1220.80004882813
1318.1220015988	1213.80004882813
1318.77801918386	1210.19995117188
1319.43395241028	1215
1320.08980128567	1221.40002441406
1320.74556581764	1217.59997558594
1321.4012460138	1218.40002441406
1322.05684188176	1207.59997558594
1322.71235342911	1216.80004882813
1323.36778066347	1216.59997558594
1324.02312359245	1210.40002441406
1324.67838222365	1211
1325.33355656468	1202.59997558594
1325.98864662314	1203.59997558594
1326.64365240663	1198
1327.29857392277	1191.40002441406
1327.95341117915	1196
1328.60816418339	1196
1329.26283294308	1197.80004882813
1329.91741746582	1200.40002441406
1330.57191775923	1191.80004882813
1331.2263338309	1195.40002441406
1331.88066568843	1199.80004882813
1332.53491333943	1197.40002441406
1333.1890767915	1199.40002441406
1333.84315605224	1201
1334.49715112925	1199
1335.15106203013	1201
1335.80488876249	1197
1336.45863133391	1192.40002441406
1337.112289752	1199.80004882813
1337.76586402437	1204.40002441406
1338.4193541586	1192.59997558594
1339.0727601623	1187
1339.72608204306	1207.19995117188
1340.37931980849	1206
1341.03247346617	1215.80004882813
1341.68554302372	1207.40002441406
1342.33852848871	1203.59997558594
1342.99142986876	1204.19995117188
1343.64424717145	1197.59997558594
1344.29698040438	1199.40002441406
1344.94962957515	1203.19995117188
1345.60219469135	1199.59997558594
1346.25467576058	1193.80004882813
1346.90707279042	1196.19995117188
1347.55938578848	1187.19995117188
1348.21161476235	1187.40002441406
1348.86375971962	1195.80004882813
1349.51582066787	1189.80004882813
1350.16779761472	1188.80004882813
1350.81969056774	1209.80004882813
1351.47149953453	1208.59997558594
1352.12322452269	1211.80004882813
1352.77486553979	1214.19995117188
1353.42642259344	1221.40002441406
1354.07789569122	1225.59997558594
1354.72928484072	1222.19995117188
1355.38059004953	1217.19995117188
1356.03181132525	1204.19995117188
1356.68294867545	1225.80004882813
1357.33400210773	1237.59997558594
1357.98497162968	1224.19995117188
1358.63585724889	1229
1359.28665897294	1227.40002441406
1359.93737680942	1234.59997558594
1360.58801076591	1236.19995117188
1361.23856085001	1237.59997558594
1361.88902706929	1233.80004882813
1362.53940943135	1246.40002441406
1363.18970794377	1252.19995117188
1363.83992261413	1247.19995117188
1364.49005345003	1262.59997558594
1365.14010045904	1259.80004882813
1365.79006364874	1259.40002441406
1366.43994302673	1257
1367.08973860058	1234.80004882813
1367.73945037788	1240.59997558594
1368.38907836621	1236
1369.03862257315	1227
1369.68808300629	1212.59997558594
1370.3374596732	1210.80004882813
1370.98675258148	1211.19995117188
1371.63596173868	1204.59997558594
1372.28508715241	1204
1372.93412883024	1196.59997558594
1373.58308677974	1210
1374.2319610085	1204.59997558594
1374.8807515241	1195.19995117188
1375.52945833412	1192.59997558594
1376.17808144612	1186.80004882813
1376.82662086771	1180.59997558594
1377.47507660644	1189
1378.12344866989	1182.80004882813
1378.77173706565	1179.80004882813
1379.41994180129	1172.19995117188
1380.06806288439	1166.40002441406
1380.71610032252	1165.40002441406
1381.36405412326	1169
1382.01192429419	1169.80004882813
1382.65971084287	1170.19995117188
1383.30741377688	1168
1383.95503310381	1163.80004882813
1384.60256883121	1171.80004882813
1385.25002096667	1174.40002441406
1385.89738951775	1173.40002441406
1386.54467449204	1176.19995117188
1387.19187589709	1179.80004882813
1387.8389937405	1182
1388.48602802982	1185.40002441406
1389.13297877262	1177.80004882813
1389.77984597649	1184.40002441406
1390.42662964899	1174
1391.07332979768	1186.80004882813
1391.71994643015	1183.40002441406
1392.36647955395	1188.59997558594
1393.01292917667	1186
1393.65929530586	1184.59997558594
1394.3055779491	1188.40002441406
1394.95177711395	1176
1395.59789280799	1177.80004882813
1396.24392503877	1175.80004882813
1396.88987381387	1173.80004882813
1397.53573914086	1177.19995117188
1398.1815210273	1169.40002441406
1398.82721948075	1170.59997558594
1399.47283450878	1159.59997558594
1400.11836611897	1170.19995117188
1400.76381431886	1160.59997558594
1401.40917911603	1162.40002441406
1402.05446051805	1164.40002441406
1402.69965853247	1167.59997558594
1403.34477316686	1163.59997558594
1403.98980442878	1165
1404.6347523258	1153.80004882813
1405.27961686548	1159.59997558594
1405.92439805538	1152.80004882813
1406.56909590306	1151.40002441406
1407.21371041608	1161.19995117188
1407.85824160202	1158
1408.50268946841	1147.19995117188
1409.14705402284	1150.80004882813
1409.79133527285	1146.19995117188
1410.43553322601	1154.19995117188
1411.07964788987	1158.80004882813
1411.723679272	1159.80004882813
1412.36762737996	1156
1413.01149222129	1156.40002441406
1413.65527380357	1157.59997558594
1414.29897213435	1160
1414.94258722118	1169.59997558594
1415.58611907163	1167.59997558594
1416.22956769325	1160.59997558594
1416.87293309359	1161
1417.51621528021	1148.19995117188
1418.15941426067	1150.80004882813
1418.80253004253	1158.40002441406
1419.44556263333	1152.80004882813
1420.08851204063	1155.80004882813
1420.731378272	1152.19995117188
1421.37416133497	1155.19995117188
1422.0168612371	1149.40002441406
1422.65947798596	1148.59997558594
1423.30201158908	1150.40002441406
1423.94446205403	1139.40002441406
1424.58682938835	1143.40002441406
1425.2291135996	1158.19995117188
1425.87131469532	1152
1426.51343268308	1160.19995117188
1427.15546757042	1162.19995117188
1427.79741936488	1152.40002441406
1428.43928807403	1161.19995117188
1429.0810737054	1164.40002441406
1429.72277626656	1162.80004882813
1430.36439576504	1170
1431.00593220841	1168
1431.64738560419	1173.59997558594
1432.28875595995	1156.40002441406
1432.93004328324	1169.19995117188
1433.57124758159	1165.59997558594
1434.21236886255	1163.80004882813
1434.85340713368	1169.59997558594
1435.49436240252	1158.59997558594
1436.13523467661	1164
1436.77602396349	1171.19995117188
1437.41673027073	1164.40002441406
1438.05735360585	1169.19995117188
1438.69789397641	1164.59997558594
1439.33835138994	1159
1439.978725854	1163.80004882813
1440.61901737612	1162.59997558594
1441.25922596385	1160.40002441406
1441.89935162473	1155.40002441406
1442.53939436631	1161.59997558594
1443.17935419612	1156.80004882813
1443.81923112171	1157.40002441406
1444.45902515061	1145.59997558594
1445.09873629038	1149.40002441406
1445.73836454854	1132.80004882813
1446.37790993265	1148
1447.01737245024	1136.19995117188
1447.65675210885	1149.80004882813
1448.29604891602	1154.59997558594
1448.93526287928	1139.80004882813
1449.57439400618	1148.80004882813
1450.21344230426	1147.80004882813
1450.85240778105	1146.59997558594
1451.49129044409	1153.19995117188
1452.13009030092	1143
1452.76880735907	1150
1453.40744162608	1160.80004882813
1454.04599310949	1160.59997558594
1454.68446181683	1148.80004882813
1455.32284775564	1147.40002441406
1455.96115093345	1147
1456.5993713578	1150.19995117188
1457.23750903623	1154.80004882813
1457.87556397626	1151
1458.51353618543	1146.59997558594
1459.15142567127	1147.59997558594
1459.78923244132	1160.80004882813
1460.42695650311	1153.59997558594
1461.06459786417	1155.80004882813
1461.70215653203	1158.19995117188
1462.33963251423	1157
1462.97702581829	1148.80004882813
1463.61433645175	1153.59997558594
1464.25156442214	1156
1464.88870973699	1158.19995117188
1465.52577240382	1156.59997558594
1466.16275243017	1153
1466.79964982356	1150.40002441406
1467.43646459154	1144
1468.07319674161	1138.19995117188
1468.70984628132	1134.80004882813
1469.34641321818	1132.59997558594
1469.98289755974	1141.40002441406
1470.6192993135	1149
1471.25561848701	1140.19995117188
1471.89185508779	1147
1472.52800912336	1152.80004882813
1473.16408060124	1154
1473.80006952897	1146
1474.43597591407	1148.80004882813
1475.07179976406	1146.80004882813
1475.70754108647	1147.40002441406
1476.34319988883	1147
1476.97877617865	1150.59997558594
1477.61426996345	1147.80004882813
1478.24968125077	1151.80004882813
1478.88501004812	1147.59997558594
1479.52025636303	1148
1480.15542020302	1144.59997558594
1480.79050157561	1137.80004882813
1481.42550048832	1135.19995117188
1482.06041694867	1132.59997558594
1482.69525096418	1141.19995117188
1483.33000254237	1143.80004882813
1483.96467169077	1154
1484.59925841689	1151.40002441406
1485.23376272825	1153.19995117188
1485.86818463237	1154.80004882813
1486.50252413677	1153.40002441406
1487.13678124896	1146.40002441406
1487.77095597646	1150.19995117188
1488.4050483268	1140
1489.03905830749	1144.59997558594
1489.67298592604	1135
1490.30683118996	1149.40002441406
1490.9405941068	1145.80004882813
1491.57427468403	1145.80004882813
1492.2078729292	1146
1492.84138884981	1147
1493.47482245338	1149.40002441406
1494.10817374742	1154.80004882813
1494.74144273944	1147.40002441406
1495.37462943696	1152
1496.0077338475	1147.19995117188
1496.64075597856	1152.80004882813
1497.27369583765	1151.40002441406
1497.9065534323	1148.40002441406
1498.53932877001	1154
1499.17202185829	1160.19995117188
1499.80463270465	1157.40002441406
1500.43716131661	1158.19995117188
1501.06960770167	1169.80004882813
1501.70197186735	1153
1502.33425382116	1161.80004882813
1502.96645357059	1161.40002441406
1503.59857112317	1159
1504.23060648641	1164.80004882813
1504.8625596678	1178.19995117188
1505.49443067486	1168.80004882813
1506.1262195151	1175
1506.75792619602	1171.80004882813
1507.38955072513	1173.19995117188
1508.02109310993	1166.40002441406
1508.65255335794	1165
1509.28393147666	1154.19995117188
1509.91522747359	1160.40002441406
1510.54644135624	1160.80004882813
1511.17757313212	1153.80004882813
1511.80862280872	1170
1512.43959039356	1170
1513.07047589413	1167
1513.70127931795	1164.59997558594
1514.33200067251	1166.59997558594
1514.96263996531	1151.80004882813
1515.59319720386	1148.40002441406
1516.22367239567	1152.40002441406
1516.85406554822	1139.40002441406
1517.48437666903	1146.19995117188
1518.1146057656	1151.80004882813
1518.74475284542	1139.59997558594
1519.374817916	1145.40002441406
1520.00480098483	1142.40002441406
1520.63470205942	1142.19995117188
1521.26452114726	1140
1521.89425825586	1141.40002441406
1522.52391339271	1141
1523.15348656531	1136.59997558594
1523.78297778116	1140.40002441406
1524.41238704775	1142.40002441406
1525.04171437259	1138.59997558594
1525.67095976317	1139.40002441406
1526.30012322699	1131.40002441406
1526.92920477154	1123.59997558594
1527.55820440432	1121.59997558594
1528.18712213283	1134.40002441406
1528.81595796455	1128.19995117188
1529.44471190699	1131.40002441406
1530.07338396764	1133
1530.70197415399	1133
1531.33048247353	1138.59997558594
1531.95890893377	1135.40002441406
1532.58725354219	1130.80004882813
1533.21551630629	1132.19995117188
1533.84369723356	1137.80004882813
1534.47179633148	1137.19995117188
1535.09981360757	1138.40002441406
1535.72774906929	1132.59997558594
1536.35560272415	1127.40002441406
1536.98337457963	1136.40002441406
1537.61106464323	1134.59997558594
1538.23867292243	1136
1538.86619942473	1139.19995117188
1539.49364415762	1134
1540.12100712857	1131.80004882813
1540.74828834509	1127.80004882813
1541.37548781466	1123.59997558594
1542.00260554478	1124.40002441406
1542.62964154291	1120
1543.25659581655	1107.80004882813
1543.8834683732	1118.40002441406
1544.51025922034	1116.19995117188
1545.13696836544	1119.19995117188
1545.76359581601	1116.40002441406
1546.39014157952	1113.80004882813
1547.01660566345	1116.40002441406
1547.64298807531	1112.80004882813
1548.26928882255	1111.80004882813
1548.89550791269	1113.59997558594
1549.52164535318	1109.59997558594
1550.14770115153	1117
1550.77367531521	1119.40002441406
1551.39956785171	1118.80004882813
1552.0253787685	1118
1552.65110807307	1110.19995117188
1553.2767557729	1119.19995117188
1553.90232187548	1111.40002441406
1554.52780638828	1108.80004882813
1555.15320931879	1109
1555.77853067447	1111.19995117188
1556.40377046282	1116
1557.02892869132	1116.80004882813
1557.65400536744	1114
1558.27900049866	1113.59997558594
1558.90391409247	1110.40002441406
1559.52874615633	1106
1560.15349669773	1109.80004882813
1560.77816572414	1111.80004882813
1561.40275324305	1118
1562.02725926192	1118.40002441406
1562.65168378824	1119
1563.27602682948	1116.80004882813
1563.90028839311	1122.40002441406
1564.52446848662	1124.80004882813
1565.14856711748	1119.40002441406
1565.77258429316	1112.59997558594
1566.39652002113	1109.19995117188
1567.02037430887	1119.19995117188
1567.64414716387	1121.59997558594
1568.26783859357	1125.19995117188
1568.89144860547	1123.80004882813
1569.51497720703	1120.19995117188
1570.13842440573	1117
1570.76179020904	1115.59997558594
1571.38507462442	1125.40002441406
1572.00827765936	1124.40002441406
1572.63139932132	1121.19995117188
1573.25443961777	1125.59997558594
1573.87739855618	1128.40002441406
1574.50027614402	1123.59997558594
1575.12307238877	1123.80004882813
1575.74578729789	1115.40002441406
1576.36842087885	1117.19995117188
1576.99097313912	1116.80004882813
1577.61344408616	1125.19995117188
1578.23583372745	1127.80004882813
1578.85814207046	1130.40002441406
1579.48036912264	1133.40002441406
1580.10251489147	1136.59997558594
1580.72457938441	1131.80004882813
1581.34656260893	1138.19995117188
1581.9684645725	1137.80004882813
1582.59028528258	1129.59997558594
1583.21202474663	1136.40002441406
1583.83368297212	1134.40002441406
1584.45525996652	1121.40002441406
1585.07675573728	1121.59997558594
1585.69817029188	1105.40002441406
1586.31950363778	1109.40002441406
1586.94075578243	1106.19995117188
1587.5619267333	1112.19995117188
1588.18301649786	1104.59997558594
1588.80402508357	1099.59997558594
1589.42495249788	1098.40002441406
1590.04579874826	1099.19995117188
1590.66656384217	1101.59997558594
1591.28724778707	1102.59997558594
1591.90785059042	1099.19995117188
1592.52837225968	1107.80004882813
1593.14881280232	1103.40002441406
1593.76917222578	1106
1594.38945053753	1109.40002441406
1595.00964774502	1103.59997558594
1595.62976385573	1100.80004882813
1596.24979887709	1091.80004882813
1596.86975281657	1086.59997558594
1597.48962568164	1086.80004882813
1598.10941747974	1077.59997558594
1598.72912821832	1079.19995117188
1599.34875790486	1084
1599.9683065468	1078.40002441406
1600.58777415159	1083
1601.2071607267	1090.40002441406
1601.82646627958	1088
1602.44569081769	1099.40002441406
1603.06483434846	1088.19995117188
1603.68389687937	1096.19995117188
1604.30287841786	1098.19995117188
1604.92177897139	1089.59997558594
1605.54059854741	1087.19995117188
1606.15933715337	1086.40002441406
1606.77799479672	1095.59997558594
1607.39657148492	1083.40002441406
1608.01506722542	1080
1608.63348202566	1086.40002441406
1609.2518158931	1089.59997558594
1609.87006883519	1086.80004882813
1610.48824085939	1091.59997558594
1611.10633197312	1093.19995117188
1611.72434218386	1091.19995117188
1612.34227149904	1088.19995117188
1612.96011992612	1092.59997558594
1613.57788747254	1095.19995117188
1614.19557414575	1085.80004882813
1614.8131799532	1091.19995117188
1615.43070490234	1081.19995117188
1616.04814900061	1077.80004882813
1616.66551225545	1082
1617.28279467433	1082
1617.89999626467	1085.40002441406
1618.51711703393	1092.59997558594
1619.13415698955	1082.19995117188
1619.75111613898	1085.59997558594
1620.36799448966	1083.40002441406
1620.98479204903	1079.80004882813
1621.60150882455	1086.19995117188
1622.21814482364	1085.59997558594
1622.83470005376	1084
1623.45117452235	1095
1624.06756823685	1091.80004882813
1624.6838812047	1087.40002441406
1625.30011343335	1098.59997558594
1625.91626493022	1100.19995117188
1626.53233570278	1094
1627.14832575845	1098.19995117188
1627.76423510468	1095.59997558594
1628.38006374891	1086
1628.99581169857	1092.59997558594
1629.61147896111	1082.59997558594
1630.22706554397	1082.59997558594
1630.84257145457	1087
1631.45799670038	1082.40002441406
1632.07334128881	1085.59997558594
1632.6886052273	1080.19995117188
1633.3037885233	1079.80004882813
1633.91889118425	1079.19995117188
1634.53391321757	1075
1635.1488546307	1072.59997558594
1635.76371543108	1071.40002441406
1636.37849562616	1074.40002441406
1636.99319522335	1074
1637.60781423009	1074.80004882813
1638.22235265383	1065.40002441406
1638.83681050198	1071.40002441406
1639.451187782	1071
1640.0654845013	1078.19995117188
1640.67970066734	1079.80004882813
1641.29383628752	1077.80004882813
1641.9078913693	1076.59997558594
1642.5218659201	1076.19995117188
1643.13575994735	1073.19995117188
1643.74957345849	1071
1644.36330646094	1075
1644.97695896213	1077
1645.59053096951	1080.40002441406
1646.20402249049	1080.59997558594
1646.8174335325	1080.19995117188
1647.43076410298	1074.19995117188
1648.04401420935	1083
1648.65718385905	1086.80004882813
1649.2702730595	1095.80004882813
1649.88328181812	1089.19995117188
1650.49621014236	1099.80004882813
1651.10905803963	1100
1651.72182551735	1099.40002441406
1652.33451258297	1087
1652.9471192439	1089.40002441406
1653.55964550757	1080.19995117188
1654.1720913814	1085.80004882813
1654.78445687283	1090
1655.39674198926	1081.40002441406
1656.00894673814	1084
1656.62107112688	1076
1657.23311516291	1063
1657.84507885365	1056
1658.45696220652	1050.40002441406
1659.06876522895	1048.19995117188
1659.68048792835	1048.59997558594
1660.29213031217	1052.59997558594
1660.90369238779	1048.19995117188
1661.51517416267	1048.80004882813
1662.12657564421	1057
1662.73789683984	1054
1663.34913775697	1053.80004882813
1663.96029840303	1058.59997558594
1664.57137878544	1058.19995117188
1665.18237891161	1053
1665.79329878897	1052.19995117188
1666.40413842493	1049.80004882813
1667.01489782691	1046.19995117188
1667.62557700233	1046.40002441406
1668.2361759586	1047.59997558594
1668.84669470315	1045.80004882813
1669.4571332434	1047.19995117188
1670.06749158675	1046.19995117188
1670.67776974062	1048
1671.28796771243	1039.59997558594
1671.8980855096	1051
1672.50812313954	1050.80004882813
1673.11808060967	1047.40002441406
1673.72795792739	1038
1674.33775510013	1042.19995117188
1674.9474721353	1042.40002441406
1675.55710904031	1035
1676.16666582257	1036.80004882813
1676.7761424895	1034.59997558594
1677.38553904851	1032.59997558594
1677.99485550702	1033.40002441406
1678.60409187243	1030.19995117188
1679.21324815215	1026.40002441406
1679.8223243536	1024.40002441406
1680.43132048419	1021.59997558594
1681.04023655132	1027
1681.64907256241	1028.40002441406
1682.25782852487	1032.19995117188
1682.86650444611	1026.80004882813
1683.47510033353	1029.80004882813
1684.08361619455	1029.80004882813
1684.69205203657	1027.59997558594
1685.300407867	1021
1685.90868369325	1023.20001220703
1686.51687952272	1021.79998779297
1687.12499536283	1022.79998779297
1687.73303122098	1029.59997558594
1688.34098710457	1028.19995117188
1688.94886302101	1025.80004882813
1689.55665897772	1032.40002441406
1690.16437498208	1033.59997558594
1690.77201104152	1033.19995117188
1691.37956716342	1030
1691.9870433552	1027
1692.59443962426	1023
1693.20175597801	1028.59997558594
1693.80899242384	1029.80004882813
1694.41614896916	1029.59997558594
1695.02322562138	1029
1695.63022238789	1029.80004882813
1696.23713927609	1032.59997558594
1696.8439762934	1034.40002441406
1697.4507334472	1038
1698.05741074491	1037.80004882813
1698.66400819391	1025.59997558594
1699.27052580161	1030.59997558594
1699.87696357542	1028.80004882813
1700.48332152272	1021
1701.08959965092	1022.20001220703
1701.69579796742	1021.59997558594
1702.30191647962	1027
1702.90795519491	1023.20001220703
1703.51391412069	1025.19995117188
1704.11979326437	1024.80004882813
1704.72559263332	1027
1705.33131223496	1017.20001220703
1705.93695207668	1025.80004882813
1706.54251216588	1023.40002441406
1707.14799250994	1025.19995117188
1707.75339311628	1021.20001220703
1708.35871399227	1021.20001220703
1708.96395514532	1019
1709.56911658282	1019.40002441406
