634.948122577771	1360.80004882813
635.690341530823	1380.40002441406
636.43246851086	1363.80004882813
637.174503525845	1369.80004882813
637.916446583745	1385.19995117188
638.658297692538	1392.59997558594
639.400056860179	1402.40002441406
640.141724094637	1401.59997558594
640.883299403885	1400.19995117188
641.62478279588	1399.59997558594
642.366174278594	1388.40002441406
643.107473859989	1378.59997558594
643.848681548029	1390.40002441406
644.589797350679	1396
645.330821275901	1402
646.071753331665	1404.80004882813
646.812593525922	1395.19995117188
647.553341866646	1390
648.293998361798	1379.59997558594
649.03456301933	1378.40002441406
649.775035847216	1383.59997558594
650.515416853409	1389.40002441406
651.255706045874	1381.19995117188
651.995903432568	1409.80004882813
652.736009021453	1405.59997558594
653.476022820486	1413.59997558594
654.215944837629	1398.80004882813
654.955775080842	1415.59997558594
655.695513558081	1411.80004882813
656.435160277301	1412.59997558594
657.174715246465	1394.19995117188
657.914178473527	1407.40002441406
658.653549966449	1394
659.392829733176	1397
660.132017781678	1403.19995117188
660.871114119901	1407.19995117188
661.610118755803	1407.80004882813
662.349031697343	1394.80004882813
663.087852952468	1389.59997558594
663.826582529139	1403.59997558594
664.565220435305	1395
665.30376667892	1392.19995117188
666.04222126794	1394
666.780584210316	1395.40002441406
667.518855514	1402.59997558594
668.25703518694	1405.40002441406
668.995123237096	1411.59997558594
669.733119672413	1415
670.471024500842	1411.80004882813
671.208837730333	1408.19995117188
671.946559368839	1414
672.684189424308	1409.59997558594
673.421727904689	1409.40002441406
674.159174817929	1413.19995117188
674.896530171977	1406.40002441406
675.633793974786	1414.80004882813
676.370966234295	1421.80004882813
677.108046958461	1427.80004882813
677.845036155219	1411.40002441406
678.581933832528	1427.80004882813
679.318739998323	1423
680.055454660558	1421.59997558594
680.792077827172	1411.40002441406
681.528609506116	1408.40002441406
682.265049705331	1410.19995117188
683.001398432759	1427.80004882813
683.737655696349	1427.40002441406
684.47382150404	1410.40002441406
685.20989586378	1417
685.945878783503	1417.19995117188
686.68177027116	1422.80004882813
687.417570334688	1416.80004882813
688.153278982032	1420.59997558594
688.888896221129	1407.40002441406
689.624422059921	1413.80004882813
690.359856506349	1419.40002441406
691.095199568354	1428.40002441406
691.830451253874	1410.80004882813
692.565611570844	1407.19995117188
693.300680527212	1422.80004882813
694.03565813091	1426.19995117188
694.770544389877	1414
695.505339312053	1402.80004882813
696.240042905372	1401.40002441406
696.974655177772	1427.19995117188
697.70917613719	1425.19995117188
698.443605791561	1434.19995117188
699.177944148826	1434
699.912191216909	1430.59997558594
700.646347003755	1424.40002441406
701.380411517295	1410.19995117188
702.114384765465	1415.80004882813
702.848266756195	1432.19995117188
703.582057497421	1423.19995117188
704.315756997074	1436
705.049365263089	1431.59997558594
705.782882303399	1441.59997558594
706.516308125936	1440.59997558594
707.249642738626	1426.40002441406
707.982886149403	1428.80004882813
708.716038366204	1432.59997558594
709.449099396949	1432
710.182069249577	1417
710.914947932009	1432.19995117188
711.647735452181	1442
712.380431818022	1430.59997558594
713.113037037454	1424.59997558594
713.845551118411	1425.80004882813
714.577974068818	1428.80004882813
715.310305896604	1427.80004882813
716.042546609694	1438.19995117188
716.774696216013	1447
717.506754723493	1431.59997558594
718.238722140053	1433.59997558594
718.970598473624	1429.19995117188
719.702383732127	1428
720.43407792349	1414.40002441406
721.165681055634	1424
721.897193136486	1419.59997558594
722.628614173966	1413.80004882813
723.359944175997	1411
724.091183150505	1421.59997558594
724.822331105412	1414
725.553388048638	1425.80004882813
726.284353988106	1423.80004882813
727.015228931734	1436.40002441406
727.746012887449	1440.19995117188
728.476705863162	1434
729.207307866803	1442.40002441406
729.937818906289	1437
730.668238989535	1448.19995117188
731.398568124459	1444.19995117188
732.128806318986	1441.19995117188
732.858953581034	1424.59997558594
733.589009918514	1420
734.318975339348	1426.59997558594
735.048849851452	1410.59997558594
735.778633462744	1410.59997558594
736.508326181137	1421.59997558594
737.237928014549	1423.80004882813
737.967438970897	1427.59997558594
738.696859058095	1437.19995117188
739.426188284054	1442.19995117188
740.155426656692	1435.40002441406
740.884574183922	1444.59997558594
741.613630873659	1437.19995117188
742.342596733815	1441.59997558594
743.071471772302	1428
743.800255997034	1438.59997558594
744.528949415921	1444
745.257552036877	1443.19995117188
745.986063867811	1439.40002441406
746.714484916638	1425.59997558594
747.442815191261	1416.59997558594
748.171054699597	1419.40002441406
748.899203449554	1412.59997558594
749.627261449039	1430
750.355228705966	1444.19995117188
751.083105228239	1432.19995117188
751.810891023765	1428
752.538586100459	1422.40002441406
753.266190466218	1412.40002441406
753.99370412896	1410.80004882813
754.721127096582	1417
755.448459377	1424
756.175700978114	1404.40002441406
756.902851907828	1404
757.629912174055	1413
758.356881784688	1405.19995117188
759.083760747639	1417.80004882813
759.810549070817	1441
760.537246762113	1448.19995117188
761.263853829442	1461.19995117188
761.990370280698	1467.80004882813
762.716796123791	1479.59997558594
763.443131366618	1468.19995117188
764.169376017082	1458.59997558594
764.895530083085	1463
765.621593572527	1453
766.347566493312	1455
767.073448853336	1455
767.799240660502	1469.80004882813
768.524941922707	1482.80004882813
769.250552647854	1498.80004882813
769.976072843836	1507.59997558594
770.701502518551	1514.19995117188
771.426841679905	1509
772.152090335793	1509.80004882813
772.877248494107	1502.59997558594
773.602316162747	1514.40002441406
774.327293349609	1517
775.052180062592	1527.80004882813
775.776976309589	1514
776.501682098496	1515.19995117188
777.226297437206	1507
777.950822333616	1489.19995117188
778.675256795621	1481
779.399600831111	1479.19995117188
780.123854447983	1484.59997558594
780.84801765413	1463
781.572090457441	1472.59997558594
782.296072865811	1473
783.019964887131	1465
783.743766529297	1454.80004882813
784.467477800194	1465.80004882813
785.191098707719	1470
785.914629259756	1468.59997558594
786.638069464194	1454
787.361419328932	1452.59997558594
788.084678861852	1445.19995117188
788.807848070845	1448.19995117188
789.530926963798	1444.40002441406
790.253915548602	1434.59997558594
790.976813833144	1435.40002441406
791.699621825307	1445.80004882813
792.422339532986	1432
793.144966964061	1442.80004882813
793.86750412642	1424.59997558594
794.589951027946	1439.59997558594
795.312307676536	1418.80004882813
796.03457408006	1421.59997558594
796.756750246417	1430.40002441406
797.478836183477	1425.59997558594
798.200831899137	1433.80004882813
798.92273740127	1421.80004882813
799.644552697769	1435.80004882813
800.36627779651	1412.59997558594
801.087912705374	1420.19995117188
801.809457432251	1422.80004882813
802.530911985017	1409.80004882813
803.252276371558	1407.59997558594
803.973550599748	1404
804.694734677472	1404.40002441406
805.415828612611	1404.40002441406
806.136832413045	1412.40002441406
806.857746086646	1394.59997558594
807.578569641305	1410
808.299303084892	1420
809.019946425289	1417.40002441406
809.740499670372	1421.80004882813
810.460962828022	1427
811.181335906114	1423.19995117188
811.901618912524	1418.80004882813
812.621811855131	1425.59997558594
813.341914741809	1416.80004882813
814.061927580433	1419
814.781850378881	1390.59997558594
815.501683145025	1378.59997558594
816.221425886743	1392.59997558594
816.941078611903	1394.40002441406
817.660641328387	1400
818.380114044065	1407
819.099496766808	1411.59997558594
819.818789504492	1408.80004882813
820.53799226499	1410
821.257105056168	1403.40002441406
821.976127885904	1404.40002441406
822.695060762064	1401.80004882813
823.413903692525	1410
824.132656685151	1397.40002441406
824.851319747817	1399.19995117188
825.569892888388	1416
826.288376114739	1413
827.006769434737	1413.80004882813
827.725072856249	1413
828.443286387142	1408.80004882813
829.161410035285	1397.80004882813
829.87944380855	1421
830.597387714798	1420
831.315241761898	1419.19995117188
832.033005957715	1428.40002441406
832.750680310119	1425.59997558594
833.468264826969	1423
834.18575951614	1424.59997558594
834.903164385486	1423
835.620479442878	1418
836.337704696181	1418.40002441406
837.054840153255	1434.19995117188
837.771885821962	1416
838.488841710172	1423.19995117188
839.20570782574	1418
839.922484176531	1414
840.639170770409	1404.80004882813
841.355767615231	1417.80004882813
842.072274718864	1400
842.788692089164	1419
843.505019733993	1423
844.221257661209	1413.80004882813
844.937405878676	1416
845.65346439425	1403.40002441406
846.369433215789	1395.19995117188
847.085312351156	1396
847.801101808205	1389.80004882813
848.516801594793	1379.59997558594
849.232411718781	1385.40002441406
849.947932188021	1400.19995117188
850.663363010376	1403.59997558594
851.378704193698	1399.19995117188
852.093955745842	1411.80004882813
852.809117674669	1402
853.524189988028	1407.19995117188
854.239172693778	1422.59997558594
854.954065799768	1399.59997558594
855.668869313857	1393
856.383583243899	1396.19995117188
857.098207597743	1395.80004882813
857.812742383246	1414
858.527187608255	1416
859.241543280628	1398.40002441406
859.955809408218	1420.19995117188
860.669985998868	1412.80004882813
861.384073060437	1411.19995117188
862.098070600772	1395.80004882813
862.811978627724	1408
863.52579714914	1402.19995117188
864.239526172873	1395
864.953165706776	1391.80004882813
865.666715758687	1395
866.380176336464	1383
867.093547447951	1404.40002441406
867.806829100996	1388.40002441406
868.520021303444	1392
869.233124063149	1389.19995117188
869.94613738795	1389.40002441406
870.659061285693	1398.19995117188
871.37189576423	1398.19995117188
872.084640831403	1408.19995117188
872.797296495057	1411.40002441406
873.509862763039	1396.19995117188
874.22233964319	1393.40002441406
874.934727143353	1402.19995117188
875.647025271374	1396
876.359234035097	1389.59997558594
877.071353442361	1398.40002441406
877.783383501015	1398.19995117188
878.495324218895	1392.19995117188
879.207175603844	1405.80004882813
879.918937663705	1407
880.630610406318	1404.80004882813
881.342193839524	1391.40002441406
882.053687971161	1387.59997558594
882.765092809069	1394.19995117188
883.476408361091	1398.19995117188
884.187634635066	1397.59997558594
884.898771638828	1402
885.609819380221	1406.19995117188
886.320777867076	1393.40002441406
887.031647107236	1388
887.742427108536	1388
888.453117878816	1387
889.16371942591	1388.80004882813
889.874231757652	1394.40002441406
890.584654881883	1392.40002441406
891.294988806434	1383.19995117188
892.005233539141	1403.80004882813
892.715389087837	1403.80004882813
893.42545546036	1403.40002441406
894.135432664543	1416.40002441406
894.845320708216	1404.40002441406
895.555119599216	1407.19995117188
896.264829345375	1395.80004882813
896.974449954526	1401.80004882813
897.683981434496	1402
898.393423793125	1403.59997558594
899.102777038235	1390.40002441406
899.812041177664	1407.80004882813
900.521216219239	1397.80004882813
901.230302170793	1401
901.939299040155	1403.19995117188
902.64820683515	1392.40002441406
903.357025563612	1393.80004882813
904.065755233368	1401
904.774395852247	1415.59997558594
905.482947428076	1412.19995117188
906.191409968682	1409.19995117188
906.899783481897	1413.80004882813
907.608067975538	1403.19995117188
908.316263457443	1415.80004882813
909.02436993543	1412.80004882813
909.732387417327	1405
910.440315910959	1394.40002441406
911.148155424154	1390.40002441406
911.855905964731	1405.59997558594
912.563567540521	1400.40002441406
913.271140159339	1406.19995117188
913.978623829017	1402
914.686018557374	1390
915.393324352237	1395.59997558594
916.100541221421	1403.80004882813
916.807669172752	1416.19995117188
917.514708214054	1410.40002441406
918.221658353142	1401
918.928519597843	1403.40002441406
919.635291955976	1386.19995117188
920.341975435358	1405.40002441406
921.048570043813	1397.59997558594
921.75507578916	1403.40002441406
922.461492679212	1415
923.167820721795	1411
923.874059924726	1428.40002441406
924.58021029582	1415.59997558594
925.286271842893	1409.19995117188
925.992244573769	1402.19995117188
926.698128496262	1399
927.403923618184	1413
928.109629947355	1400.19995117188
928.815247491593	1402.40002441406
929.520776258708	1415.80004882813
930.226216256519	1401.19995117188
930.931567492841	1395.59997558594
931.636829975482	1393.80004882813
932.342003712263	1393.80004882813
933.047088710995	1390.80004882813
933.752084979491	1398.59997558594
934.456992525564	1391.40002441406
935.161811357024	1396.59997558594
935.866541481688	1392
936.571182907363	1386.40002441406
937.275735641861	1384
937.980199692995	1384.19995117188
938.684575068572	1368.80004882813
939.388861776411	1374
940.093059824311	1380
940.797169220085	1386.59997558594
941.501189971544	1381.80004882813
942.205122086495	1385.19995117188
942.908965572751	1375.59997558594
943.612720438111	1374
944.316386690391	1373
945.019964337391	1390.80004882813
945.723453386924	1389.19995117188
946.426853846795	1394.19995117188
947.130165724808	1386
947.83338902877	1394.59997558594
948.536523766488	1394
949.239569945764	1384
949.942527574402	1375.19995117188
950.64539666021	1382.19995117188
951.348177210993	1390.19995117188
952.050869234548	1391.19995117188
952.753472738683	1381.59997558594
953.455987731199	1390
954.158414219898	1385.40002441406
954.860752212587	1393.59997558594
955.563001717061	1400.40002441406
956.265162741124	1388.19995117188
956.967235292576	1382.40002441406
957.669219379224	1395.59997558594
958.371115008857	1374
959.072922189283	1376.59997558594
959.774640928301	1377.40002441406
960.476271233708	1369.80004882813
961.177813113301	1386.19995117188
961.879266574882	1385.40002441406
962.580631626248	1386.80004882813
963.281908275194	1395.80004882813
963.98309652952	1379.59997558594
964.684196397022	1371.80004882813
965.3852078855	1362.59997558594
966.086131002745	1364.40002441406
966.786965756555	1362.40002441406
967.487712154726	1352
968.188370205055	1366.40002441406
968.888939915331	1374.59997558594
969.589421293352	1384
970.289814346909	1390
970.990119083801	1383
971.690335511819	1380.80004882813
972.39046363875	1383.19995117188
973.090503472398	1375.40002441406
973.790455020545	1366
974.490318290987	1361.80004882813
975.190093291516	1370.80004882813
975.889780029923	1366.40002441406
976.589378513998	1363.40002441406
977.288888751527	1378.40002441406
977.988310750308	1372
978.687644518122	1375
979.386890062767	1369
980.086047392025	1369.19995117188
980.785116513689	1377.19995117188
981.484097435542	1368.80004882813
982.182990165377	1364.80004882813
982.88179471098	1362.59997558594
983.580511080137	1373.19995117188
984.279139280632	1382
984.977679320253	1385
985.67613120679	1387
986.374494948027	1383.59997558594
987.072770551745	1391.40002441406
987.770958025731	1385.40002441406
988.469057377772	1386.80004882813
989.167068615649	1374.80004882813
989.864991747145	1387
990.562826780047	1362.59997558594
991.260573722134	1365.40002441406
991.958232581195	1362.59997558594
992.655803365003	1346
993.353286081346	1356.40002441406
994.050680738006	1360
994.74798734276	1351.19995117188
995.44520590339	1354.40002441406
996.142336427681	1356
996.839378923407	1370.40002441406
997.536333398348	1367.40002441406
998.233199860289	1382.40002441406
998.929978317004	1376.19995117188
999.626668776274	1371.80004882813
1000.32327124587	1378.59997558594
1001.01978573359	1359.80004882813
1001.71621224718	1376.80004882813
1002.41255079445	1372.40002441406
1003.10880138315	1352.19995117188
1003.80496402107	1360.19995117188
1004.50103871599	1353.40002441406
1005.19702547567	1353.40002441406
1005.8929243079	1365
1006.58873522045	1353.19995117188
1007.2844582211	1370
1007.98009331761	1365.19995117188
1008.67564051776	1369.80004882813
1009.37109982933	1369.40002441406
1010.06647126009	1375
1010.7617548178	1373.80004882813
1011.45695051026	1372
1012.15205834522	1367
1012.84707833045	1363
1013.54201047373	1353.40002441406
1014.23685478284	1352.80004882813
1014.93161126553	1357
1015.62627992959	1349.59997558594
1016.32086078277	1348
1017.01535383285	1367.40002441406
1017.70975908761	1361.19995117188
1018.40407655479	1364.80004882813
1019.09830624219	1363.59997558594
1019.79244815755	1365
1020.48650230866	1351.19995117188
1021.18046870328	1354
1021.87434734917	1343.80004882813
1022.56813825411	1340.40002441406
1023.26184142584	1342.19995117188
1023.95545687216	1366.59997558594
1024.64898460082	1357.19995117188
1025.34242461957	1355
1026.0357769362	1360.59997558594
1026.72904155846	1354
1027.42221849412	1351.19995117188
1028.11530775094	1374.19995117188
1028.80830933668	1369.59997558594
1029.50122325911	1367.19995117188
1030.19404952599	1367.59997558594
1030.88678814508	1350.59997558594
1031.57943912414	1361
1032.27200247093	1371.40002441406
1032.96447819323	1360.80004882813
1033.65686629878	1358.19995117188
1034.34916679534	1370.80004882813
1035.04137969068	1361.40002441406
1035.73350499256	1357.40002441406
1036.42554270874	1348.80004882813
1037.11749284697	1344.80004882813
1037.80935541501	1350
1038.50113042062	1367.80004882813
1039.19281787156	1347.19995117188
1039.88441777559	1348.40002441406
1040.57593014046	1337.40002441406
1041.26735497393	1341.80004882813
1041.95869228376	1339.59997558594
1042.6499420777	1341.80004882813
1043.3411043635	1343.19995117188
1044.03217914893	1349.80004882813
1044.72316644174	1361.40002441406
1045.41406624968	1356.80004882813
1046.1048785805	1348.80004882813
1046.79560344197	1345.59997558594
1047.48624084182	1344
1048.17679078783	1347.40002441406
1048.86725328774	1345.59997558594
1049.55762834929	1365.59997558594
1050.24791598025	1357.59997558594
1050.93811618837	1345.80004882813
1051.62822898139	1354.59997558594
1052.31825436707	1349
1053.00819235315	1342.19995117188
1053.6980429474	1344.40002441406
1054.38780615755	1354
1055.07748199136	1359
1055.76707045658	1349.59997558594
1056.45657156095	1350.19995117188
1057.14598531222	1353.19995117188
1057.83531171814	1334.59997558594
1058.52455078646	1329.59997558594
1059.21370252494	1326
1059.90276694129	1325.59997558594
1060.5917440433	1336.19995117188
1061.28063383868	1321.19995117188
1061.9694363352	1317.80004882813
1062.65815154059	1318.80004882813
1063.34677946261	1314
1064.03532010899	1322.40002441406
1064.72377348748	1333
1065.41213960583	1334
1066.10041847177	1315.40002441406
1066.78861009306	1326.80004882813
1067.47671447743	1329
1068.16473163263	1327.40002441406
1068.85266156639	1335.80004882813
1069.54050428647	1345.19995117188
1070.2282598006	1334
1070.91592811652	1345
1071.60350924198	1335.59997558594
1072.29100318471	1331
1072.97840995245	1329.40002441406
1073.66572955295	1330.40002441406
1074.35296199394	1318.59997558594
1075.04010728316	1328.40002441406
1075.72716542836	1321.40002441406
1076.41413643726	1317.80004882813
1077.10102031761	1330.19995117188
1077.78781707715	1336.59997558594
1078.4745267236	1339.19995117188
1079.16114926471	1332.19995117188
1079.84768470822	1328.40002441406
1080.53413306185	1320.19995117188
1081.22049433336	1322.19995117188
1081.90676853046	1323
1082.5929556609	1319.40002441406
1083.27905573241	1310.40002441406
1083.96506875272	1316.19995117188
1084.65099472957	1315.19995117188
1085.3368336707	1324.80004882813
1086.02258558383	1341.19995117188
1086.70825047669	1342.59997558594
1087.39382835703	1349.59997558594
1088.07931923257	1342.80004882813
1088.76472311104	1338.40002441406
1089.45004000018	1342.19995117188
1090.13526990771	1332
1090.82041284137	1333.80004882813
1091.50546880889	1331.80004882813
1092.19043781799	1345.40002441406
1092.87531987642	1333
1093.56011499188	1335.59997558594
1094.24482317212	1328
1094.92944442486	1330.40002441406
1095.61397875783	1337.59997558594
1096.29842617876	1327.19995117188
1096.98278669537	1342.40002441406
1097.6670603154	1337
1098.35124704656	1343.40002441406
1099.03534689659	1342.19995117188
1099.71935987322	1335.19995117188
1100.40328598416	1332.80004882813
1101.08712523713	1321.19995117188
1101.77087763988	1332.59997558594
1102.45454320012	1323.80004882813
1103.13812192557	1326.59997558594
1103.82161382396	1315.40002441406
1104.50501890301	1307.40002441406
1105.18833717045	1299
1105.87156863399	1305.59997558594
1106.55471330137	1321.40002441406
1107.2377711803	1319.40002441406
1107.9207422785	1302.19995117188
1108.60362660369	1311.80004882813
1109.2864241636	1309.19995117188
1109.96913496594	1317
1110.65175901844	1320.19995117188
1111.33429632882	1315.59997558594
1112.01674690479	1321
1112.69911075408	1308.80004882813
1113.38138788439	1307
1114.06357830346	1299
1114.745682019	1311
1115.42769903872	1316
1116.10962937035	1313.40002441406
1116.7914730216	1312.19995117188
1117.47323000018	1323.80004882813
1118.15490031382	1328.40002441406
1118.83648397022	1329
1119.51798097712	1340.19995117188
1120.1993913422	1333
1120.88071507321	1332.40002441406
1121.56195217784	1319.19995117188
1122.24310266381	1324.40002441406
1122.92416653884	1330.59997558594
1123.60514381064	1315.40002441406
1124.28603448692	1325.80004882813
1124.9668385754	1309.59997558594
1125.64755608378	1313.19995117188
1126.32818701978	1305
1127.00873139111	1313.59997558594
1127.68918920548	1320.59997558594
1128.3695604706	1311.59997558594
1129.04984519419	1315.59997558594
1129.73004338394	1320.19995117188
1130.41015504758	1311.40002441406
1131.09018019281	1303
1131.77011882734	1326
1132.44997095888	1309
1133.12973659514	1302
1133.80941574381	1323.40002441406
1134.48900841263	1319.59997558594
1135.16851460927	1321.40002441406
1135.84793434147	1313.80004882813
1136.52726761692	1314
1137.20651444333	1317.59997558594
1137.8856748284	1308
1138.56474877984	1314.59997558594
1139.24373630536	1309.80004882813
1139.92263741265	1307.59997558594
1140.60145210943	1319.59997558594
1141.28018040339	1317.19995117188
1141.95882230225	1320.19995117188
1142.6373778137	1317.59997558594
1143.31584694545	1311.19995117188
1143.99422970519	1310.59997558594
1144.67252610064	1304.40002441406
1145.35073613949	1297
1146.02885982944	1299.40002441406
1146.7068971782	1306
1147.38484819347	1306.19995117188
1148.06271288294	1288
1148.74049125432	1297.40002441406
1149.41818331531	1301.59997558594
1150.0957890736	1304
1150.77330853689	1300
1151.45074171289	1311.59997558594
1152.12808860928	1298.80004882813
1152.80534923378	1283.59997558594
1153.48252359407	1302
1154.15961169786	1299.40002441406
1154.83661355283	1311.59997558594
1155.51352916669	1302.40002441406
1156.19035854713	1305.59997558594
1156.86710170185	1298.59997558594
1157.54375863855	1296.80004882813
1158.22032936491	1287.80004882813
1158.89681388863	1287.80004882813
1159.57321221741	1276.19995117188
1160.24952435894	1279
1160.92575032092	1278.19995117188
1161.60189011103	1279.19995117188
1162.27794373697	1285.19995117188
1162.95391120644	1281.80004882813
1163.62979252712	1283.80004882813
1164.3055877067	1276
1164.98129675288	1287.19995117188
1165.65691967336	1288
1166.33245647581	1287.40002441406
1167.00790716792	1299.80004882813
1167.6832717574	1297.19995117188
1168.35855025193	1282.80004882813
1169.0337426592	1280.59997558594
1169.70884898689	1274.59997558594
1170.3838692427	1278.80004882813
1171.05880343431	1280
1171.73365156941	1284
1172.40841365569	1291.59997558594
1173.08308970083	1286.80004882813
1173.75767971253	1296
1174.43218369847	1292.80004882813
1175.10660166633	1299.80004882813
1175.7809336238	1282.80004882813
1176.45517957857	1280.59997558594
1177.12933953832	1287.40002441406
1177.80341351073	1298.19995117188
1178.47740150349	1297.40002441406
1179.15130352429	1303.40002441406
1179.8251195808	1299.19995117188
1180.49884968071	1304.19995117188
1181.1724938317	1301.19995117188
1181.84605204145	1291.80004882813
1182.51952431766	1296.80004882813
1183.19291066799	1297.19995117188
1183.86621110013	1287
1184.53942562176	1301.59997558594
1185.21255424057	1295.19995117188
1185.88559696422	1301
1186.55855380041	1299.40002441406
1187.2314247568	1294.40002441406
1187.90420984109	1287.19995117188
1188.57690906095	1293.59997558594
1189.24952242405	1294.80004882813
1189.92204993808	1301.40002441406
1190.59449161071	1304.19995117188
1191.26684744962	1307
1191.93911746249	1293
1192.61130165699	1291.40002441406
1193.28340004081	1288.80004882813
1193.95541262161	1304.40002441406
1194.62733940707	1310.80004882813
1195.29918040487	1304.80004882813
1195.97093562269	1298.59997558594
1196.64260506819	1298.80004882813
1197.31418874905	1293
1197.98568667295	1290.19995117188
1198.65709884755	1290.80004882813
1199.32842528053	1290.40002441406
1199.99966597957	1300.19995117188
1200.67082095234	1289.59997558594
1201.3418902065	1289.19995117188
1202.01287374974	1279.80004882813
1202.68377158971	1281.59997558594
1203.3545837341	1283.80004882813
1204.02531019057	1277
1204.6959509668	1284
1205.36650607045	1290.40002441406
1206.03697550919	1305.19995117188
1206.70735929069	1288.59997558594
1207.37765742263	1281.40002441406
1208.04786991266	1293
1208.71799676846	1282.80004882813
1209.38803799769	1285.40002441406
1210.05799360803	1284.19995117188
1210.72786360714	1284.40002441406
1211.39764800268	1282.19995117188
1212.06734680233	1274.59997558594
1212.73696001375	1274.80004882813
1213.4064876446	1267.19995117188
1214.07592970255	1272.59997558594
1214.74528619526	1270
1215.4145571304	1265.40002441406
1216.08374251564	1279.40002441406
1216.75284235863	1282.19995117188
1217.42185666704	1280.40002441406
1218.09078544854	1290
1218.75962871078	1293.40002441406
1219.42838646143	1267.40002441406
1220.09705870816	1271
1220.76564545861	1266.40002441406
1221.43414672046	1271.19995117188
1222.10256250136	1263.59997558594
1222.77089280898	1280.19995117188
1223.43913765098	1271.80004882813
1224.107297035	1284.19995117188
1224.77537096873	1278.19995117188
1225.44335945981	1272.59997558594
1226.1112625159	1270.19995117188
1226.77908014467	1282.59997558594
1227.44681235376	1272.59997558594
1228.11445915085	1281
1228.78202054357	1274.40002441406
1229.44949653961	1273
1230.11688714659	1273
1230.7841923722	1279.80004882813
1231.45141222407	1273.59997558594
1232.11854670988	1274.59997558594
1232.78559583726	1268.19995117188
1233.45255961388	1271.40002441406
1234.1194380474	1272.59997558594
1234.78623114546	1266.40002441406
1235.45293891572	1257.19995117188
1236.11956136583	1254.59997558594
1236.78609850345	1257
1237.45255033623	1261
1238.11891687182	1247
1238.78519811788	1243
1239.45139408205	1241.40002441406
1240.11750477198	1238.40002441406
1240.78353019534	1248.19995117188
1241.44947035976	1260.40002441406
1242.11532527291	1263.80004882813
1242.78109494242	1257.59997558594
1243.44677937595	1261
1244.11237858115	1261.80004882813
1244.77789256567	1261.80004882813
1245.44332133715	1255.59997558594
1246.10866490325	1252.59997558594
1246.7739232716	1255.19995117188
1247.43909644987	1260
1248.10418444569	1261
1248.76918726671	1262.19995117188
1249.43410492059	1257
1250.09893741496	1261
1250.76368475747	1253.59997558594
1251.42834695576	1243.80004882813
1252.09292401749	1247.80004882813
1252.75741595029	1246.80004882813
1253.42182276182	1233.40002441406
1254.08614445971	1238.80004882813
1254.75038105161	1237.59997558594
1255.41453254515	1242
1256.07859894799	1245.19995117188
1256.74258026777	1241.19995117188
1257.40647651213	1236.40002441406
1258.0702876887	1245.19995117188
1258.73401380514	1231.59997558594
1259.39765486908	1242.80004882813
1260.06121088817	1249
1260.72468187004	1241.40002441406
1261.38806782233	1243.40002441406
1262.05136875269	1255.80004882813
1262.71458466875	1245.80004882813
1263.37771557815	1244.80004882813
1264.04076148854	1242
1264.70372240753	1243
1265.3665983428	1248.40002441406
1266.02938930195	1248.59997558594
1266.69209529263	1245.59997558594
1267.35471632249	1242.80004882813
1268.01725239914	1249
1268.67970353024	1253.19995117188
1269.34206972342	1255
1270.00435098631	1249.19995117188
1270.66654732655	1248
1271.32865875177	1243.59997558594
1271.9906852696	1245.19995117188
1272.65262688768	1249.59997558594
1273.31448361365	1256.80004882813
1273.97625545514	1241
1274.63794241978	1236.40002441406
1275.2995445152	1232
1275.96106174903	1234.80004882813
1276.62249412892	1230
1277.28384166248	1229.80004882813
1277.94510435735	1230.40002441406
1278.60628222116	1238.59997558594
1279.26737526155	1233.19995117188
1279.92838348613	1232.80004882813
1280.58930690255	1235
1281.25014551842	1225.80004882813
1281.91089934139	1230.80004882813
1282.57156837907	1230.40002441406
1283.2321526391	1228.59997558594
1283.89265212911	1231.40002441406
1284.55306685671	1220.59997558594
1285.21339682955	1224.80004882813
1285.87364205525	1234.80004882813
1286.53380254142	1239.40002441406
1287.19387829571	1238.80004882813
1287.85386932573	1241.19995117188
1288.51377563911	1235.40002441406
1289.17359724348	1239.59997558594
1289.83333414646	1250.40002441406
1290.49298635567	1240
1291.15255387874	1249
1291.8120367233	1244.59997558594
1292.47143489696	1239.19995117188
1293.13074840736	1239.19995117188
1293.7899772621	1235.80004882813
1294.44912146882	1233.59997558594
1295.10818103513	1244
1295.76715596866	1240.59997558594
1296.42604627704	1253.80004882813
1297.08485196787	1241
1297.74357304878	1254.80004882813
1298.4022095274	1245.40002441406
1299.06076141134	1246.80004882813
1299.71922870821	1243.19995117188
1300.37761142565	1249.80004882813
1301.03590957126	1243.40002441406
1301.69412315268	1248.19995117188
1302.3522521775	1250.40002441406
1303.01029665336	1243.40002441406
1303.66825658787	1254.19995117188
1304.32613198865	1252.80004882813
1304.98392286332	1248.80004882813
1305.64162921948	1265.59997558594
1306.29925106476	1254.80004882813
1306.95678840677	1257.19995117188
1307.61424125312	1267.19995117188
1308.27160961145	1278.59997558594
1308.92889348934	1260.40002441406
1309.58609289443	1262.59997558594
1310.24320783432	1257.40002441406
1310.90023831664	1260.59997558594
1311.55718434898	1255
1312.21404593897	1270.59997558594
1312.87082309421	1269.59997558594
1313.52751582233	1267.80004882813
1314.18412413092	1269.59997558594
1314.84064802761	1262.19995117188
1315.49708752	1260.59997558594
1316.1534426157	1266.59997558594
1316.80971332233	1263.40002441406
1317.46589964749	1260.19995117188
1318.1220015988	1255.80004882813
1318.77801918386	1243.19995117188
1319.43395241028	1248.59997558594
1320.08980128567	1244.80004882813
1320.74556581764	1244.19995117188
1321.4012460138	1255.40002441406
1322.05684188176	1250.40002441406
1322.71235342911	1247.80004882813
1323.36778066347	1243.40002441406
1324.02312359245	1246.19995117188
1324.67838222365	1244
1325.33355656468	1250
1325.98864662314	1240.19995117188
1326.64365240663	1231.80004882813
1327.29857392277	1232.80004882813
1327.95341117915	1223.19995117188
1328.60816418339	1232.40002441406
1329.26283294308	1221
1329.91741746582	1222.40002441406
1330.57191775923	1230.59997558594
1331.2263338309	1223.19995117188
1331.88066568843	1222.80004882813
1332.53491333943	1227.40002441406
1333.1890767915	1224.59997558594
1333.84315605224	1221
1334.49715112925	1224.80004882813
1335.15106203013	1219.80004882813
1335.80488876249	1223.80004882813
1336.45863133391	1213.59997558594
1337.112289752	1220.19995117188
1337.76586402437	1215
1338.4193541586	1221.59997558594
1339.0727601623	1217.59997558594
1339.72608204306	1207.19995117188
1340.37931980849	1201.80004882813
1341.03247346617	1221.19995117188
1341.68554302372	1223
1342.33852848871	1226.59997558594
1342.99142986876	1223.59997558594
1343.64424717145	1222.80004882813
1344.29698040438	1222.59997558594
1344.94962957515	1217.19995117188
1345.60219469135	1230.59997558594
1346.25467576058	1224.40002441406
1346.90707279042	1239.59997558594
1347.55938578848	1228.80004882813
1348.21161476235	1218
1348.86375971962	1219.59997558594
1349.51582066787	1210.19995117188
1350.16779761472	1207
1350.81969056774	1222.40002441406
1351.47149953453	1224.19995117188
1352.12322452269	1241.40002441406
1352.77486553979	1247.40002441406
1353.42642259344	1246.40002441406
1354.07789569122	1244.80004882813
1354.72928484072	1255.80004882813
1355.38059004953	1257.59997558594
1356.03181132525	1260.59997558594
1356.68294867545	1249.40002441406
1357.33400210773	1252.80004882813
1357.98497162968	1255.19995117188
1358.63585724889	1254.59997558594
1359.28665897294	1257.80004882813
1359.93737680942	1262.19995117188
1360.58801076591	1262.80004882813
1361.23856085001	1269.59997558594
1361.88902706929	1269
1362.53940943135	1257.59997558594
1363.18970794377	1269.40002441406
1363.83992261413	1280.40002441406
1364.49005345003	1287.19995117188
1365.14010045904	1282.80004882813
1365.79006364874	1290.40002441406
1366.43994302673	1290
1367.08973860058	1277.19995117188
1367.73945037788	1265.59997558594
1368.38907836621	1271.40002441406
1369.03862257315	1267.59997558594
1369.68808300629	1257
1370.3374596732	1247.80004882813
1370.98675258148	1238.59997558594
1371.63596173868	1232.59997558594
1372.28508715241	1234.19995117188
1372.93412883024	1249
1373.58308677974	1244.19995117188
1374.2319610085	1243.59997558594
1374.8807515241	1239.80004882813
1375.52945833412	1245.59997558594
1376.17808144612	1225.19995117188
1376.82662086771	1218
1377.47507660644	1211
1378.12344866989	1214.19995117188
1378.77173706565	1217
1379.41994180129	1216.80004882813
1380.06806288439	1218.19995117188
1380.71610032252	1215.80004882813
1381.36405412326	1208.19995117188
1382.01192429419	1196.40002441406
1382.65971084287	1191.19995117188
1383.30741377688	1184.80004882813
1383.95503310381	1191.40002441406
1384.60256883121	1200.19995117188
1385.25002096667	1204
1385.89738951775	1201
1386.54467449204	1210.19995117188
1387.19187589709	1205.80004882813
1387.8389937405	1212
1388.48602802982	1205.19995117188
1389.13297877262	1202.59997558594
1389.77984597649	1193.80004882813
1390.42662964899	1195
1391.07332979768	1186
1391.71994643015	1193.80004882813
1392.36647955395	1186.59997558594
1393.01292917667	1186
1393.65929530586	1192.80004882813
1394.3055779491	1188.40002441406
1394.95177711395	1180.80004882813
1395.59789280799	1186
1396.24392503877	1194.40002441406
1396.88987381387	1189.19995117188
1397.53573914086	1176.59997558594
1398.1815210273	1184.40002441406
1398.82721948075	1195.19995117188
1399.47283450878	1202.80004882813
1400.11836611897	1196
1400.76381431886	1196.19995117188
1401.40917911603	1186.19995117188
1402.05446051805	1180.19995117188
1402.69965853247	1187
1403.34477316686	1190
1403.98980442878	1186.59997558594
1404.6347523258	1189.80004882813
1405.27961686548	1188
1405.92439805538	1189.19995117188
1406.56909590306	1184.40002441406
1407.21371041608	1191.80004882813
1407.85824160202	1190.19995117188
1408.50268946841	1193
1409.14705402284	1192.19995117188
1409.79133527285	1190.59997558594
1410.43553322601	1181.40002441406
1411.07964788987	1190.40002441406
1411.723679272	1180.40002441406
1412.36762737996	1178.19995117188
1413.01149222129	1175.19995117188
1413.65527380357	1184.19995117188
1414.29897213435	1181.19995117188
1414.94258722118	1180.40002441406
1415.58611907163	1176
1416.22956769325	1181.59997558594
1416.87293309359	1181.59997558594
1417.51621528021	1195.80004882813
1418.15941426067	1179.40002441406
1418.80253004253	1185.19995117188
1419.44556263333	1190.59997558594
1420.08851204063	1188.80004882813
1420.731378272	1199.80004882813
1421.37416133497	1194.19995117188
1422.0168612371	1187
1422.65947798596	1176.59997558594
1423.30201158908	1186.80004882813
1423.94446205403	1181.40002441406
1424.58682938835	1184.59997558594
1425.2291135996	1182
1425.87131469532	1179.59997558594
1426.51343268308	1189.40002441406
1427.15546757042	1191.80004882813
1427.79741936488	1189
1428.43928807403	1191.59997558594
1429.0810737054	1197.19995117188
1429.72277626656	1183.19995117188
1430.36439576504	1188
1431.00593220841	1197
1431.64738560419	1186.80004882813
1432.28875595995	1190.80004882813
1432.93004328324	1192
1433.57124758159	1183.40002441406
1434.21236886255	1185.80004882813
1434.85340713368	1190
1435.49436240252	1185.59997558594
1436.13523467661	1176.40002441406
1436.77602396349	1195.19995117188
1437.41673027073	1201.59997558594
1438.05735360585	1195
1438.69789397641	1190.40002441406
1439.33835138994	1191.40002441406
1439.978725854	1191.59997558594
1440.61901737612	1192.19995117188
1441.25922596385	1195.40002441406
1441.89935162473	1195.40002441406
1442.53939436631	1203
1443.17935419612	1199.19995117188
1443.81923112171	1191.40002441406
1444.45902515061	1194.40002441406
1445.09873629038	1195
1445.73836454854	1187.40002441406
1446.37790993265	1181.59997558594
1447.01737245024	1178.59997558594
1447.65675210885	1178.19995117188
1448.29604891602	1193.40002441406
1448.93526287928	1190.19995117188
1449.57439400618	1190.59997558594
1450.21344230426	1193.19995117188
1450.85240778105	1186.19995117188
1451.49129044409	1195.40002441406
1452.13009030092	1189.59997558594
1452.76880735907	1183.40002441406
1453.40744162608	1189.59997558594
1454.04599310949	1182.19995117188
1454.68446181683	1176.40002441406
1455.32284775564	1175.19995117188
1455.96115093345	1177.40002441406
1456.5993713578	1180.40002441406
1457.23750903623	1171.59997558594
1457.87556397626	1166.40002441406
1458.51353618543	1165
1459.15142567127	1166.40002441406
1459.78923244132	1173.80004882813
1460.42695650311	1172
1461.06459786417	1175
1461.70215653203	1176.80004882813
1462.33963251423	1176
1462.97702581829	1174.80004882813
1463.61433645175	1178
1464.25156442214	1170.40002441406
1464.88870973699	1173.59997558594
1465.52577240382	1174.59997558594
1466.16275243017	1169
1466.79964982356	1174.19995117188
1467.43646459154	1173.19995117188
1468.07319674161	1177
1468.70984628132	1169.80004882813
1469.34641321818	1176.19995117188
1469.98289755974	1182.80004882813
1470.6192993135	1172.59997558594
1471.25561848701	1176.80004882813
1471.89185508779	1184.80004882813
1472.52800912336	1168.40002441406
1473.16408060124	1159.80004882813
1473.80006952897	1158.80004882813
1474.43597591407	1162
1475.07179976406	1159.40002441406
1475.70754108647	1164.19995117188
1476.34319988883	1162.19995117188
1476.97877617865	1159.19995117188
1477.61426996345	1165.59997558594
1478.24968125077	1157.40002441406
1478.88501004812	1158.19995117188
1479.52025636303	1159
1480.15542020302	1165.80004882813
1480.79050157561	1170.19995117188
1481.42550048832	1158.80004882813
1482.06041694867	1159.59997558594
1482.69525096418	1163.59997558594
1483.33000254237	1165
1483.96467169077	1166.19995117188
1484.59925841689	1170.59997558594
1485.23376272825	1158
1485.86818463237	1164.40002441406
1486.50252413677	1163.40002441406
1487.13678124896	1176.59997558594
1487.77095597646	1169
1488.4050483268	1168.40002441406
1489.03905830749	1172.19995117188
1489.67298592604	1164.19995117188
1490.30683118996	1165.80004882813
1490.9405941068	1176
1491.57427468403	1185.19995117188
1492.2078729292	1177.40002441406
1492.84138884981	1184.19995117188
1493.47482245338	1173.80004882813
1494.10817374742	1172.40002441406
1494.74144273944	1171.59997558594
1495.37462943696	1169.19995117188
1496.0077338475	1171.59997558594
1496.64075597856	1176.19995117188
1497.27369583765	1180.19995117188
1497.9065534323	1171.59997558594
1498.53932877001	1179.19995117188
1499.17202185829	1173.80004882813
1499.80463270465	1171.59997558594
1500.43716131661	1179
1501.06960770167	1179.40002441406
1501.70197186735	1183.80004882813
1502.33425382116	1193.80004882813
1502.96645357059	1183.80004882813
1503.59857112317	1185.80004882813
1504.23060648641	1190.19995117188
1504.8625596678	1191.19995117188
1505.49443067486	1201.40002441406
1506.1262195151	1203.59997558594
1506.75792619602	1204.40002441406
1507.38955072513	1198.59997558594
1508.02109310993	1208.80004882813
1508.65255335794	1204.40002441406
1509.28393147666	1201.59997558594
1509.91522747359	1208.59997558594
1510.54644135624	1211
1511.17757313212	1217.19995117188
1511.80862280872	1210.40002441406
1512.43959039356	1200.19995117188
1513.07047589413	1192.19995117188
1513.70127931795	1195
1514.33200067251	1188.59997558594
1514.96263996531	1198
1515.59319720386	1170.19995117188
1516.22367239567	1171
1516.85406554822	1179.80004882813
1517.48437666903	1175.80004882813
1518.1146057656	1173.40002441406
1518.74475284542	1170.19995117188
1519.374817916	1171.40002441406
1520.00480098483	1175.19995117188
1520.63470205942	1171.40002441406
1521.26452114726	1174.40002441406
1521.89425825586	1165.19995117188
1522.52391339271	1166.80004882813
1523.15348656531	1157
1523.78297778116	1161.80004882813
1524.41238704775	1153
1525.04171437259	1165.19995117188
1525.67095976317	1162.59997558594
1526.30012322699	1167
1526.92920477154	1164.19995117188
1527.55820440432	1169.59997558594
1528.18712213283	1160.19995117188
1528.81595796455	1161.40002441406
1529.44471190699	1155.40002441406
1530.07338396764	1148
1530.70197415399	1149
1531.33048247353	1153.80004882813
1531.95890893377	1154.80004882813
1532.58725354219	1163
1533.21551630629	1155.19995117188
1533.84369723356	1152.19995117188
1534.47179633148	1156.19995117188
1535.09981360757	1145
1535.72774906929	1148.19995117188
1536.35560272415	1159.80004882813
1536.98337457963	1156.40002441406
1537.61106464323	1150.40002441406
1538.23867292243	1156.59997558594
1538.86619942473	1149
1539.49364415762	1148.59997558594
1540.12100712857	1147.19995117188
1540.74828834509	1145.59997558594
1541.37548781466	1142.59997558594
1542.00260554478	1155.59997558594
1542.62964154291	1147.40002441406
1543.25659581655	1145.59997558594
1543.8834683732	1146.59997558594
1544.51025922034	1149.19995117188
1545.13696836544	1139
1545.76359581601	1151.19995117188
1546.39014157952	1142
1547.01660566345	1143.40002441406
1547.64298807531	1132
1548.26928882255	1128.80004882813
1548.89550791269	1130.40002441406
1549.52164535318	1131.80004882813
1550.14770115153	1125.59997558594
1550.77367531521	1132.80004882813
1551.39956785171	1132
1552.0253787685	1130.40002441406
1552.65110807307	1130.59997558594
1553.2767557729	1128
1553.90232187548	1129.40002441406
1554.52780638828	1136.40002441406
1555.15320931879	1134.59997558594
1555.77853067447	1128
1556.40377046282	1137.80004882813
1557.02892869132	1135.40002441406
1557.65400536744	1134.40002441406
1558.27900049866	1137
1558.90391409247	1131.80004882813
1559.52874615633	1139
1560.15349669773	1146.19995117188
1560.77816572414	1141.80004882813
1561.40275324305	1140.59997558594
1562.02725926192	1148.80004882813
1562.65168378824	1141.80004882813
1563.27602682948	1143.59997558594
1563.90028839311	1140.19995117188
1564.52446848662	1139.80004882813
1565.14856711748	1138.19995117188
1565.77258429316	1133.19995117188
1566.39652002113	1126
1567.02037430887	1136
1567.64414716387	1142.19995117188
1568.26783859357	1147.40002441406
1568.89144860547	1151.40002441406
1569.51497720703	1145.40002441406
1570.13842440573	1148.40002441406
1570.76179020904	1149.40002441406
1571.38507462442	1143.59997558594
1572.00827765936	1148.59997558594
1572.63139932132	1156.19995117188
1573.25443961777	1139.59997558594
1573.87739855618	1153.80004882813
1574.50027614402	1162
1575.12307238877	1149.80004882813
1575.74578729789	1156.59997558594
1576.36842087885	1159
1576.99097313912	1158.19995117188
1577.61344408616	1149.80004882813
1578.23583372745	1151
1578.85814207046	1153.19995117188
1579.48036912264	1162.80004882813
1580.10251489147	1155.80004882813
1580.72457938441	1158.59997558594
1581.34656260893	1154.40002441406
1581.9684645725	1150.40002441406
1582.59028528258	1151.80004882813
1583.21202474663	1152
1583.83368297212	1151.40002441406
1584.45525996652	1143.40002441406
1585.07675573728	1141.40002441406
1585.69817029188	1136.40002441406
1586.31950363778	1132.19995117188
1586.94075578243	1135.59997558594
1587.5619267333	1132.40002441406
1588.18301649786	1121.59997558594
1588.80402508357	1121.19995117188
1589.42495249788	1117.40002441406
1590.04579874826	1118.40002441406
1590.66656384217	1116
1591.28724778707	1116
1591.90785059042	1122.19995117188
1592.52837225968	1124.19995117188
1593.14881280232	1122
1593.76917222578	1123.59997558594
1594.38945053753	1135.80004882813
1595.00964774502	1134.59997558594
1595.62976385573	1137.80004882813
1596.24979887709	1127.59997558594
1596.86975281657	1121.40002441406
1597.48962568164	1123.19995117188
1598.10941747974	1114.19995117188
1598.72912821832	1109.80004882813
1599.34875790486	1108.19995117188
1599.9683065468	1115.40002441406
1600.58777415159	1105
1601.2071607267	1104.40002441406
1601.82646627958	1103.59997558594
1602.44569081769	1106
1603.06483434846	1106
1603.68389687937	1114.59997558594
1604.30287841786	1108.19995117188
1604.92177897139	1105.80004882813
1605.54059854741	1108.59997558594
1606.15933715337	1104
1606.77799479672	1110.80004882813
1607.39657148492	1102.19995117188
1608.01506722542	1106.80004882813
1608.63348202566	1108.40002441406
1609.2518158931	1100.59997558594
1609.87006883519	1102.59997558594
1610.48824085939	1103.80004882813
1611.10633197312	1104.59997558594
1611.72434218386	1101
1612.34227149904	1100.40002441406
1612.96011992612	1104.19995117188
1613.57788747254	1110.59997558594
1614.19557414575	1106.40002441406
1614.8131799532	1108.59997558594
1615.43070490234	1108.80004882813
1616.04814900061	1117.59997558594
1616.66551225545	1105
1617.28279467433	1113.19995117188
1617.89999626467	1115
1618.51711703393	1116.19995117188
1619.13415698955	1115.80004882813
1619.75111613898	1111.80004882813
1620.36799448966	1104.19995117188
1620.98479204903	1109.40002441406
1621.60150882455	1103.40002441406
1622.21814482364	1104.40002441406
1622.83470005376	1105.80004882813
1623.45117452235	1114.40002441406
1624.06756823685	1120.59997558594
1624.6838812047	1121.19995117188
1625.30011343335	1112.40002441406
1625.91626493022	1109.19995117188
1626.53233570278	1108.19995117188
1627.14832575845	1110.19995117188
1627.76423510468	1118.40002441406
1628.38006374891	1114
1628.99581169857	1111.19995117188
1629.61147896111	1111.19995117188
1630.22706554397	1105.80004882813
1630.84257145457	1108
1631.45799670038	1108.59997558594
1632.07334128881	1098.40002441406
1632.6886052273	1100
1633.3037885233	1110
1633.91889118425	1113
1634.53391321757	1109
1635.1488546307	1116.40002441406
1635.76371543108	1105
1636.37849562616	1105.19995117188
1636.99319522335	1105.80004882813
1637.60781423009	1100.59997558594
1638.22235265383	1097.80004882813
1638.83681050198	1096.80004882813
1639.451187782	1091.59997558594
1640.0654845013	1101.40002441406
1640.67970066734	1093.40002441406
1641.29383628752	1098.80004882813
1641.9078913693	1102.80004882813
1642.5218659201	1107.19995117188
1643.13575994735	1106.19995117188
1643.74957345849	1109
1644.36330646094	1113.59997558594
1644.97695896213	1115.19995117188
1645.59053096951	1121
1646.20402249049	1113
1646.8174335325	1118.59997558594
1647.43076410298	1118.80004882813
1648.04401420935	1115.40002441406
1648.65718385905	1120.19995117188
1649.2702730595	1117.19995117188
1649.88328181812	1122.59997558594
1650.49621014236	1133.80004882813
1651.10905803963	1139.19995117188
1651.72182551735	1134
1652.33451258297	1136.80004882813
1652.9471192439	1135.19995117188
1653.55964550757	1129
1654.1720913814	1111
1654.78445687283	1117
1655.39674198926	1105.19995117188
1656.00894673814	1109
1656.62107112688	1101.80004882813
1657.23311516291	1095
1657.84507885365	1103
1658.45696220652	1084.80004882813
1659.06876522895	1095.19995117188
1659.68048792835	1089.19995117188
1660.29213031217	1084.59997558594
1660.90369238779	1074.19995117188
1661.51517416267	1080.40002441406
1662.12657564421	1075.59997558594
1662.73789683984	1071.80004882813
1663.34913775697	1078.59997558594
1663.96029840303	1079.59997558594
1664.57137878544	1078
1665.18237891161	1074.59997558594
1665.79329878897	1076.40002441406
1666.40413842493	1072.40002441406
1667.01489782691	1065.80004882813
1667.62557700233	1065.59997558594
1668.2361759586	1061.40002441406
1668.84669470315	1067.80004882813
1669.4571332434	1066.59997558594
1670.06749158675	1071.59997558594
1670.67776974062	1071.80004882813
1671.28796771243	1076.19995117188
1671.8980855096	1071.40002441406
1672.50812313954	1064.40002441406
1673.11808060967	1065.80004882813
1673.72795792739	1068.80004882813
1674.33775510013	1067
1674.9474721353	1068.80004882813
1675.55710904031	1068.19995117188
1676.16666582257	1060
1676.7761424895	1062.80004882813
1677.38553904851	1067
1677.99485550702	1059
1678.60409187243	1062.80004882813
1679.21324815215	1057.40002441406
1679.8223243536	1058.40002441406
1680.43132048419	1060
1681.04023655132	1057
1681.64907256241	1049.19995117188
1682.25782852487	1053.59997558594
1682.86650444611	1058.80004882813
1683.47510033353	1056.40002441406
1684.08361619455	1055.80004882813
1684.69205203657	1052.59997558594
1685.300407867	1053.80004882813
1685.90868369325	1040.80004882813
1686.51687952272	1054.59997558594
1687.12499536283	1050.40002441406
1687.73303122098	1050
1688.34098710457	1050.40002441406
1688.94886302101	1055.80004882813
1689.55665897772	1060.19995117188
1690.16437498208	1052.19995117188
1690.77201104152	1057.59997558594
1691.37956716342	1050.19995117188
1691.9870433552	1050.59997558594
1692.59443962426	1046.80004882813
1693.20175597801	1044
1693.80899242384	1044.59997558594
1694.41614896916	1047.59997558594
1695.02322562138	1046.80004882813
1695.63022238789	1044.59997558594
1696.23713927609	1044.40002441406
1696.8439762934	1041.59997558594
1697.4507334472	1045.59997558594
1698.05741074491	1045.40002441406
1698.66400819391	1041.40002441406
1699.27052580161	1046.19995117188
1699.87696357542	1035.59997558594
1700.48332152272	1044.19995117188
1701.08959965092	1035
1701.69579796742	1025.80004882813
1702.30191647962	1030.59997558594
1702.90795519491	1032
1703.51391412069	1030.59997558594
1704.11979326437	1027.19995117188
1704.72559263332	1027.80004882813
1705.33131223496	1023
1705.93695207668	1022.20001220703
1706.54251216588	1026
1707.14799250994	1022.59997558594
1707.75339311628	1022
1708.35871399227	1024.59997558594
1708.96395514532	1013
1709.56911658282	1019.59997558594
