634.948122577771	1412.19995117188
635.690341530823	1401.40002441406
636.43246851086	1398.40002441406
637.174503525845	1402.59997558594
637.916446583745	1411.19995117188
638.658297692538	1423.59997558594
639.400056860179	1428.80004882813
640.141724094637	1431.40002441406
640.883299403885	1430.80004882813
641.62478279588	1429
642.366174278594	1428
643.107473859989	1421.80004882813
643.848681548029	1423.80004882813
644.589797350679	1418.40002441406
645.330821275901	1426.40002441406
646.071753331665	1431.19995117188
646.812593525922	1431
647.553341866646	1428
648.293998361798	1423
649.03456301933	1420
649.775035847216	1412
650.515416853409	1416.80004882813
651.255706045874	1426.59997558594
651.995903432568	1422.19995117188
652.736009021453	1438
653.476022820486	1457.19995117188
654.215944837629	1458
654.955775080842	1446.59997558594
655.695513558081	1456.40002441406
656.435160277301	1461.59997558594
657.174715246465	1451.59997558594
657.914178473527	1446.59997558594
658.653549966449	1447.59997558594
659.392829733176	1437.59997558594
660.132017781678	1429.59997558594
660.871114119901	1447.19995117188
661.610118755803	1453.40002441406
662.349031697343	1441
663.087852952468	1442.19995117188
663.826582529139	1434.59997558594
664.565220435305	1431
665.30376667892	1434
666.04222126794	1426.80004882813
666.780584210316	1441.59997558594
667.518855514	1434
668.25703518694	1441.40002441406
668.995123237096	1440.59997558594
669.733119672413	1455.80004882813
670.471024500842	1458.80004882813
671.208837730333	1449
671.946559368839	1458.40002441406
672.684189424308	1442.40002441406
673.421727904689	1451.19995117188
674.159174817929	1461
674.896530171977	1450.80004882813
675.633793974786	1440.80004882813
676.370966234295	1456.19995117188
677.108046958461	1463.40002441406
677.845036155219	1454.19995117188
678.581933832528	1465
679.318739998323	1466.19995117188
680.055454660558	1453.40002441406
680.792077827172	1445.59997558594
681.528609506116	1441.59997558594
682.265049705331	1444.59997558594
683.001398432759	1445
683.737655696349	1453.40002441406
684.47382150404	1447.59997558594
685.20989586378	1449.40002441406
685.945878783503	1450.40002441406
686.68177027116	1453
687.417570334688	1456.80004882813
688.153278982032	1449.59997558594
688.888896221129	1440.40002441406
689.624422059921	1435
690.359856506349	1441.59997558594
691.095199568354	1452
691.830451253874	1453.59997558594
692.565611570844	1438.40002441406
693.300680527212	1449.80004882813
694.03565813091	1456
694.770544389877	1453.19995117188
695.505339312053	1447.40002441406
696.240042905372	1458.80004882813
696.974655177772	1467.40002441406
697.70917613719	1460
698.443605791561	1460.40002441406
699.177944148826	1466.40002441406
699.912191216909	1459.80004882813
700.646347003755	1455.40002441406
701.380411517295	1454.80004882813
702.114384765465	1447.40002441406
702.848266756195	1465.19995117188
703.582057497421	1479.80004882813
704.315756997074	1469.40002441406
705.049365263089	1474.80004882813
705.782882303399	1474.80004882813
706.516308125936	1480.40002441406
707.249642738626	1476.59997558594
707.982886149403	1467.19995117188
708.716038366204	1475.59997558594
709.449099396949	1464.59997558594
710.182069249577	1477.80004882813
710.914947932009	1469.40002441406
711.647735452181	1488.40002441406
712.380431818022	1476.40002441406
713.113037037454	1465
713.845551118411	1473.59997558594
714.577974068818	1475.19995117188
715.310305896604	1482.40002441406
716.042546609694	1476.40002441406
716.774696216013	1485.19995117188
717.506754723493	1496
718.238722140053	1481
718.970598473624	1476.19995117188
719.702383732127	1473.80004882813
720.43407792349	1449
721.165681055634	1456
721.897193136486	1460.59997558594
722.628614173966	1464.59997558594
723.359944175997	1468.40002441406
724.091183150505	1452.19995117188
724.822331105412	1451.80004882813
725.553388048638	1452.80004882813
726.284353988106	1458.59997558594
727.015228931734	1462
727.746012887449	1468.19995117188
728.476705863162	1476.59997558594
729.207307866803	1480.40002441406
729.937818906289	1487.19995117188
730.668238989535	1476.19995117188
731.398568124459	1488.40002441406
732.128806318986	1490
732.858953581034	1473.40002441406
733.589009918514	1481.59997558594
734.318975339348	1473.59997558594
735.048849851452	1465.59997558594
735.778633462744	1467.40002441406
736.508326181137	1478.19995117188
737.237928014549	1480.40002441406
737.967438970897	1472.80004882813
738.696859058095	1491.80004882813
739.426188284054	1491.80004882813
740.155426656692	1492.40002441406
740.884574183922	1492.19995117188
741.613630873659	1490.19995117188
742.342596733815	1477.80004882813
743.071471772302	1472.19995117188
743.800255997034	1482
744.528949415921	1494
745.257552036877	1499.19995117188
745.986063867811	1488.19995117188
746.714484916638	1484.40002441406
747.442815191261	1470.80004882813
748.171054699597	1470.80004882813
748.899203449554	1471.40002441406
749.627261449039	1470.40002441406
750.355228705966	1479.40002441406
751.083105228239	1493.19995117188
751.810891023765	1486
752.538586100459	1485.40002441406
753.266190466218	1469.59997558594
753.99370412896	1470.80004882813
754.721127096582	1474.80004882813
755.448459377	1473.80004882813
756.175700978114	1461.80004882813
756.902851907828	1455.40002441406
757.629912174055	1449.19995117188
758.356881784688	1446.40002441406
759.083760747639	1463.59997558594
759.810549070817	1471.80004882813
760.537246762113	1498.19995117188
761.263853829442	1517
761.990370280698	1527.59997558594
762.716796123791	1517
763.443131366618	1524.40002441406
764.169376017082	1520.40002441406
764.895530083085	1517.19995117188
765.621593572527	1518.59997558594
766.347566493312	1526.59997558594
767.073448853336	1511.59997558594
767.799240660502	1528.40002441406
768.524941922707	1539
769.250552647854	1566
769.976072843836	1572.59997558594
770.701502518551	1601.19995117188
771.426841679905	1598.59997558594
772.152090335793	1592.59997558594
772.877248494107	1594.40002441406
773.602316162747	1602.40002441406
774.327293349609	1591.80004882813
775.052180062592	1600.59997558594
775.776976309589	1609.40002441406
776.501682098496	1584.80004882813
777.226297437206	1569.80004882813
777.950822333616	1568
778.675256795621	1565.40002441406
779.399600831111	1549.80004882813
780.123854447983	1551.19995117188
780.84801765413	1537.80004882813
781.572090457441	1533.59997558594
782.296072865811	1521.80004882813
783.019964887131	1515.59997558594
783.743766529297	1520.59997558594
784.467477800194	1511.80004882813
785.191098707719	1507.59997558594
785.914629259756	1514.40002441406
786.638069464194	1509.40002441406
787.361419328932	1500.80004882813
788.084678861852	1499.40002441406
788.807848070845	1493.40002441406
789.530926963798	1495.19995117188
790.253915548602	1502.80004882813
790.976813833144	1493.80004882813
791.699621825307	1485.40002441406
792.422339532986	1494.59997558594
793.144966964061	1476.40002441406
793.86750412642	1477.40002441406
794.589951027946	1472.19995117188
795.312307676536	1480
796.03457408006	1482.80004882813
796.756750246417	1488
797.478836183477	1482.59997558594
798.200831899137	1484.80004882813
798.92273740127	1475.40002441406
799.644552697769	1477
800.36627779651	1482
801.087912705374	1478.40002441406
801.809457432251	1468.40002441406
802.530911985017	1462
803.252276371558	1458
803.973550599748	1455.80004882813
804.694734677472	1457.40002441406
805.415828612611	1456.19995117188
806.136832413045	1463.40002441406
806.857746086646	1459.40002441406
807.578569641305	1459.80004882813
808.299303084892	1470.80004882813
809.019946425289	1479.40002441406
809.740499670372	1471.59997558594
810.460962828022	1463.59997558594
811.181335906114	1463.19995117188
811.901618912524	1472.19995117188
812.621811855131	1473.19995117188
813.341914741809	1475.19995117188
814.061927580433	1466
814.781850378881	1443.80004882813
815.501683145025	1436.80004882813
816.221425886743	1442.80004882813
816.941078611903	1443.19995117188
817.660641328387	1450.59997558594
818.380114044065	1457.19995117188
819.099496766808	1467.19995117188
819.818789504492	1452.59997558594
820.53799226499	1450.19995117188
821.257105056168	1448.40002441406
821.976127885904	1457
822.695060762064	1457.40002441406
823.413903692525	1446.80004882813
824.132656685151	1451.80004882813
824.851319747817	1453.80004882813
825.569892888388	1454.40002441406
826.288376114739	1466.40002441406
827.006769434737	1457.19995117188
827.725072856249	1461
828.443286387142	1470.59997558594
829.161410035285	1461.59997558594
829.87944380855	1443.19995117188
830.597387714798	1458.59997558594
831.315241761898	1455.80004882813
832.033005957715	1464.59997558594
832.750680310119	1477.40002441406
833.468264826969	1470.59997558594
834.18575951614	1475.40002441406
834.903164385486	1474.19995117188
835.620479442878	1474.80004882813
836.337704696181	1470.19995117188
837.054840153255	1477.59997558594
837.771885821962	1473
838.488841710172	1482.19995117188
839.20570782574	1479.40002441406
839.922484176531	1475
840.639170770409	1477.19995117188
841.355767615231	1463.80004882813
842.072274718864	1467
842.788692089164	1474.40002441406
843.505019733993	1485.19995117188
844.221257661209	1484.40002441406
844.937405878676	1461.40002441406
845.65346439425	1455
846.369433215789	1451.40002441406
847.085312351156	1452.40002441406
847.801101808205	1446.40002441406
848.516801594793	1436.80004882813
849.232411718781	1446.19995117188
849.947932188021	1442.40002441406
850.663363010376	1460.19995117188
851.378704193698	1451.80004882813
852.093955745842	1455.80004882813
852.809117674669	1466.59997558594
853.524189988028	1450.19995117188
854.239172693778	1459
854.954065799768	1470.59997558594
855.668869313857	1458.40002441406
856.383583243899	1455.19995117188
857.098207597743	1449.80004882813
857.812742383246	1463
858.527187608255	1457
859.241543280628	1457.19995117188
859.955809408218	1467.40002441406
860.669985998868	1460
861.384073060437	1460.59997558594
862.098070600772	1463.19995117188
862.811978627724	1460.40002441406
863.52579714914	1468.59997558594
864.239526172873	1466.59997558594
864.953165706776	1460.19995117188
865.666715758687	1452
866.380176336464	1449.80004882813
867.093547447951	1439.19995117188
867.806829100996	1444.40002441406
868.520021303444	1439
869.233124063149	1447.59997558594
869.94613738795	1454
870.659061285693	1454.40002441406
871.37189576423	1460.80004882813
872.084640831403	1469.40002441406
872.797296495057	1468.80004882813
873.509862763039	1452.59997558594
874.22233964319	1461
874.934727143353	1458.19995117188
875.647025271374	1456
876.359234035097	1449.40002441406
877.071353442361	1453
877.783383501015	1450.59997558594
878.495324218895	1451.59997558594
879.207175603844	1463.40002441406
879.918937663705	1444.40002441406
880.630610406318	1440
881.342193839524	1435.59997558594
882.053687971161	1440.59997558594
882.765092809069	1439.19995117188
883.476408361091	1446.59997558594
884.187634635066	1446.19995117188
884.898771638828	1451.40002441406
885.609819380221	1458.80004882813
886.320777867076	1448.19995117188
887.031647107236	1443.19995117188
887.742427108536	1454.59997558594
888.453117878816	1450.80004882813
889.16371942591	1449.80004882813
889.874231757652	1439
890.584654881883	1435.80004882813
891.294988806434	1445.40002441406
892.005233539141	1461.80004882813
892.715389087837	1462
893.42545546036	1478.59997558594
894.135432664543	1474
894.845320708216	1460.59997558594
895.555119599216	1467.19995117188
896.264829345375	1468.59997558594
896.974449954526	1469.80004882813
897.683981434496	1463
898.393423793125	1469.80004882813
899.102777038235	1471
899.812041177664	1457.80004882813
900.521216219239	1451.40002441406
901.230302170793	1468.59997558594
901.939299040155	1464.19995117188
902.64820683515	1452.19995117188
903.357025563612	1450.40002441406
904.065755233368	1454.19995117188
904.774395852247	1461
905.482947428076	1469
906.191409968682	1457
906.899783481897	1444.80004882813
907.608067975538	1455.59997558594
908.316263457443	1476.40002441406
909.02436993543	1459
909.732387417327	1458
910.440315910959	1459.80004882813
911.148155424154	1465
911.855905964731	1466.59997558594
912.563567540521	1469.19995117188
913.271140159339	1461
913.978623829017	1460.40002441406
914.686018557374	1463.40002441406
915.393324352237	1464
916.100541221421	1470.59997558594
916.807669172752	1468.59997558594
917.514708214054	1482.19995117188
918.221658353142	1478
918.928519597843	1476.80004882813
919.635291955976	1462.19995117188
920.341975435358	1461.19995117188
921.048570043813	1477.19995117188
921.75507578916	1459.59997558594
922.461492679212	1463.40002441406
923.167820721795	1469.80004882813
923.874059924726	1480.59997558594
924.58021029582	1474.80004882813
925.286271842893	1477.40002441406
925.992244573769	1476.80004882813
926.698128496262	1466
927.403923618184	1467.40002441406
928.109629947355	1464
928.815247491593	1455.19995117188
929.520776258708	1466
930.226216256519	1447.59997558594
930.931567492841	1471.80004882813
931.636829975482	1462.59997558594
932.342003712263	1449.59997558594
933.047088710995	1450
933.752084979491	1462.19995117188
934.456992525564	1457.59997558594
935.161811357024	1453.80004882813
935.866541481688	1453.40002441406
936.571182907363	1456
937.275735641861	1439.80004882813
937.980199692995	1453
938.684575068572	1448.80004882813
939.388861776411	1434.80004882813
940.093059824311	1436.59997558594
940.797169220085	1442.59997558594
941.501189971544	1440.80004882813
942.205122086495	1434.40002441406
942.908965572751	1440
943.612720438111	1436.80004882813
944.316386690391	1445.59997558594
945.019964337391	1447.59997558594
945.723453386924	1456.80004882813
946.426853846795	1458
947.130165724808	1459
947.83338902877	1462.59997558594
948.536523766488	1462.40002441406
949.239569945764	1461.59997558594
949.942527574402	1448.80004882813
950.64539666021	1459.40002441406
951.348177210993	1454.19995117188
952.050869234548	1457.40002441406
952.753472738683	1449.19995117188
953.455987731199	1445.40002441406
954.158414219898	1449.40002441406
954.860752212587	1447
955.563001717061	1457.19995117188
956.265162741124	1452.40002441406
956.967235292576	1449.40002441406
957.669219379224	1444.19995117188
958.371115008857	1456
959.072922189283	1440.19995117188
959.774640928301	1428.40002441406
960.476271233708	1437.59997558594
961.177813113301	1443.19995117188
961.879266574882	1447.80004882813
962.580631626248	1458.40002441406
963.281908275194	1460.80004882813
963.98309652952	1440.19995117188
964.684196397022	1440.59997558594
965.3852078855	1448
966.086131002745	1441.80004882813
966.786965756555	1428.40002441406
967.487712154726	1425.59997558594
968.188370205055	1430.80004882813
968.888939915331	1436
969.589421293352	1438.59997558594
970.289814346909	1452.59997558594
970.990119083801	1447.40002441406
971.690335511819	1435.80004882813
972.39046363875	1445.19995117188
973.090503472398	1443.59997558594
973.790455020545	1432.80004882813
974.490318290987	1441.59997558594
975.190093291516	1436.19995117188
975.889780029923	1428
976.589378513998	1436.59997558594
977.288888751527	1435
977.988310750308	1427
978.687644518122	1419.19995117188
979.386890062767	1437.40002441406
980.086047392025	1449
980.785116513689	1445
981.484097435542	1434.80004882813
982.182990165377	1429.80004882813
982.88179471098	1436.59997558594
983.580511080137	1441.80004882813
984.279139280632	1442.19995117188
984.977679320253	1434.19995117188
985.67613120679	1435.59997558594
986.374494948027	1446.59997558594
987.072770551745	1441.40002441406
987.770958025731	1437.80004882813
988.469057377772	1438.40002441406
989.167068615649	1431.80004882813
989.864991747145	1438.19995117188
990.562826780047	1440
991.260573722134	1430.80004882813
991.958232581195	1422.59997558594
992.655803365003	1429.40002441406
993.353286081346	1416.19995117188
994.050680738006	1419
994.74798734276	1423
995.44520590339	1422.40002441406
996.142336427681	1422
996.839378923407	1429
997.536333398348	1427.80004882813
998.233199860289	1429
998.929978317004	1419
999.626668776274	1451
1000.32327124587	1441.80004882813
1001.01978573359	1442
1001.71621224718	1435
1002.41255079445	1422.59997558594
1003.10880138315	1428.80004882813
1003.80496402107	1422.80004882813
1004.50103871599	1421
1005.19702547567	1423.19995117188
1005.8929243079	1431
1006.58873522045	1427.40002441406
1007.2844582211	1416.59997558594
1007.98009331761	1424.19995117188
1008.67564051776	1426.40002441406
1009.37109982933	1421.80004882813
1010.06647126009	1426.19995117188
1010.7617548178	1434.59997558594
1011.45695051026	1426.59997558594
1012.15205834522	1434.19995117188
1012.84707833045	1436.19995117188
1013.54201047373	1436.40002441406
1014.23685478284	1432.40002441406
1014.93161126553	1432.59997558594
1015.62627992959	1420.40002441406
1016.32086078277	1418.40002441406
1017.01535383285	1406.80004882813
1017.70975908761	1419
1018.40407655479	1424.40002441406
1019.09830624219	1432.80004882813
1019.79244815755	1428
1020.48650230866	1414.40002441406
1021.18046870328	1394.19995117188
1021.87434734917	1391.19995117188
1022.56813825411	1408
1023.26184142584	1406.80004882813
1023.95545687216	1414.80004882813
1024.64898460082	1410.59997558594
1025.34242461957	1412.19995117188
1026.0357769362	1413.59997558594
1026.72904155846	1409.19995117188
1027.42221849412	1406.40002441406
1028.11530775094	1411.80004882813
1028.80830933668	1416
1029.50122325911	1420.59997558594
1030.19404952599	1411.59997558594
1030.88678814508	1430.19995117188
1031.57943912414	1426.59997558594
1032.27200247093	1425.40002441406
1032.96447819323	1430
1033.65686629878	1436.19995117188
1034.34916679534	1430
1035.04137969068	1434
1035.73350499256	1420.59997558594
1036.42554270874	1416.19995117188
1037.11749284697	1423.19995117188
1037.80935541501	1420.19995117188
1038.50113042062	1423
1039.19281787156	1420.19995117188
1039.88441777559	1421
1040.57593014046	1418.19995117188
1041.26735497393	1425
1041.95869228376	1419
1042.6499420777	1415.19995117188
1043.3411043635	1416.40002441406
1044.03217914893	1405.59997558594
1044.72316644174	1430.59997558594
1045.41406624968	1408
1046.1048785805	1414.80004882813
1046.79560344197	1420.40002441406
1047.48624084182	1413.19995117188
1048.17679078783	1413.40002441406
1048.86725328774	1420.40002441406
1049.55762834929	1421.19995117188
1050.24791598025	1418.59997558594
1050.93811618837	1422
1051.62822898139	1421.40002441406
1052.31825436707	1415.19995117188
1053.00819235315	1411.40002441406
1053.6980429474	1401
1054.38780615755	1401.80004882813
1055.07748199136	1420.19995117188
1055.76707045658	1408.40002441406
1056.45657156095	1398
1057.14598531222	1381.59997558594
1057.83531171814	1401.59997558594
1058.52455078646	1384.59997558594
1059.21370252494	1384
1059.90276694129	1379.80004882813
1060.5917440433	1387.19995117188
1061.28063383868	1381
1061.9694363352	1388.19995117188
1062.65815154059	1378.40002441406
1063.34677946261	1382.40002441406
1064.03532010899	1385.80004882813
1064.72377348748	1389
1065.41213960583	1387.40002441406
1066.10041847177	1386.80004882813
1066.78861009306	1381.19995117188
1067.47671447743	1392.19995117188
1068.16473163263	1388.59997558594
1068.85266156639	1400.40002441406
1069.54050428647	1399.59997558594
1070.2282598006	1401
1070.91592811652	1404.59997558594
1071.60350924198	1399.80004882813
1072.29100318471	1388.59997558594
1072.97840995245	1396
1073.66572955295	1391
1074.35296199394	1380.19995117188
1075.04010728316	1386.80004882813
1075.72716542836	1388.59997558594
1076.41413643726	1383.80004882813
1077.10102031761	1387
1077.78781707715	1391
1078.4745267236	1391.19995117188
1079.16114926471	1392.59997558594
1079.84768470822	1371.80004882813
1080.53413306185	1372.19995117188
1081.22049433336	1380.59997558594
1081.90676853046	1379.59997558594
1082.5929556609	1371.19995117188
1083.27905573241	1381.80004882813
1083.96506875272	1392
1084.65099472957	1382
1085.3368336707	1380.80004882813
1086.02258558383	1400
1086.70825047669	1412
1087.39382835703	1403.80004882813
1088.07931923257	1401.40002441406
1088.76472311104	1419.40002441406
1089.45004000018	1406.19995117188
1090.13526990771	1406.19995117188
1090.82041284137	1408.19995117188
1091.50546880889	1396.40002441406
1092.19043781799	1407.19995117188
1092.87531987642	1412
1093.56011499188	1395.59997558594
1094.24482317212	1405.19995117188
1094.92944442486	1393.19995117188
1095.61397875783	1379.40002441406
1096.29842617876	1386.19995117188
1096.98278669537	1382
1097.6670603154	1402.40002441406
1098.35124704656	1391
1099.03534689659	1385.40002441406
1099.71935987322	1392
1100.40328598416	1388.59997558594
1101.08712523713	1388.59997558594
1101.77087763988	1391.19995117188
1102.45454320012	1373
1103.13812192557	1400.40002441406
1103.82161382396	1392.40002441406
1104.50501890301	1380.19995117188
1105.18833717045	1382.59997558594
1105.87156863399	1375
1106.55471330137	1380.80004882813
1107.2377711803	1380.59997558594
1107.9207422785	1371.19995117188
1108.60362660369	1375
1109.2864241636	1381.59997558594
1109.96913496594	1379
1110.65175901844	1388
1111.33429632882	1380.80004882813
1112.01674690479	1386.40002441406
1112.69911075408	1381.80004882813
1113.38138788439	1391.40002441406
1114.06357830346	1380.80004882813
1114.745682019	1384
1115.42769903872	1380.19995117188
1116.10962937035	1370
1116.7914730216	1373.80004882813
1117.47323000018	1380.80004882813
1118.15490031382	1382.40002441406
1118.83648397022	1391.80004882813
1119.51798097712	1398.59997558594
1120.1993913422	1405.19995117188
1120.88071507321	1403.40002441406
1121.56195217784	1388.59997558594
1122.24310266381	1400.19995117188
1122.92416653884	1403.40002441406
1123.60514381064	1397.59997558594
1124.28603448692	1384.80004882813
1124.9668385754	1384.59997558594
1125.64755608378	1374.80004882813
1126.32818701978	1383.80004882813
1127.00873139111	1375.19995117188
1127.68918920548	1371.40002441406
1128.3695604706	1372.80004882813
1129.04984519419	1381
1129.73004338394	1383.40002441406
1130.41015504758	1374.59997558594
1131.09018019281	1378.80004882813
1131.77011882734	1375
1132.44997095888	1373.59997558594
1133.12973659514	1383
1133.80941574381	1391.59997558594
1134.48900841263	1381.80004882813
1135.16851460927	1381.59997558594
1135.84793434147	1374.40002441406
1136.52726761692	1384.59997558594
1137.20651444333	1385.40002441406
1137.8856748284	1374
1138.56474877984	1374.59997558594
1139.24373630536	1374.80004882813
1139.92263741265	1375.40002441406
1140.60145210943	1367.40002441406
1141.28018040339	1379.40002441406
1141.95882230225	1391.59997558594
1142.6373778137	1387.19995117188
1143.31584694545	1382.19995117188
1143.99422970519	1380.80004882813
1144.67252610064	1366
1145.35073613949	1377
1146.02885982944	1364
1146.7068971782	1369
1147.38484819347	1370.59997558594
1148.06271288294	1356.19995117188
1148.74049125432	1361.80004882813
1149.41818331531	1368.59997558594
1150.0957890736	1372.40002441406
1150.77330853689	1373.80004882813
1151.45074171289	1373.40002441406
1152.12808860928	1353.40002441406
1152.80534923378	1375.19995117188
1153.48252359407	1360.40002441406
1154.15961169786	1365.59997558594
1154.83661355283	1378.19995117188
1155.51352916669	1376.80004882813
1156.19035854713	1372.59997558594
1156.86710170185	1358
1157.54375863855	1362
1158.22032936491	1353.40002441406
1158.89681388863	1340
1159.57321221741	1344.80004882813
1160.24952435894	1353
1160.92575032092	1355.59997558594
1161.60189011103	1348
1162.27794373697	1361
1162.95391120644	1360.59997558594
1163.62979252712	1363.59997558594
1164.3055877067	1346.40002441406
1164.98129675288	1360.40002441406
1165.65691967336	1361.19995117188
1166.33245647581	1364
1167.00790716792	1366.19995117188
1167.6832717574	1372.80004882813
1168.35855025193	1350
1169.0337426592	1348.40002441406
1169.70884898689	1367.19995117188
1170.3838692427	1358.40002441406
1171.05880343431	1359.19995117188
1171.73365156941	1353.80004882813
1172.40841365569	1350
1173.08308970083	1346.40002441406
1173.75767971253	1362.59997558594
1174.43218369847	1348.80004882813
1175.10660166633	1355.59997558594
1175.7809336238	1364.80004882813
1176.45517957857	1366.40002441406
1177.12933953832	1365.80004882813
1177.80341351073	1376.80004882813
1178.47740150349	1383.80004882813
1179.15130352429	1385.59997558594
1179.8251195808	1379.80004882813
1180.49884968071	1379
1181.1724938317	1382.80004882813
1181.84605204145	1390.80004882813
1182.51952431766	1377.59997558594
1183.19291066799	1389.19995117188
1183.86621110013	1385
1184.53942562176	1381.40002441406
1185.21255424057	1388.40002441406
1185.88559696422	1386.59997558594
1186.55855380041	1379.59997558594
1187.2314247568	1391.59997558594
1187.90420984109	1388.59997558594
1188.57690906095	1385.59997558594
1189.24952242405	1387.40002441406
1189.92204993808	1390.59997558594
1190.59449161071	1389.40002441406
1191.26684744962	1380.40002441406
1191.93911746249	1375.40002441406
1192.61130165699	1381.40002441406
1193.28340004081	1377.59997558594
1193.95541262161	1386.80004882813
1194.62733940707	1379.80004882813
1195.29918040487	1385.19995117188
1195.97093562269	1381.59997558594
1196.64260506819	1360.80004882813
1197.31418874905	1363.40002441406
1197.98568667295	1360.19995117188
1198.65709884755	1369.59997558594
1199.32842528053	1374
1199.99966597957	1375.19995117188
1200.67082095234	1381.59997558594
1201.3418902065	1369.80004882813
1202.01287374974	1369.40002441406
1202.68377158971	1362.40002441406
1203.3545837341	1358.40002441406
1204.02531019057	1351.59997558594
1204.6959509668	1355.40002441406
1205.36650607045	1356
1206.03697550919	1359.40002441406
1206.70735929069	1352.80004882813
1207.37765742263	1347.19995117188
1208.04786991266	1345.59997558594
1208.71799676846	1347
1209.38803799769	1346.40002441406
1210.05799360803	1351.59997558594
1210.72786360714	1353
1211.39764800268	1350.40002441406
1212.06734680233	1349.59997558594
1212.73696001375	1344
1213.4064876446	1338.80004882813
1214.07592970255	1341.19995117188
1214.74528619526	1350.80004882813
1215.4145571304	1346
1216.08374251564	1357
1216.75284235863	1354.80004882813
1217.42185666704	1360
1218.09078544854	1363
1218.75962871078	1356
1219.42838646143	1347.80004882813
1220.09705870816	1341.40002441406
1220.76564545861	1334.59997558594
1221.43414672046	1337.80004882813
1222.10256250136	1342.40002441406
1222.77089280898	1337.40002441406
1223.43913765098	1342
1224.107297035	1345.80004882813
1224.77537096873	1344.19995117188
1225.44335945981	1324.80004882813
1226.1112625159	1334.59997558594
1226.77908014467	1332.19995117188
1227.44681235376	1345.80004882813
1228.11445915085	1344.59997558594
1228.78202054357	1341.40002441406
1229.44949653961	1347.19995117188
1230.11688714659	1336.80004882813
1230.7841923722	1336.40002441406
1231.45141222407	1344.19995117188
1232.11854670988	1329.80004882813
1232.78559583726	1333
1233.45255961388	1332.19995117188
1234.1194380474	1332
1234.78623114546	1329.80004882813
1235.45293891572	1338.59997558594
1236.11956136583	1322.80004882813
1236.78609850345	1320.19995117188
1237.45255033623	1327
1238.11891687182	1325.80004882813
1238.78519811788	1316
1239.45139408205	1317.40002441406
1240.11750477198	1311.59997558594
1240.78353019534	1326.40002441406
1241.44947035976	1315.59997558594
1242.11532527291	1320
1242.78109494242	1320.19995117188
1243.44677937595	1328
1244.11237858115	1313.19995117188
1244.77789256567	1329.80004882813
1245.44332133715	1317.40002441406
1246.10866490325	1315.59997558594
1246.7739232716	1312.40002441406
1247.43909644987	1308.19995117188
1248.10418444569	1312.59997558594
1248.76918726671	1307.40002441406
1249.43410492059	1327.19995117188
1250.09893741496	1317.40002441406
1250.76368475747	1313.40002441406
1251.42834695576	1316.40002441406
1252.09292401749	1302.59997558594
1252.75741595029	1294.40002441406
1253.42182276182	1295.59997558594
1254.08614445971	1293.59997558594
1254.75038105161	1301
1255.41453254515	1297.19995117188
1256.07859894799	1308.19995117188
1256.74258026777	1312.59997558594
1257.40647651213	1303.59997558594
1258.0702876887	1312.40002441406
1258.73401380514	1313.19995117188
1259.39765486908	1300.80004882813
1260.06121088817	1293.19995117188
1260.72468187004	1302.40002441406
1261.38806782233	1303.40002441406
1262.05136875269	1312.80004882813
1262.71458466875	1307.19995117188
1263.37771557815	1292
1264.04076148854	1296
1264.70372240753	1292
1265.3665983428	1305.19995117188
1266.02938930195	1312
1266.69209529263	1308.59997558594
1267.35471632249	1308
1268.01725239914	1304.19995117188
1268.67970353024	1318
1269.34206972342	1313.80004882813
1270.00435098631	1308.40002441406
1270.66654732655	1313
1271.32865875177	1315.59997558594
1271.9906852696	1320.59997558594
1272.65262688768	1313.40002441406
1273.31448361365	1324.80004882813
1273.97625545514	1315.59997558594
1274.63794241978	1311.80004882813
1275.2995445152	1308.59997558594
1275.96106174903	1311.80004882813
1276.62249412892	1301.40002441406
1277.28384166248	1292.80004882813
1277.94510435735	1281.80004882813
1278.60628222116	1289.40002441406
1279.26737526155	1292.40002441406
1279.92838348613	1287.80004882813
1280.58930690255	1285.59997558594
1281.25014551842	1284.80004882813
1281.91089934139	1283.19995117188
1282.57156837907	1299.59997558594
1283.2321526391	1292.19995117188
1283.89265212911	1282.19995117188
1284.55306685671	1276.40002441406
1285.21339682955	1287.59997558594
1285.87364205525	1286.59997558594
1286.53380254142	1304
1287.19387829571	1300.19995117188
1287.85386932573	1299
1288.51377563911	1302.59997558594
1289.17359724348	1295
1289.83333414646	1296
1290.49298635567	1297.80004882813
1291.15255387874	1303.40002441406
1291.8120367233	1302.40002441406
1292.47143489696	1312.80004882813
1293.13074840736	1301
1293.7899772621	1295.19995117188
1294.44912146882	1290.80004882813
1295.10818103513	1302.19995117188
1295.76715596866	1300.59997558594
1296.42604627704	1308.59997558594
1297.08485196787	1306.80004882813
1297.74357304878	1307.19995117188
1298.4022095274	1300.19995117188
1299.06076141134	1300.19995117188
1299.71922870821	1311
1300.37761142565	1320
1301.03590957126	1314.80004882813
1301.69412315268	1324
1302.3522521775	1324
1303.01029665336	1332.40002441406
1303.66825658787	1334.59997558594
1304.32613198865	1333
1304.98392286332	1330.80004882813
1305.64162921948	1342.80004882813
1306.29925106476	1341
1306.95678840677	1337.80004882813
1307.61424125312	1353.19995117188
1308.27160961145	1355.59997558594
1308.92889348934	1357.80004882813
1309.58609289443	1356
1310.24320783432	1349.40002441406
1310.90023831664	1355.19995117188
1311.55718434898	1347.59997558594
1312.21404593897	1344.40002441406
1312.87082309421	1348.40002441406
1313.52751582233	1363
1314.18412413092	1350.80004882813
1314.84064802761	1350.59997558594
1315.49708752	1338.80004882813
1316.1534426157	1332
1316.80971332233	1339.80004882813
1317.46589964749	1329.59997558594
1318.1220015988	1336
1318.77801918386	1329.19995117188
1319.43395241028	1334.40002441406
1320.08980128567	1338.40002441406
1320.74556581764	1329.80004882813
1321.4012460138	1333.80004882813
1322.05684188176	1334.59997558594
1322.71235342911	1327.19995117188
1323.36778066347	1324.19995117188
1324.02312359245	1322.80004882813
1324.67838222365	1329.59997558594
1325.33355656468	1324.19995117188
1325.98864662314	1315.80004882813
1326.64365240663	1308
1327.29857392277	1293.80004882813
1327.95341117915	1296
1328.60816418339	1296.80004882813
1329.26283294308	1294.80004882813
1329.91741746582	1308.19995117188
1330.57191775923	1292.59997558594
1331.2263338309	1289.19995117188
1331.88066568843	1295.19995117188
1332.53491333943	1282.80004882813
1333.1890767915	1289.19995117188
1333.84315605224	1295
1334.49715112925	1286.80004882813
1335.15106203013	1289.40002441406
1335.80488876249	1289.19995117188
1336.45863133391	1289
1337.112289752	1289.19995117188
1337.76586402437	1286.80004882813
1338.4193541586	1276
1339.0727601623	1282.19995117188
1339.72608204306	1272.80004882813
1340.37931980849	1275.19995117188
1341.03247346617	1277
1341.68554302372	1286.40002441406
1342.33852848871	1298.80004882813
1342.99142986876	1288
1343.64424717145	1295.59997558594
1344.29698040438	1296.59997558594
1344.94962957515	1302.19995117188
1345.60219469135	1304.80004882813
1346.25467576058	1316.19995117188
1346.90707279042	1312.19995117188
1347.55938578848	1309.40002441406
1348.21161476235	1297.80004882813
1348.86375971962	1282.40002441406
1349.51582066787	1289.40002441406
1350.16779761472	1289.40002441406
1350.81969056774	1302.40002441406
1351.47149953453	1307.80004882813
1352.12322452269	1315.80004882813
1352.77486553979	1315.80004882813
1353.42642259344	1329.59997558594
1354.07789569122	1341.59997558594
1354.72928484072	1348
1355.38059004953	1345.19995117188
1356.03181132525	1354.80004882813
1356.68294867545	1361
1357.33400210773	1340.40002441406
1357.98497162968	1339.59997558594
1358.63585724889	1343.80004882813
1359.28665897294	1358.40002441406
1359.93737680942	1363.59997558594
1360.58801076591	1368.40002441406
1361.23856085001	1365.59997558594
1361.88902706929	1357
1362.53940943135	1369.19995117188
1363.18970794377	1369.40002441406
1363.83992261413	1381.40002441406
1364.49005345003	1379.80004882813
1365.14010045904	1396.19995117188
1365.79006364874	1394.80004882813
1366.43994302673	1389.19995117188
1367.08973860058	1373
1367.73945037788	1366.59997558594
1368.38907836621	1366.40002441406
1369.03862257315	1352
1369.68808300629	1341.19995117188
1370.3374596732	1325.19995117188
1370.98675258148	1322.59997558594
1371.63596173868	1304
1372.28508715241	1314
1372.93412883024	1319.40002441406
1373.58308677974	1318
1374.2319610085	1312.19995117188
1374.8807515241	1314.80004882813
1375.52945833412	1310.40002441406
1376.17808144612	1300.59997558594
1376.82662086771	1294.59997558594
1377.47507660644	1283.40002441406
1378.12344866989	1263.59997558594
1378.77173706565	1278.59997558594
1379.41994180129	1287.80004882813
1380.06806288439	1276
1380.71610032252	1271.80004882813
1381.36405412326	1273.19995117188
1382.01192429419	1269
1382.65971084287	1264.19995117188
1383.30741377688	1253.59997558594
1383.95503310381	1256.59997558594
1384.60256883121	1262
1385.25002096667	1265.40002441406
1385.89738951775	1270.59997558594
1386.54467449204	1271.19995117188
1387.19187589709	1270.80004882813
1387.8389937405	1277.40002441406
1388.48602802982	1276.80004882813
1389.13297877262	1261.59997558594
1389.77984597649	1253.80004882813
1390.42662964899	1252.80004882813
1391.07332979768	1254.19995117188
1391.71994643015	1246.40002441406
1392.36647955395	1246.59997558594
1393.01292917667	1250
1393.65929530586	1263.59997558594
1394.3055779491	1256.80004882813
1394.95177711395	1252.40002441406
1395.59789280799	1253.80004882813
1396.24392503877	1242
1396.88987381387	1244
1397.53573914086	1251.59997558594
1398.1815210273	1251.80004882813
1398.82721948075	1251.59997558594
1399.47283450878	1265.40002441406
1400.11836611897	1259.80004882813
1400.76381431886	1258.19995117188
1401.40917911603	1254.80004882813
1402.05446051805	1240.40002441406
1402.69965853247	1236.40002441406
1403.34477316686	1244.19995117188
1403.98980442878	1257.19995117188
1404.6347523258	1259.19995117188
1405.27961686548	1248.40002441406
1405.92439805538	1256.40002441406
1406.56909590306	1251.59997558594
1407.21371041608	1252.19995117188
1407.85824160202	1255.80004882813
1408.50268946841	1245.59997558594
1409.14705402284	1255
1409.79133527285	1257
1410.43553322601	1257.59997558594
1411.07964788987	1247.40002441406
1411.723679272	1243.80004882813
1412.36762737996	1242.40002441406
1413.01149222129	1230.80004882813
1413.65527380357	1232.19995117188
1414.29897213435	1235.59997558594
1414.94258722118	1229
1415.58611907163	1234.40002441406
1416.22956769325	1240.19995117188
1416.87293309359	1234.80004882813
1417.51621528021	1248.80004882813
1418.15941426067	1243.40002441406
1418.80253004253	1250.80004882813
1419.44556263333	1248.19995117188
1420.08851204063	1261.40002441406
1420.731378272	1267.19995117188
1421.37416133497	1270.80004882813
1422.0168612371	1257.40002441406
1422.65947798596	1253.59997558594
1423.30201158908	1239.80004882813
1423.94446205403	1238.19995117188
1424.58682938835	1239.40002441406
1425.2291135996	1232.19995117188
1425.87131469532	1236.59997558594
1426.51343268308	1245.19995117188
1427.15546757042	1257.19995117188
1427.79741936488	1259.59997558594
1428.43928807403	1262
1429.0810737054	1253
1429.72277626656	1251.59997558594
1430.36439576504	1253
1431.00593220841	1255.80004882813
1431.64738560419	1254.40002441406
1432.28875595995	1253.59997558594
1432.93004328324	1252.40002441406
1433.57124758159	1250
1434.21236886255	1246.40002441406
1434.85340713368	1242.19995117188
1435.49436240252	1238.80004882813
1436.13523467661	1239.40002441406
1436.77602396349	1245.40002441406
1437.41673027073	1254.59997558594
1438.05735360585	1246.80004882813
1438.69789397641	1256.59997558594
1439.33835138994	1242.59997558594
1439.978725854	1251.80004882813
1440.61901737612	1251.80004882813
1441.25922596385	1245
1441.89935162473	1252.59997558594
1442.53939436631	1258.40002441406
1443.17935419612	1260.19995117188
1443.81923112171	1257.80004882813
1444.45902515061	1258.40002441406
1445.09873629038	1252.40002441406
1445.73836454854	1254.19995117188
1446.37790993265	1243.59997558594
1447.01737245024	1239.80004882813
1447.65675210885	1246
1448.29604891602	1254.40002441406
1448.93526287928	1247
1449.57439400618	1253.19995117188
1450.21344230426	1255.19995117188
1450.85240778105	1255.19995117188
1451.49129044409	1246
1452.13009030092	1237.59997558594
1452.76880735907	1253.80004882813
1453.40744162608	1241.40002441406
1454.04599310949	1236.40002441406
1454.68446181683	1233.59997558594
1455.32284775564	1233.40002441406
1455.96115093345	1235.80004882813
1456.5993713578	1238.80004882813
1457.23750903623	1230.40002441406
1457.87556397626	1237
1458.51353618543	1220.80004882813
1459.15142567127	1221.80004882813
1459.78923244132	1219.40002441406
1460.42695650311	1226.59997558594
1461.06459786417	1228
1461.70215653203	1237.40002441406
1462.33963251423	1235.59997558594
1462.97702581829	1235.80004882813
1463.61433645175	1246.19995117188
1464.25156442214	1233.40002441406
1464.88870973699	1227.19995117188
1465.52577240382	1213.80004882813
1466.16275243017	1220.59997558594
1466.79964982356	1232.59997558594
1467.43646459154	1235.80004882813
1468.07319674161	1232
1468.70984628132	1225.19995117188
1469.34641321818	1219.80004882813
1469.98289755974	1235.19995117188
1470.6192993135	1228.80004882813
1471.25561848701	1231.80004882813
1471.89185508779	1235
1472.52800912336	1220.19995117188
1473.16408060124	1217.59997558594
1473.80006952897	1209.40002441406
1474.43597591407	1216.59997558594
1475.07179976406	1214.40002441406
1475.70754108647	1214
1476.34319988883	1218.19995117188
1476.97877617865	1219.19995117188
1477.61426996345	1219
1478.24968125077	1213.80004882813
1478.88501004812	1223
1479.52025636303	1220
1480.15542020302	1221.80004882813
1480.79050157561	1228.19995117188
1481.42550048832	1222.19995117188
1482.06041694867	1219
1482.69525096418	1220.59997558594
1483.33000254237	1217
1483.96467169077	1227.40002441406
1484.59925841689	1225.40002441406
1485.23376272825	1221.59997558594
1485.86818463237	1221.40002441406
1486.50252413677	1231.19995117188
1487.13678124896	1230
1487.77095597646	1238
1488.4050483268	1226
1489.03905830749	1220.40002441406
1489.67298592604	1217.40002441406
1490.30683118996	1221.80004882813
1490.9405941068	1226.19995117188
1491.57427468403	1240
1492.2078729292	1234.59997558594
1492.84138884981	1235.19995117188
1493.47482245338	1238.59997558594
1494.10817374742	1232.40002441406
1494.74144273944	1226.19995117188
1495.37462943696	1224.59997558594
1496.0077338475	1232.40002441406
1496.64075597856	1234.59997558594
1497.27369583765	1235.80004882813
1497.9065534323	1233.59997558594
1498.53932877001	1230.59997558594
1499.17202185829	1231.19995117188
1499.80463270465	1236.40002441406
1500.43716131661	1236.80004882813
1501.06960770167	1247.59997558594
1501.70197186735	1255.40002441406
1502.33425382116	1250.80004882813
1502.96645357059	1257.59997558594
1503.59857112317	1267.80004882813
1504.23060648641	1266.19995117188
1504.8625596678	1254
1505.49443067486	1269.40002441406
1506.1262195151	1278.40002441406
1506.75792619602	1287.40002441406
1507.38955072513	1286.80004882813
1508.02109310993	1284.40002441406
1508.65255335794	1291.40002441406
1509.28393147666	1289.59997558594
1509.91522747359	1291.40002441406
1510.54644135624	1288.80004882813
1511.17757313212	1302.80004882813
1511.80862280872	1296
1512.43959039356	1292.80004882813
1513.07047589413	1275.40002441406
1513.70127931795	1268
1514.33200067251	1265.40002441406
1514.96263996531	1262.19995117188
1515.59319720386	1261.59997558594
1516.22367239567	1251
1516.85406554822	1265.19995117188
1517.48437666903	1257.59997558594
1518.1146057656	1248.19995117188
1518.74475284542	1250.40002441406
1519.374817916	1243
1520.00480098483	1238.80004882813
1520.63470205942	1247.19995117188
1521.26452114726	1246
1521.89425825586	1236.19995117188
1522.52391339271	1245
1523.15348656531	1232.59997558594
1523.78297778116	1228.59997558594
1524.41238704775	1222.59997558594
1525.04171437259	1217.19995117188
1525.67095976317	1225
1526.30012322699	1224.59997558594
1526.92920477154	1223.19995117188
1527.55820440432	1238.80004882813
1528.18712213283	1218.19995117188
1528.81595796455	1223.19995117188
1529.44471190699	1214
1530.07338396764	1209
1530.70197415399	1218.40002441406
1531.33048247353	1219.59997558594
1531.95890893377	1221.19995117188
1532.58725354219	1226.59997558594
1533.21551630629	1223.19995117188
1533.84369723356	1227.59997558594
1534.47179633148	1223.59997558594
1535.09981360757	1210.59997558594
1535.72774906929	1213.19995117188
1536.35560272415	1219.19995117188
1536.98337457963	1213.80004882813
1537.61106464323	1224.40002441406
1538.23867292243	1214.19995117188
1538.86619942473	1220.19995117188
1539.49364415762	1211
1540.12100712857	1211
1540.74828834509	1209.19995117188
1541.37548781466	1202.80004882813
1542.00260554478	1207.40002441406
1542.62964154291	1212.19995117188
1543.25659581655	1210.19995117188
1543.8834683732	1212.59997558594
1544.51025922034	1210.19995117188
1545.13696836544	1212.59997558594
1545.76359581601	1207.59997558594
1546.39014157952	1210
1547.01660566345	1201.59997558594
1547.64298807531	1199.59997558594
1548.26928882255	1192.40002441406
1548.89550791269	1191
1549.52164535318	1194
1550.14770115153	1179.40002441406
1550.77367531521	1178.59997558594
1551.39956785171	1183
1552.0253787685	1188.19995117188
1552.65110807307	1188.80004882813
1553.2767557729	1184.59997558594
1553.90232187548	1184.40002441406
1554.52780638828	1179.80004882813
1555.15320931879	1179
1555.77853067447	1185.19995117188
1556.40377046282	1200.40002441406
1557.02892869132	1192.19995117188
1557.65400536744	1200.80004882813
1558.27900049866	1192.80004882813
1558.90391409247	1189.19995117188
1559.52874615633	1195
1560.15349669773	1199.80004882813
1560.77816572414	1205.40002441406
1561.40275324305	1198.59997558594
1562.02725926192	1194.40002441406
1562.65168378824	1202.40002441406
1563.27602682948	1191.80004882813
1563.90028839311	1197.59997558594
1564.52446848662	1203.40002441406
1565.14856711748	1198.19995117188
1565.77258429316	1203.40002441406
1566.39652002113	1199
1567.02037430887	1197.59997558594
1567.64414716387	1205.40002441406
1568.26783859357	1210.19995117188
1568.89144860547	1209.19995117188
1569.51497720703	1213
1570.13842440573	1203.80004882813
1570.76179020904	1215.80004882813
1571.38507462442	1212
1572.00827765936	1218
1572.63139932132	1220.40002441406
1573.25443961777	1216.80004882813
1573.87739855618	1214.19995117188
1574.50027614402	1226.19995117188
1575.12307238877	1216.80004882813
1575.74578729789	1218.40002441406
1576.36842087885	1216.59997558594
1576.99097313912	1222.59997558594
1577.61344408616	1214
1578.23583372745	1219.59997558594
1578.85814207046	1209
1579.48036912264	1221.80004882813
1580.10251489147	1211.59997558594
1580.72457938441	1216.40002441406
1581.34656260893	1220.19995117188
1581.9684645725	1209.19995117188
1582.59028528258	1198
1583.21202474663	1212.59997558594
1583.83368297212	1201.40002441406
1584.45525996652	1202.19995117188
1585.07675573728	1196.80004882813
1585.69817029188	1193.19995117188
1586.31950363778	1188
1586.94075578243	1197.59997558594
1587.5619267333	1185.59997558594
1588.18301649786	1178.80004882813
1588.80402508357	1176
1589.42495249788	1179.80004882813
1590.04579874826	1180.40002441406
1590.66656384217	1182
1591.28724778707	1174.19995117188
1591.90785059042	1180
1592.52837225968	1172
1593.14881280232	1175.40002441406
1593.76917222578	1177
1594.38945053753	1186.59997558594
1595.00964774502	1192.80004882813
1595.62976385573	1192.40002441406
1596.24979887709	1192.40002441406
1596.86975281657	1187
1597.48962568164	1177.59997558594
1598.10941747974	1173.40002441406
1598.72912821832	1176.40002441406
1599.34875790486	1167.40002441406
1599.9683065468	1164
1600.58777415159	1164.40002441406
1601.2071607267	1158.80004882813
1601.82646627958	1155.19995117188
1602.44569081769	1153
1603.06483434846	1162.80004882813
1603.68389687937	1173.40002441406
1604.30287841786	1157.59997558594
1604.92177897139	1161
1605.54059854741	1162
1606.15933715337	1149.40002441406
1606.77799479672	1147
1607.39657148492	1152.19995117188
1608.01506722542	1158
1608.63348202566	1161
1609.2518158931	1153.80004882813
1609.87006883519	1162.80004882813
1610.48824085939	1147.19995117188
1611.10633197312	1155
1611.72434218386	1146
1612.34227149904	1140.59997558594
1612.96011992612	1145.40002441406
1613.57788747254	1156
1614.19557414575	1154.19995117188
1614.8131799532	1154.59997558594
1615.43070490234	1149.19995117188
1616.04814900061	1155.80004882813
1616.66551225545	1161
1617.28279467433	1158.40002441406
1617.89999626467	1158
1618.51711703393	1156.59997558594
1619.13415698955	1157.80004882813
1619.75111613898	1150.80004882813
1620.36799448966	1155.19995117188
1620.98479204903	1136
1621.60150882455	1150
1622.21814482364	1154.80004882813
1622.83470005376	1157.59997558594
1623.45117452235	1166.80004882813
1624.06756823685	1162.59997558594
1624.6838812047	1157.19995117188
1625.30011343335	1166.59997558594
1625.91626493022	1162.59997558594
1626.53233570278	1158.19995117188
1627.14832575845	1156.80004882813
1627.76423510468	1149.40002441406
1628.38006374891	1147.40002441406
1628.99581169857	1154.40002441406
1629.61147896111	1156.19995117188
1630.22706554397	1161
1630.84257145457	1159.40002441406
1631.45799670038	1158
1632.07334128881	1155
1632.6886052273	1157.19995117188
1633.3037885233	1157
1633.91889118425	1155.59997558594
1634.53391321757	1157.19995117188
1635.1488546307	1159.59997558594
1635.76371543108	1152.59997558594
1636.37849562616	1152.19995117188
1636.99319522335	1144.80004882813
1637.60781423009	1148
1638.22235265383	1144.59997558594
1638.83681050198	1150.59997558594
1639.451187782	1140.80004882813
1640.0654845013	1142.40002441406
1640.67970066734	1144.80004882813
1641.29383628752	1152.40002441406
1641.9078913693	1153.80004882813
1642.5218659201	1154.19995117188
1643.13575994735	1161.80004882813
1643.74957345849	1170.59997558594
1644.36330646094	1172.19995117188
1644.97695896213	1183.80004882813
1645.59053096951	1187.40002441406
1646.20402249049	1177.59997558594
1646.8174335325	1181.80004882813
1647.43076410298	1177.80004882813
1648.04401420935	1187.19995117188
1648.65718385905	1183.19995117188
1649.2702730595	1186.80004882813
1649.88328181812	1186.19995117188
1650.49621014236	1202.59997558594
1651.10905803963	1212.19995117188
1651.72182551735	1219.40002441406
1652.33451258297	1208.80004882813
1652.9471192439	1208.80004882813
1653.55964550757	1208.19995117188
1654.1720913814	1203.80004882813
1654.78445687283	1181
1655.39674198926	1176
1656.00894673814	1162.19995117188
1656.62107112688	1150
1657.23311516291	1153.40002441406
1657.84507885365	1156
1658.45696220652	1148.59997558594
1659.06876522895	1138.59997558594
1659.68048792835	1139.19995117188
1660.29213031217	1126.59997558594
1660.90369238779	1126
1661.51517416267	1121.19995117188
1662.12657564421	1121.40002441406
1662.73789683984	1128
1663.34913775697	1127.59997558594
1663.96029840303	1125.40002441406
1664.57137878544	1131.59997558594
1665.18237891161	1129.59997558594
1665.79329878897	1116.59997558594
1666.40413842493	1115.40002441406
1667.01489782691	1106.19995117188
1667.62557700233	1113.40002441406
1668.2361759586	1117.80004882813
1668.84669470315	1108
1669.4571332434	1106.80004882813
1670.06749158675	1108.19995117188
1670.67776974062	1115.80004882813
1671.28796771243	1115.40002441406
1671.8980855096	1109.19995117188
1672.50812313954	1105.40002441406
1673.11808060967	1110
1673.72795792739	1111.19995117188
1674.33775510013	1102
1674.9474721353	1099
1675.55710904031	1091.19995117188
1676.16666582257	1098.59997558594
1676.7761424895	1099.40002441406
1677.38553904851	1098.40002441406
1677.99485550702	1092
1678.60409187243	1088.40002441406
1679.21324815215	1085.40002441406
1679.8223243536	1085.19995117188
1680.43132048419	1087.80004882813
1681.04023655132	1082.19995117188
1681.64907256241	1088.19995117188
1682.25782852487	1084.80004882813
1682.86650444611	1080.59997558594
1683.47510033353	1091.40002441406
1684.08361619455	1091
1684.69205203657	1090.19995117188
1685.300407867	1084.59997558594
1685.90868369325	1086.59997558594
1686.51687952272	1086.40002441406
1687.12499536283	1089.19995117188
1687.73303122098	1091.59997558594
1688.34098710457	1097
1688.94886302101	1092
1689.55665897772	1086.80004882813
1690.16437498208	1094.59997558594
1690.77201104152	1097.40002441406
1691.37956716342	1093.40002441406
1691.9870433552	1082.80004882813
1692.59443962426	1087.40002441406
1693.20175597801	1077
1693.80899242384	1087.19995117188
1694.41614896916	1077.19995117188
1695.02322562138	1078.59997558594
1695.63022238789	1083.19995117188
1696.23713927609	1075.80004882813
1696.8439762934	1082
1697.4507334472	1087.19995117188
1698.05741074491	1089.19995117188
1698.66400819391	1071
1699.27052580161	1078.59997558594
1699.87696357542	1085.19995117188
1700.48332152272	1072.40002441406
1701.08959965092	1068.19995117188
1701.69579796742	1065.59997558594
1702.30191647962	1068.80004882813
1702.90795519491	1060.19995117188
1703.51391412069	1058.59997558594
1704.11979326437	1052.40002441406
1704.72559263332	1053
1705.33131223496	1053.80004882813
1705.93695207668	1058.40002441406
1706.54251216588	1052
1707.14799250994	1054.19995117188
1707.75339311628	1044.19995117188
1708.35871399227	1051.59997558594
1708.96395514532	1046.40002441406
1709.56911658282	1040.40002441406
