634.948122577771	1334
635.690341530823	1330
636.43246851086	1327.80004882813
637.174503525845	1336.80004882813
637.916446583745	1335.19995117188
638.658297692538	1331.40002441406
639.400056860179	1339.40002441406
640.141724094637	1349
640.883299403885	1343
641.62478279588	1345.40002441406
642.366174278594	1349.19995117188
643.107473859989	1333.40002441406
643.848681548029	1344.59997558594
644.589797350679	1340.40002441406
645.330821275901	1343
646.071753331665	1347.40002441406
646.812593525922	1352.19995117188
647.553341866646	1342.40002441406
648.293998361798	1339.40002441406
649.03456301933	1336.59997558594
649.775035847216	1330.40002441406
650.515416853409	1325.40002441406
651.255706045874	1331.19995117188
651.995903432568	1333.19995117188
652.736009021453	1352.59997558594
653.476022820486	1354.19995117188
654.215944837629	1370.59997558594
654.955775080842	1371.19995117188
655.695513558081	1370.59997558594
656.435160277301	1379.80004882813
657.174715246465	1379
657.914178473527	1384
658.653549966449	1372.59997558594
659.392829733176	1354
660.132017781678	1358.59997558594
660.871114119901	1377.40002441406
661.610118755803	1373.59997558594
662.349031697343	1363.59997558594
663.087852952468	1357.40002441406
663.826582529139	1354.19995117188
664.565220435305	1358.59997558594
665.30376667892	1348.59997558594
666.04222126794	1352.40002441406
666.780584210316	1356.40002441406
667.518855514	1362
668.25703518694	1356.19995117188
668.995123237096	1359.19995117188
669.733119672413	1374
670.471024500842	1374.40002441406
671.208837730333	1363.59997558594
671.946559368839	1360.40002441406
672.684189424308	1366.80004882813
673.421727904689	1362.19995117188
674.159174817929	1374.80004882813
674.896530171977	1371.40002441406
675.633793974786	1381.19995117188
676.370966234295	1376.59997558594
677.108046958461	1380.80004882813
677.845036155219	1375.19995117188
678.581933832528	1371
679.318739998323	1378.59997558594
680.055454660558	1380.40002441406
680.792077827172	1365
681.528609506116	1357.59997558594
682.265049705331	1379.40002441406
683.001398432759	1371.80004882813
683.737655696349	1364.80004882813
684.47382150404	1366.40002441406
685.20989586378	1377
685.945878783503	1354.59997558594
686.68177027116	1359.40002441406
687.417570334688	1373.80004882813
688.153278982032	1360.59997558594
688.888896221129	1364
689.624422059921	1364
690.359856506349	1368.59997558594
691.095199568354	1364
691.830451253874	1371.59997558594
692.565611570844	1357.40002441406
693.300680527212	1365
694.03565813091	1366.19995117188
694.770544389877	1367.40002441406
695.505339312053	1359.59997558594
696.240042905372	1372.59997558594
696.974655177772	1371.40002441406
697.70917613719	1374
698.443605791561	1382.80004882813
699.177944148826	1378.80004882813
699.912191216909	1383.40002441406
700.646347003755	1373
701.380411517295	1370.19995117188
702.114384765465	1372.40002441406
702.848266756195	1371.19995117188
703.582057497421	1387.40002441406
704.315756997074	1380.40002441406
705.049365263089	1380.59997558594
705.782882303399	1388.59997558594
706.516308125936	1379.19995117188
707.249642738626	1375.40002441406
707.982886149403	1379.40002441406
708.716038366204	1391.19995117188
709.449099396949	1376.80004882813
710.182069249577	1380.19995117188
710.914947932009	1392.80004882813
711.647735452181	1393.59997558594
712.380431818022	1387.40002441406
713.113037037454	1389.40002441406
713.845551118411	1387.59997558594
714.577974068818	1382.59997558594
715.310305896604	1388.59997558594
716.042546609694	1398.59997558594
716.774696216013	1403.59997558594
717.506754723493	1397.80004882813
718.238722140053	1401.80004882813
718.970598473624	1391.40002441406
719.702383732127	1384.80004882813
720.43407792349	1387.80004882813
721.165681055634	1381.19995117188
721.897193136486	1365
722.628614173966	1375
723.359944175997	1370.40002441406
724.091183150505	1374.40002441406
724.822331105412	1368.40002441406
725.553388048638	1372.80004882813
726.284353988106	1371.59997558594
727.015228931734	1383.19995117188
727.746012887449	1378.40002441406
728.476705863162	1385.59997558594
729.207307866803	1373.19995117188
729.937818906289	1400.19995117188
730.668238989535	1399.80004882813
731.398568124459	1387.40002441406
732.128806318986	1374.40002441406
732.858953581034	1397.40002441406
733.589009918514	1383.19995117188
734.318975339348	1380
735.048849851452	1376.59997558594
735.778633462744	1375.19995117188
736.508326181137	1375.59997558594
737.237928014549	1386
737.967438970897	1384
738.696859058095	1386.59997558594
739.426188284054	1400.40002441406
740.155426656692	1383.19995117188
740.884574183922	1394
741.613630873659	1388.59997558594
742.342596733815	1393.80004882813
743.071471772302	1387.80004882813
743.800255997034	1396.59997558594
744.528949415921	1392.19995117188
745.257552036877	1393.80004882813
745.986063867811	1401
746.714484916638	1398.40002441406
747.442815191261	1383.59997558594
748.171054699597	1386.40002441406
748.899203449554	1388.59997558594
749.627261449039	1388.19995117188
750.355228705966	1382.80004882813
751.083105228239	1391
751.810891023765	1389.40002441406
752.538586100459	1390
753.266190466218	1378.80004882813
753.99370412896	1383.40002441406
754.721127096582	1377.59997558594
755.448459377	1380.80004882813
756.175700978114	1382.80004882813
756.902851907828	1363
757.629912174055	1367.19995117188
758.356881784688	1374.59997558594
759.083760747639	1368.40002441406
759.810549070817	1378.19995117188
760.537246762113	1384
761.263853829442	1398.80004882813
761.990370280698	1408.80004882813
762.716796123791	1416.19995117188
763.443131366618	1418.19995117188
764.169376017082	1417
764.895530083085	1422.19995117188
765.621593572527	1411.59997558594
766.347566493312	1421
767.073448853336	1422.19995117188
767.799240660502	1424.19995117188
768.524941922707	1418
769.250552647854	1445
769.976072843836	1438.40002441406
770.701502518551	1447.80004882813
771.426841679905	1454.59997558594
772.152090335793	1475.40002441406
772.877248494107	1457.80004882813
773.602316162747	1465.19995117188
774.327293349609	1464.80004882813
775.052180062592	1466.19995117188
775.776976309589	1478.59997558594
776.501682098496	1458.59997558594
777.226297437206	1455.40002441406
777.950822333616	1453.59997558594
778.675256795621	1441.80004882813
779.399600831111	1435
780.123854447983	1418.19995117188
780.84801765413	1427.80004882813
781.572090457441	1427.40002441406
782.296072865811	1412.40002441406
783.019964887131	1413.19995117188
783.743766529297	1414.40002441406
784.467477800194	1399.80004882813
785.191098707719	1414.19995117188
785.914629259756	1414.19995117188
786.638069464194	1407
787.361419328932	1407.40002441406
788.084678861852	1405.80004882813
788.807848070845	1404.40002441406
789.530926963798	1387.19995117188
790.253915548602	1407.40002441406
790.976813833144	1399.40002441406
791.699621825307	1393.19995117188
792.422339532986	1387.59997558594
793.144966964061	1389.80004882813
793.86750412642	1388.40002441406
794.589951027946	1384.40002441406
795.312307676536	1389.59997558594
796.03457408006	1388.40002441406
796.756750246417	1379.19995117188
797.478836183477	1390.40002441406
798.200831899137	1402
798.92273740127	1394.40002441406
799.644552697769	1381.19995117188
800.36627779651	1385
801.087912705374	1375.59997558594
801.809457432251	1373.40002441406
802.530911985017	1372
803.252276371558	1374
803.973550599748	1387.59997558594
804.694734677472	1375
805.415828612611	1381.19995117188
806.136832413045	1369.80004882813
806.857746086646	1377.19995117188
807.578569641305	1362.40002441406
808.299303084892	1376
809.019946425289	1372.59997558594
809.740499670372	1381.19995117188
810.460962828022	1370
811.181335906114	1367.80004882813
811.901618912524	1380.59997558594
812.621811855131	1380.40002441406
813.341914741809	1377.19995117188
814.061927580433	1363.40002441406
814.781850378881	1373.59997558594
815.501683145025	1376.19995117188
816.221425886743	1359.80004882813
816.941078611903	1365
817.660641328387	1363.19995117188
818.380114044065	1374
819.099496766808	1354.59997558594
819.818789504492	1351
820.53799226499	1358.40002441406
821.257105056168	1372.59997558594
821.976127885904	1353.40002441406
822.695060762064	1367.40002441406
823.413903692525	1356.59997558594
824.132656685151	1357.40002441406
824.851319747817	1363
825.569892888388	1367.19995117188
826.288376114739	1365.80004882813
827.006769434737	1366.59997558594
827.725072856249	1380
828.443286387142	1365.40002441406
829.161410035285	1367
829.87944380855	1361.80004882813
830.597387714798	1358.19995117188
831.315241761898	1365
832.033005957715	1362.80004882813
832.750680310119	1354.59997558594
833.468264826969	1370
834.18575951614	1361.59997558594
834.903164385486	1374
835.620479442878	1365.40002441406
836.337704696181	1373.40002441406
837.054840153255	1370.19995117188
837.771885821962	1369.40002441406
838.488841710172	1377.19995117188
839.20570782574	1380
839.922484176531	1380.19995117188
840.639170770409	1385.80004882813
841.355767615231	1377
842.072274718864	1369
842.788692089164	1381
843.505019733993	1385
844.221257661209	1386.19995117188
844.937405878676	1368.59997558594
845.65346439425	1356.40002441406
846.369433215789	1362.40002441406
847.085312351156	1352.59997558594
847.801101808205	1343.40002441406
848.516801594793	1352.80004882813
849.232411718781	1367
849.947932188021	1349.80004882813
850.663363010376	1365
851.378704193698	1376.40002441406
852.093955745842	1367.59997558594
852.809117674669	1368.59997558594
853.524189988028	1371
854.239172693778	1363
854.954065799768	1370
855.668869313857	1366
856.383583243899	1367.59997558594
857.098207597743	1369.40002441406
857.812742383246	1363.80004882813
858.527187608255	1356
859.241543280628	1353.40002441406
859.955809408218	1366.59997558594
860.669985998868	1363.80004882813
861.384073060437	1359.19995117188
862.098070600772	1359.59997558594
862.811978627724	1370.80004882813
863.52579714914	1372.80004882813
864.239526172873	1375.19995117188
864.953165706776	1373.19995117188
865.666715758687	1366
866.380176336464	1364.59997558594
867.093547447951	1358
867.806829100996	1359.19995117188
868.520021303444	1356.80004882813
869.233124063149	1361
869.94613738795	1379.59997558594
870.659061285693	1367.59997558594
871.37189576423	1379.59997558594
872.084640831403	1378.80004882813
872.797296495057	1359
873.509862763039	1360.80004882813
874.22233964319	1357
874.934727143353	1367.40002441406
875.647025271374	1358.59997558594
876.359234035097	1361
877.071353442361	1353.19995117188
877.783383501015	1349.19995117188
878.495324218895	1351.19995117188
879.207175603844	1358.59997558594
879.918937663705	1348.19995117188
880.630610406318	1360
881.342193839524	1354.80004882813
882.053687971161	1363.59997558594
882.765092809069	1358.40002441406
883.476408361091	1354.59997558594
884.187634635066	1355
884.898771638828	1344.19995117188
885.609819380221	1345.80004882813
886.320777867076	1354.80004882813
887.031647107236	1350.80004882813
887.742427108536	1351.80004882813
888.453117878816	1365.59997558594
889.16371942591	1363.59997558594
889.874231757652	1352
890.584654881883	1359
891.294988806434	1359.19995117188
892.005233539141	1358
892.715389087837	1367.40002441406
893.42545546036	1371.40002441406
894.135432664543	1376
894.845320708216	1367.80004882813
895.555119599216	1357.40002441406
896.264829345375	1356.80004882813
896.974449954526	1366.59997558594
897.683981434496	1373.19995117188
898.393423793125	1369.40002441406
899.102777038235	1381.19995117188
899.812041177664	1369.59997558594
900.521216219239	1366.59997558594
901.230302170793	1363.80004882813
901.939299040155	1364.40002441406
902.64820683515	1367.59997558594
903.357025563612	1366.40002441406
904.065755233368	1362.80004882813
904.774395852247	1363.40002441406
905.482947428076	1361.59997558594
906.191409968682	1357.19995117188
906.899783481897	1357.19995117188
907.608067975538	1377.59997558594
908.316263457443	1362
909.02436993543	1376.19995117188
909.732387417327	1372
910.440315910959	1353.59997558594
911.148155424154	1351.59997558594
911.855905964731	1361.59997558594
912.563567540521	1363.80004882813
913.271140159339	1367.19995117188
913.978623829017	1373.19995117188
914.686018557374	1360.80004882813
915.393324352237	1352.80004882813
916.100541221421	1369.19995117188
916.807669172752	1368.19995117188
917.514708214054	1385.40002441406
918.221658353142	1378.19995117188
918.928519597843	1373.80004882813
919.635291955976	1370.80004882813
920.341975435358	1376.80004882813
921.048570043813	1369.40002441406
921.75507578916	1376.40002441406
922.461492679212	1379.19995117188
923.167820721795	1378
923.874059924726	1377.80004882813
924.58021029582	1385.40002441406
925.286271842893	1370.80004882813
925.992244573769	1371.19995117188
926.698128496262	1353.40002441406
927.403923618184	1358.80004882813
928.109629947355	1362
928.815247491593	1371
929.520776258708	1363.59997558594
930.226216256519	1362.59997558594
930.931567492841	1369
931.636829975482	1354.59997558594
932.342003712263	1353
933.047088710995	1345.19995117188
933.752084979491	1349.59997558594
934.456992525564	1357.19995117188
935.161811357024	1350.40002441406
935.866541481688	1357.19995117188
936.571182907363	1347.19995117188
937.275735641861	1350.59997558594
937.980199692995	1346.59997558594
938.684575068572	1353.59997558594
939.388861776411	1339.80004882813
940.093059824311	1342
940.797169220085	1344
941.501189971544	1349.59997558594
942.205122086495	1340.19995117188
942.908965572751	1340.59997558594
943.612720438111	1337.80004882813
944.316386690391	1342
945.019964337391	1353
945.723453386924	1361.40002441406
946.426853846795	1355.80004882813
947.130165724808	1371.40002441406
947.83338902877	1352.80004882813
948.536523766488	1352.80004882813
949.239569945764	1355
949.942527574402	1352
950.64539666021	1365
951.348177210993	1354.59997558594
952.050869234548	1347.19995117188
952.753472738683	1343
953.455987731199	1362.40002441406
954.158414219898	1344
954.860752212587	1343.59997558594
955.563001717061	1354.80004882813
956.265162741124	1350.19995117188
956.967235292576	1352.80004882813
957.669219379224	1342.40002441406
958.371115008857	1334.40002441406
959.072922189283	1334
959.774640928301	1337.80004882813
960.476271233708	1335.19995117188
961.177813113301	1328
961.879266574882	1347
962.580631626248	1343.40002441406
963.281908275194	1352.59997558594
963.98309652952	1348.40002441406
964.684196397022	1346.19995117188
965.3852078855	1351.40002441406
966.086131002745	1352.19995117188
966.786965756555	1333.19995117188
967.487712154726	1337
968.188370205055	1334.40002441406
968.888939915331	1333
969.589421293352	1341
970.289814346909	1344.40002441406
970.990119083801	1347.80004882813
971.690335511819	1347.40002441406
972.39046363875	1350.40002441406
973.090503472398	1344
973.790455020545	1347.19995117188
974.490318290987	1343.59997558594
975.190093291516	1346.59997558594
975.889780029923	1344.19995117188
976.589378513998	1335
977.288888751527	1335.40002441406
977.988310750308	1335.80004882813
978.687644518122	1331.40002441406
979.386890062767	1340.40002441406
980.086047392025	1343.80004882813
980.785116513689	1339.59997558594
981.484097435542	1340.19995117188
982.182990165377	1336
982.88179471098	1333.59997558594
983.580511080137	1346.59997558594
984.279139280632	1342.59997558594
984.977679320253	1340
985.67613120679	1348
986.374494948027	1352.40002441406
987.072770551745	1354.80004882813
987.770958025731	1339.80004882813
988.469057377772	1350.40002441406
989.167068615649	1334.19995117188
989.864991747145	1332
990.562826780047	1331.40002441406
991.260573722134	1333
991.958232581195	1334.59997558594
992.655803365003	1319
993.353286081346	1325.40002441406
994.050680738006	1320.59997558594
994.74798734276	1321
995.44520590339	1322.59997558594
996.142336427681	1320.59997558594
996.839378923407	1328.19995117188
997.536333398348	1331.19995117188
998.233199860289	1327.19995117188
998.929978317004	1329.80004882813
999.626668776274	1338.80004882813
1000.32327124587	1337.40002441406
1001.01978573359	1341.59997558594
1001.71621224718	1333
1002.41255079445	1336.80004882813
1003.10880138315	1341.40002441406
1003.80496402107	1333.19995117188
1004.50103871599	1332.80004882813
1005.19702547567	1326.59997558594
1005.8929243079	1324.19995117188
1006.58873522045	1325.59997558594
1007.2844582211	1323.80004882813
1007.98009331761	1328
1008.67564051776	1319.80004882813
1009.37109982933	1320.59997558594
1010.06647126009	1329.59997558594
1010.7617548178	1333.40002441406
1011.45695051026	1326.80004882813
1012.15205834522	1328.80004882813
1012.84707833045	1335.80004882813
1013.54201047373	1336.40002441406
1014.23685478284	1335
1014.93161126553	1317.59997558594
1015.62627992959	1324.59997558594
1016.32086078277	1312.19995117188
1017.01535383285	1325.59997558594
1017.70975908761	1324.80004882813
1018.40407655479	1321.59997558594
1019.09830624219	1329.19995117188
1019.79244815755	1312.59997558594
1020.48650230866	1316.80004882813
1021.18046870328	1301
1021.87434734917	1305.80004882813
1022.56813825411	1303.19995117188
1023.26184142584	1308
1023.95545687216	1316.80004882813
1024.64898460082	1319.19995117188
1025.34242461957	1317.40002441406
1026.0357769362	1308.40002441406
1026.72904155846	1311.40002441406
1027.42221849412	1312.19995117188
1028.11530775094	1313
1028.80830933668	1313.19995117188
1029.50122325911	1317
1030.19404952599	1320.19995117188
1030.88678814508	1321.19995117188
1031.57943912414	1325.19995117188
1032.27200247093	1310.59997558594
1032.96447819323	1323
1033.65686629878	1324.80004882813
1034.34916679534	1333
1035.04137969068	1325.19995117188
1035.73350499256	1332.19995117188
1036.42554270874	1320.19995117188
1037.11749284697	1327.19995117188
1037.80935541501	1325.59997558594
1038.50113042062	1327.80004882813
1039.19281787156	1331.40002441406
1039.88441777559	1316.80004882813
1040.57593014046	1317
1041.26735497393	1314.40002441406
1041.95869228376	1311.80004882813
1042.6499420777	1313.80004882813
1043.3411043635	1308.80004882813
1044.03217914893	1317.40002441406
1044.72316644174	1319.19995117188
1045.41406624968	1323.19995117188
1046.1048785805	1313.40002441406
1046.79560344197	1323.19995117188
1047.48624084182	1312.59997558594
1048.17679078783	1314.59997558594
1048.86725328774	1356.40002441406
1049.55762834929	1340.40002441406
1050.24791598025	1334.40002441406
1050.93811618837	1323.19995117188
1051.62822898139	1320.59997558594
1052.31825436707	1314.40002441406
1053.00819235315	1317.59997558594
1053.6980429474	1300.59997558594
1054.38780615755	1310.19995117188
1055.07748199136	1305.80004882813
1055.76707045658	1305.19995117188
1056.45657156095	1305.59997558594
1057.14598531222	1305.80004882813
1057.83531171814	1304
1058.52455078646	1306.40002441406
1059.21370252494	1291.59997558594
1059.90276694129	1300.40002441406
1060.5917440433	1287.80004882813
1061.28063383868	1299.19995117188
1061.9694363352	1297.19995117188
1062.65815154059	1296.19995117188
1063.34677946261	1300.19995117188
1064.03532010899	1302
1064.72377348748	1299.19995117188
1065.41213960583	1299.19995117188
1066.10041847177	1290.59997558594
1066.78861009306	1293.40002441406
1067.47671447743	1306
1068.16473163263	1291
1068.85266156639	1296.40002441406
1069.54050428647	1300.19995117188
1070.2282598006	1312.40002441406
1070.91592811652	1312.80004882813
1071.60350924198	1320.40002441406
1072.29100318471	1313.59997558594
1072.97840995245	1309.59997558594
1073.66572955295	1308.19995117188
1074.35296199394	1297.40002441406
1075.04010728316	1290.40002441406
1075.72716542836	1291.80004882813
1076.41413643726	1294
1077.10102031761	1292
1077.78781707715	1296.40002441406
1078.4745267236	1297.59997558594
1079.16114926471	1306.80004882813
1079.84768470822	1291
1080.53413306185	1285
1081.22049433336	1275.59997558594
1081.90676853046	1283.19995117188
1082.5929556609	1290.40002441406
1083.27905573241	1290.19995117188
1083.96506875272	1293
1084.65099472957	1294.80004882813
1085.3368336707	1295.19995117188
1086.02258558383	1308.80004882813
1086.70825047669	1309.80004882813
1087.39382835703	1307.59997558594
1088.07931923257	1303
1088.76472311104	1302.80004882813
1089.45004000018	1308.59997558594
1090.13526990771	1295.80004882813
1090.82041284137	1299.80004882813
1091.50546880889	1297.80004882813
1092.19043781799	1307.40002441406
1092.87531987642	1297.19995117188
1093.56011499188	1301.59997558594
1094.24482317212	1287.19995117188
1094.92944442486	1292.40002441406
1095.61397875783	1291.59997558594
1096.29842617876	1288.40002441406
1096.98278669537	1292.19995117188
1097.6670603154	1300.59997558594
1098.35124704656	1292.40002441406
1099.03534689659	1294.59997558594
1099.71935987322	1300.80004882813
1100.40328598416	1297.59997558594
1101.08712523713	1290.59997558594
1101.77087763988	1288
1102.45454320012	1297.19995117188
1103.13812192557	1283
1103.82161382396	1284
1104.50501890301	1286.80004882813
1105.18833717045	1293.59997558594
1105.87156863399	1287.40002441406
1106.55471330137	1284.80004882813
1107.2377711803	1280.80004882813
1107.9207422785	1281.80004882813
1108.60362660369	1282.40002441406
1109.2864241636	1274.19995117188
1109.96913496594	1284.19995117188
1110.65175901844	1293.19995117188
1111.33429632882	1292.59997558594
1112.01674690479	1292.80004882813
1112.69911075408	1287.40002441406
1113.38138788439	1291.40002441406
1114.06357830346	1294.80004882813
1114.745682019	1289
1115.42769903872	1282
1116.10962937035	1275.19995117188
1116.7914730216	1284.40002441406
1117.47323000018	1281
1118.15490031382	1284.80004882813
1118.83648397022	1299.40002441406
1119.51798097712	1298.19995117188
1120.1993913422	1302.19995117188
1120.88071507321	1287.80004882813
1121.56195217784	1302.59997558594
1122.24310266381	1307
1122.92416653884	1301
1123.60514381064	1293
1124.28603448692	1299.19995117188
1124.9668385754	1292
1125.64755608378	1287.19995117188
1126.32818701978	1281.40002441406
1127.00873139111	1282.59997558594
1127.68918920548	1282.40002441406
1128.3695604706	1294.59997558594
1129.04984519419	1290.19995117188
1129.73004338394	1281
1130.41015504758	1279.19995117188
1131.09018019281	1275.80004882813
1131.77011882734	1279.19995117188
1132.44997095888	1270.80004882813
1133.12973659514	1283.19995117188
1133.80941574381	1286
1134.48900841263	1289.59997558594
1135.16851460927	1283.80004882813
1135.84793434147	1281.59997558594
1136.52726761692	1279.59997558594
1137.20651444333	1279.40002441406
1137.8856748284	1285.19995117188
1138.56474877984	1287
1139.24373630536	1281
1139.92263741265	1267.80004882813
1140.60145210943	1270
1141.28018040339	1280.40002441406
1141.95882230225	1291.40002441406
1142.6373778137	1280.19995117188
1143.31584694545	1298
1143.99422970519	1278.19995117188
1144.67252610064	1273.19995117188
1145.35073613949	1280.59997558594
1146.02885982944	1277.80004882813
1146.7068971782	1290
1147.38484819347	1271
1148.06271288294	1288.59997558594
1148.74049125432	1277.19995117188
1149.41818331531	1275.80004882813
1150.0957890736	1275.80004882813
1150.77330853689	1265.40002441406
1151.45074171289	1265.40002441406
1152.12808860928	1269.40002441406
1152.80534923378	1269.40002441406
1153.48252359407	1267.59997558594
1154.15961169786	1276.19995117188
1154.83661355283	1281.40002441406
1155.51352916669	1277.59997558594
1156.19035854713	1270.19995117188
1156.86710170185	1265.59997558594
1157.54375863855	1261.40002441406
1158.22032936491	1263.59997558594
1158.89681388863	1255.59997558594
1159.57321221741	1258.80004882813
1160.24952435894	1253
1160.92575032092	1257
1161.60189011103	1258
1162.27794373697	1256.40002441406
1162.95391120644	1260.80004882813
1163.62979252712	1259
1164.3055877067	1253.59997558594
1164.98129675288	1255.80004882813
1165.65691967336	1268
1166.33245647581	1272.80004882813
1167.00790716792	1270
1167.6832717574	1265
1168.35855025193	1272.40002441406
1169.0337426592	1265
1169.70884898689	1258.19995117188
1170.3838692427	1259.80004882813
1171.05880343431	1267.40002441406
1171.73365156941	1261.80004882813
1172.40841365569	1256.40002441406
1173.08308970083	1258
1173.75767971253	1257.40002441406
1174.43218369847	1253
1175.10660166633	1249.59997558594
1175.7809336238	1252.80004882813
1176.45517957857	1255.80004882813
1177.12933953832	1260.19995117188
1177.80341351073	1259.80004882813
1178.47740150349	1263.80004882813
1179.15130352429	1278.40002441406
1179.8251195808	1274.80004882813
1180.49884968071	1277.80004882813
1181.1724938317	1268.19995117188
1181.84605204145	1272.40002441406
1182.51952431766	1274.40002441406
1183.19291066799	1274.19995117188
1183.86621110013	1282.40002441406
1184.53942562176	1278.80004882813
1185.21255424057	1274.80004882813
1185.88559696422	1273.40002441406
1186.55855380041	1276.40002441406
1187.2314247568	1270.59997558594
1187.90420984109	1278.40002441406
1188.57690906095	1273.40002441406
1189.24952242405	1282.19995117188
1189.92204993808	1274.59997558594
1190.59449161071	1268.40002441406
1191.26684744962	1277.59997558594
1191.93911746249	1268.59997558594
1192.61130165699	1275.19995117188
1193.28340004081	1278.19995117188
1193.95541262161	1278.19995117188
1194.62733940707	1277.40002441406
1195.29918040487	1280.80004882813
1195.97093562269	1273.40002441406
1196.64260506819	1270.80004882813
1197.31418874905	1256.80004882813
1197.98568667295	1263.40002441406
1198.65709884755	1267.19995117188
1199.32842528053	1276.80004882813
1199.99966597957	1276.40002441406
1200.67082095234	1269.80004882813
1201.3418902065	1262.59997558594
1202.01287374974	1257.40002441406
1202.68377158971	1261.59997558594
1203.3545837341	1253.19995117188
1204.02531019057	1250
1204.6959509668	1256.19995117188
1205.36650607045	1263
1206.03697550919	1256.59997558594
1206.70735929069	1255.40002441406
1207.37765742263	1249.59997558594
1208.04786991266	1245.19995117188
1208.71799676846	1245.19995117188
1209.38803799769	1244.19995117188
1210.05799360803	1250.59997558594
1210.72786360714	1254.59997558594
1211.39764800268	1249.80004882813
1212.06734680233	1261.19995117188
1212.73696001375	1251.40002441406
1213.4064876446	1251.19995117188
1214.07592970255	1249.59997558594
1214.74528619526	1248.40002441406
1215.4145571304	1254.80004882813
1216.08374251564	1251.40002441406
1216.75284235863	1253.40002441406
1217.42185666704	1250.40002441406
1218.09078544854	1262.19995117188
1218.75962871078	1269.59997558594
1219.42838646143	1255.40002441406
1220.09705870816	1249.40002441406
1220.76564545861	1245.19995117188
1221.43414672046	1252
1222.10256250136	1241
1222.77089280898	1244.59997558594
1223.43913765098	1244.59997558594
1224.107297035	1239.59997558594
1224.77537096873	1242.59997558594
1225.44335945981	1233.19995117188
1226.1112625159	1239.80004882813
1226.77908014467	1236.80004882813
1227.44681235376	1251.19995117188
1228.11445915085	1240.40002441406
1228.78202054357	1248.40002441406
1229.44949653961	1259
1230.11688714659	1245.80004882813
1230.7841923722	1251.59997558594
1231.45141222407	1238.80004882813
1232.11854670988	1243.40002441406
1232.78559583726	1242.59997558594
1233.45255961388	1246.40002441406
1234.1194380474	1246.80004882813
1234.78623114546	1234.80004882813
1235.45293891572	1240.40002441406
1236.11956136583	1228.40002441406
1236.78609850345	1248.59997558594
1237.45255033623	1240.80004882813
1238.11891687182	1231
1238.78519811788	1229.80004882813
1239.45139408205	1237.59997558594
1240.11750477198	1224.40002441406
1240.78353019534	1231.59997558594
1241.44947035976	1227.19995117188
1242.11532527291	1220.59997558594
1242.78109494242	1227.40002441406
1243.44677937595	1237.40002441406
1244.11237858115	1229.40002441406
1244.77789256567	1228.40002441406
1245.44332133715	1230.40002441406
1246.10866490325	1227.19995117188
1246.7739232716	1228.80004882813
1247.43909644987	1229.19995117188
1248.10418444569	1225.19995117188
1248.76918726671	1223
1249.43410492059	1230.40002441406
1250.09893741496	1241.80004882813
1250.76368475747	1232
1251.42834695576	1223.59997558594
1252.09292401749	1223.19995117188
1252.75741595029	1215.59997558594
1253.42182276182	1208.59997558594
1254.08614445971	1209.40002441406
1254.75038105161	1209.40002441406
1255.41453254515	1213
1256.07859894799	1208
1256.74258026777	1228
1257.40647651213	1225.59997558594
1258.0702876887	1220.19995117188
1258.73401380514	1221.59997558594
1259.39765486908	1219.40002441406
1260.06121088817	1216.59997558594
1260.72468187004	1226.19995117188
1261.38806782233	1229.59997558594
1262.05136875269	1219.80004882813
1262.71458466875	1220.80004882813
1263.37771557815	1220.59997558594
1264.04076148854	1224.40002441406
1264.70372240753	1216.19995117188
1265.3665983428	1216.40002441406
1266.02938930195	1221.40002441406
1266.69209529263	1222.59997558594
1267.35471632249	1216.80004882813
1268.01725239914	1227.59997558594
1268.67970353024	1227
1269.34206972342	1233
1270.00435098631	1223.19995117188
1270.66654732655	1221.59997558594
1271.32865875177	1232.80004882813
1271.9906852696	1236.80004882813
1272.65262688768	1232.80004882813
1273.31448361365	1237.40002441406
1273.97625545514	1229.19995117188
1274.63794241978	1229.59997558594
1275.2995445152	1230.19995117188
1275.96106174903	1227.59997558594
1276.62249412892	1220.40002441406
1277.28384166248	1215.19995117188
1277.94510435735	1207
1278.60628222116	1199.19995117188
1279.26737526155	1209.19995117188
1279.92838348613	1208
1280.58930690255	1197.19995117188
1281.25014551842	1204
1281.91089934139	1202.40002441406
1282.57156837907	1198.19995117188
1283.2321526391	1206.80004882813
1283.89265212911	1195.59997558594
1284.55306685671	1196.40002441406
1285.21339682955	1204.80004882813
1285.87364205525	1199.40002441406
1286.53380254142	1214.80004882813
1287.19387829571	1211
1287.85386932573	1219.80004882813
1288.51377563911	1211
1289.17359724348	1203
1289.83333414646	1202.80004882813
1290.49298635567	1219.59997558594
1291.15255387874	1211
1291.8120367233	1200.80004882813
1292.47143489696	1203.19995117188
1293.13074840736	1206.59997558594
1293.7899772621	1208.40002441406
1294.44912146882	1199.59997558594
1295.10818103513	1207.19995117188
1295.76715596866	1203
1296.42604627704	1209.59997558594
1297.08485196787	1208.19995117188
1297.74357304878	1215.80004882813
1298.4022095274	1217.40002441406
1299.06076141134	1206
1299.71922870821	1209.40002441406
1300.37761142565	1212.40002441406
1301.03590957126	1228
1301.69412315268	1226.19995117188
1302.3522521775	1222.19995117188
1303.01029665336	1233.59997558594
1303.66825658787	1239.80004882813
1304.32613198865	1239.40002441406
1304.98392286332	1237
1305.64162921948	1237.19995117188
1306.29925106476	1238
1306.95678840677	1228.40002441406
1307.61424125312	1243
1308.27160961145	1244.40002441406
1308.92889348934	1236.80004882813
1309.58609289443	1246.59997558594
1310.24320783432	1242.80004882813
1310.90023831664	1247.40002441406
1311.55718434898	1239.19995117188
1312.21404593897	1236.40002441406
1312.87082309421	1233
1313.52751582233	1244.59997558594
1314.18412413092	1236.19995117188
1314.84064802761	1225
1315.49708752	1238.80004882813
1316.1534426157	1232.80004882813
1316.80971332233	1237
1317.46589964749	1227.40002441406
1318.1220015988	1219.80004882813
1318.77801918386	1220.59997558594
1319.43395241028	1228.19995117188
1320.08980128567	1227
1320.74556581764	1224.40002441406
1321.4012460138	1225.19995117188
1322.05684188176	1217.59997558594
1322.71235342911	1215.59997558594
1323.36778066347	1228.19995117188
1324.02312359245	1229.19995117188
1324.67838222365	1214.80004882813
1325.33355656468	1215
1325.98864662314	1227.19995117188
1326.64365240663	1207.19995117188
1327.29857392277	1203.59997558594
1327.95341117915	1204.59997558594
1328.60816418339	1206
1329.26283294308	1206.40002441406
1329.91741746582	1211.40002441406
1330.57191775923	1204.40002441406
1331.2263338309	1208.59997558594
1331.88066568843	1194.80004882813
1332.53491333943	1206
1333.1890767915	1201.19995117188
1333.84315605224	1199
1334.49715112925	1211
1335.15106203013	1200.19995117188
1335.80488876249	1192.80004882813
1336.45863133391	1197.59997558594
1337.112289752	1203
1337.76586402437	1196
1338.4193541586	1185.40002441406
1339.0727601623	1191.80004882813
1339.72608204306	1185.59997558594
1340.37931980849	1183.19995117188
1341.03247346617	1185
1341.68554302372	1191.19995117188
1342.33852848871	1183.19995117188
1342.99142986876	1185.59997558594
1343.64424717145	1187.80004882813
1344.29698040438	1200.59997558594
1344.94962957515	1212
1345.60219469135	1205.80004882813
1346.25467576058	1214.40002441406
1346.90707279042	1217.80004882813
1347.55938578848	1214.19995117188
1348.21161476235	1205.59997558594
1348.86375971962	1206.19995117188
1349.51582066787	1200.59997558594
1350.16779761472	1207.59997558594
1350.81969056774	1196.40002441406
1351.47149953453	1203.40002441406
1352.12322452269	1211
1352.77486553979	1218.80004882813
1353.42642259344	1227
1354.07789569122	1237.80004882813
1354.72928484072	1243
1355.38059004953	1238
1356.03181132525	1240.40002441406
1356.68294867545	1241.80004882813
1357.33400210773	1251.80004882813
1357.98497162968	1240.59997558594
1358.63585724889	1233.40002441406
1359.28665897294	1249.40002441406
1359.93737680942	1245.19995117188
1360.58801076591	1247.59997558594
1361.23856085001	1247.19995117188
1361.88902706929	1253.40002441406
1362.53940943135	1253
1363.18970794377	1255.19995117188
1363.83992261413	1252.80004882813
1364.49005345003	1258.40002441406
1365.14010045904	1258.59997558594
1365.79006364874	1260.40002441406
1366.43994302673	1260.40002441406
1367.08973860058	1256.19995117188
1367.73945037788	1243.40002441406
1368.38907836621	1249.19995117188
1369.03862257315	1233
1369.68808300629	1225.40002441406
1370.3374596732	1224
1370.98675258148	1213
1371.63596173868	1215.40002441406
1372.28508715241	1213.19995117188
1372.93412883024	1211.59997558594
1373.58308677974	1214.19995117188
1374.2319610085	1220.80004882813
1374.8807515241	1217.59997558594
1375.52945833412	1225
1376.17808144612	1216
1376.82662086771	1205
1377.47507660644	1202.59997558594
1378.12344866989	1195
1378.77173706565	1195
1379.41994180129	1201.80004882813
1380.06806288439	1208.59997558594
1380.71610032252	1191.80004882813
1381.36405412326	1191.40002441406
1382.01192429419	1184
1382.65971084287	1181.40002441406
1383.30741377688	1180.59997558594
1383.95503310381	1179.59997558594
1384.60256883121	1181.80004882813
1385.25002096667	1188
1385.89738951775	1177.80004882813
1386.54467449204	1187.19995117188
1387.19187589709	1179.19995117188
1387.8389937405	1190.80004882813
1388.48602802982	1181.59997558594
1389.13297877262	1185.19995117188
1389.77984597649	1187.80004882813
1390.42662964899	1174
1391.07332979768	1171.59997558594
1391.71994643015	1169.80004882813
1392.36647955395	1171.59997558594
1393.01292917667	1168.40002441406
1393.65929530586	1174.19995117188
1394.3055779491	1176.59997558594
1394.95177711395	1178.40002441406
1395.59789280799	1187
1396.24392503877	1182
1396.88987381387	1171
1397.53573914086	1169
1398.1815210273	1180.40002441406
1398.82721948075	1176.19995117188
1399.47283450878	1188.40002441406
1400.11836611897	1174.40002441406
1400.76381431886	1170
1401.40917911603	1166.80004882813
1402.05446051805	1165
1402.69965853247	1156.80004882813
1403.34477316686	1161.40002441406
1403.98980442878	1161.59997558594
1404.6347523258	1169.19995117188
1405.27961686548	1164
1405.92439805538	1169.40002441406
1406.56909590306	1168.59997558594
1407.21371041608	1165.19995117188
1407.85824160202	1170
1408.50268946841	1165.80004882813
1409.14705402284	1176.80004882813
1409.79133527285	1173.40002441406
1410.43553322601	1174.40002441406
1411.07964788987	1168.40002441406
1411.723679272	1164.59997558594
1412.36762737996	1163.40002441406
1413.01149222129	1154.19995117188
1413.65527380357	1158.80004882813
1414.29897213435	1156.59997558594
1414.94258722118	1163.80004882813
1415.58611907163	1161.59997558594
1416.22956769325	1164.40002441406
1416.87293309359	1158.40002441406
1417.51621528021	1161.40002441406
1418.15941426067	1169.40002441406
1418.80253004253	1168.80004882813
1419.44556263333	1176
1420.08851204063	1177.80004882813
1420.731378272	1183.59997558594
1421.37416133497	1174.59997558594
1422.0168612371	1173.80004882813
1422.65947798596	1174.80004882813
1423.30201158908	1171
1423.94446205403	1163.40002441406
1424.58682938835	1155
1425.2291135996	1159.80004882813
1425.87131469532	1157
1426.51343268308	1152.40002441406
1427.15546757042	1168.19995117188
1427.79741936488	1171.40002441406
1428.43928807403	1179.59997558594
1429.0810737054	1175.19995117188
1429.72277626656	1165.59997558594
1430.36439576504	1174.40002441406
1431.00593220841	1168
1431.64738560419	1174.19995117188
1432.28875595995	1172.19995117188
1432.93004328324	1177
1433.57124758159	1172.80004882813
1434.21236886255	1166.59997558594
1434.85340713368	1169
1435.49436240252	1167.80004882813
1436.13523467661	1162.80004882813
1436.77602396349	1163.80004882813
1437.41673027073	1166.80004882813
1438.05735360585	1163.40002441406
1438.69789397641	1166.40002441406
1439.33835138994	1165.19995117188
1439.978725854	1166.80004882813
1440.61901737612	1162.40002441406
1441.25922596385	1163.59997558594
1441.89935162473	1171.40002441406
1442.53939436631	1175.80004882813
1443.17935419612	1180.59997558594
1443.81923112171	1177.40002441406
1444.45902515061	1178.40002441406
1445.09873629038	1183
1445.73836454854	1173.59997558594
1446.37790993265	1172.19995117188
1447.01737245024	1170
1447.65675210885	1173.19995117188
1448.29604891602	1161.80004882813
1448.93526287928	1171.40002441406
1449.57439400618	1159.80004882813
1450.21344230426	1177
1450.85240778105	1164.19995117188
1451.49129044409	1156.80004882813
1452.13009030092	1160.40002441406
1452.76880735907	1158.19995117188
1453.40744162608	1162.19995117188
1454.04599310949	1162.19995117188
1454.68446181683	1161.80004882813
1455.32284775564	1158.40002441406
1455.96115093345	1149.40002441406
1456.5993713578	1153.19995117188
1457.23750903623	1155.80004882813
1457.87556397626	1149.59997558594
1458.51353618543	1150.59997558594
1459.15142567127	1141.80004882813
1459.78923244132	1146.80004882813
1460.42695650311	1153.80004882813
1461.06459786417	1155
1461.70215653203	1155.59997558594
1462.33963251423	1161
1462.97702581829	1162.19995117188
1463.61433645175	1153.19995117188
1464.25156442214	1158
1464.88870973699	1144.40002441406
1465.52577240382	1146.40002441406
1466.16275243017	1147.19995117188
1466.79964982356	1153.80004882813
1467.43646459154	1152.19995117188
1468.07319674161	1148.19995117188
1468.70984628132	1152.40002441406
1469.34641321818	1155
1469.98289755974	1159.80004882813
1470.6192993135	1158.40002441406
1471.25561848701	1159.59997558594
1471.89185508779	1152.19995117188
1472.52800912336	1154
1473.16408060124	1144
1473.80006952897	1146.59997558594
1474.43597591407	1145.40002441406
1475.07179976406	1145.40002441406
1475.70754108647	1141.19995117188
1476.34319988883	1141.40002441406
1476.97877617865	1142.59997558594
1477.61426996345	1140.40002441406
1478.24968125077	1141.40002441406
1478.88501004812	1151.59997558594
1479.52025636303	1150.80004882813
1480.15542020302	1140.40002441406
1480.79050157561	1157
1481.42550048832	1152
1482.06041694867	1148.59997558594
1482.69525096418	1148.19995117188
1483.33000254237	1141.80004882813
1483.96467169077	1151
1484.59925841689	1152
1485.23376272825	1151
1485.86818463237	1151.80004882813
1486.50252413677	1147.40002441406
1487.13678124896	1156.40002441406
1487.77095597646	1158
1488.4050483268	1150.40002441406
1489.03905830749	1140
1489.67298592604	1149
1490.30683118996	1144.80004882813
1490.9405941068	1146.59997558594
1491.57427468403	1153
1492.2078729292	1148.80004882813
1492.84138884981	1156.19995117188
1493.47482245338	1160.59997558594
1494.10817374742	1147.80004882813
1494.74144273944	1147.40002441406
1495.37462943696	1151.40002441406
1496.0077338475	1151.19995117188
1496.64075597856	1146.19995117188
1497.27369583765	1157.19995117188
1497.9065534323	1158.40002441406
1498.53932877001	1156.80004882813
1499.17202185829	1161.40002441406
1499.80463270465	1161.19995117188
1500.43716131661	1154.19995117188
1501.06960770167	1159.59997558594
1501.70197186735	1162.19995117188
1502.33425382116	1167.40002441406
1502.96645357059	1154.80004882813
1503.59857112317	1169.59997558594
1504.23060648641	1180
1504.8625596678	1168.19995117188
1505.49443067486	1184
1506.1262195151	1177.19995117188
1506.75792619602	1181.40002441406
1507.38955072513	1188.40002441406
1508.02109310993	1184.40002441406
1508.65255335794	1192
1509.28393147666	1187.40002441406
1509.91522747359	1186.59997558594
1510.54644135624	1187.40002441406
1511.17757313212	1191
1511.80862280872	1185.59997558594
1512.43959039356	1185.19995117188
1513.07047589413	1186.19995117188
1513.70127931795	1172.80004882813
1514.33200067251	1168.40002441406
1514.96263996531	1170.40002441406
1515.59319720386	1174
1516.22367239567	1167.80004882813
1516.85406554822	1158.59997558594
1517.48437666903	1167
1518.1146057656	1160
1518.74475284542	1157.19995117188
1519.374817916	1153.80004882813
1520.00480098483	1150.59997558594
1520.63470205942	1153.80004882813
1521.26452114726	1154.19995117188
1521.89425825586	1151.80004882813
1522.52391339271	1152.59997558594
1523.15348656531	1145.19995117188
1523.78297778116	1159.19995117188
1524.41238704775	1147.59997558594
1525.04171437259	1148.59997558594
1525.67095976317	1137.40002441406
1526.30012322699	1148.80004882813
1526.92920477154	1146
1527.55820440432	1153
1528.18712213283	1150.80004882813
1528.81595796455	1145.19995117188
1529.44471190699	1144
1530.07338396764	1139.80004882813
1530.70197415399	1138
1531.33048247353	1144
1531.95890893377	1137.80004882813
1532.58725354219	1140.40002441406
1533.21551630629	1145.19995117188
1533.84369723356	1139.80004882813
1534.47179633148	1151.19995117188
1535.09981360757	1144.40002441406
1535.72774906929	1145.59997558594
1536.35560272415	1148
1536.98337457963	1149.59997558594
1537.61106464323	1149.59997558594
1538.23867292243	1134.59997558594
1538.86619942473	1142.19995117188
1539.49364415762	1138.40002441406
1540.12100712857	1139.59997558594
1540.74828834509	1136.40002441406
1541.37548781466	1143.19995117188
1542.00260554478	1136.59997558594
1542.62964154291	1141.40002441406
1543.25659581655	1138.40002441406
1543.8834683732	1137.80004882813
1544.51025922034	1135.80004882813
1545.13696836544	1132.19995117188
1545.76359581601	1135.80004882813
1546.39014157952	1135
1547.01660566345	1126
1547.64298807531	1132
1548.26928882255	1124
1548.89550791269	1117.59997558594
1549.52164535318	1116.40002441406
1550.14770115153	1121.40002441406
1550.77367531521	1124.80004882813
1551.39956785171	1117
1552.0253787685	1115
1552.65110807307	1126
1553.2767557729	1133.40002441406
1553.90232187548	1123.19995117188
1554.52780638828	1120
1555.15320931879	1115.19995117188
1555.77853067447	1122.40002441406
1556.40377046282	1125
1557.02892869132	1124.19995117188
1557.65400536744	1120.40002441406
1558.27900049866	1131.40002441406
1558.90391409247	1133.80004882813
1559.52874615633	1129.19995117188
1560.15349669773	1130.19995117188
1560.77816572414	1129
1561.40275324305	1123.40002441406
1562.02725926192	1124.59997558594
1562.65168378824	1128
1563.27602682948	1127
1563.90028839311	1129.19995117188
1564.52446848662	1121.80004882813
1565.14856711748	1118.59997558594
1565.77258429316	1124.19995117188
1566.39652002113	1130
1567.02037430887	1127
1567.64414716387	1134.40002441406
1568.26783859357	1131
1568.89144860547	1128.19995117188
1569.51497720703	1130.80004882813
1570.13842440573	1130.80004882813
1570.76179020904	1130.19995117188
1571.38507462442	1138.19995117188
1572.00827765936	1129
1572.63139932132	1135.19995117188
1573.25443961777	1135.59997558594
1573.87739855618	1136.19995117188
1574.50027614402	1148.80004882813
1575.12307238877	1146.19995117188
1575.74578729789	1138
1576.36842087885	1144.80004882813
1576.99097313912	1138.80004882813
1577.61344408616	1130.19995117188
1578.23583372745	1137
1578.85814207046	1126.40002441406
1579.48036912264	1132.80004882813
1580.10251489147	1137.59997558594
1580.72457938441	1138
1581.34656260893	1135.59997558594
1581.9684645725	1133
1582.59028528258	1133.19995117188
1583.21202474663	1123
1583.83368297212	1126.59997558594
1584.45525996652	1127.80004882813
1585.07675573728	1120.40002441406
1585.69817029188	1125
1586.31950363778	1121
1586.94075578243	1118.40002441406
1587.5619267333	1116
1588.18301649786	1108.59997558594
1588.80402508357	1106.80004882813
1589.42495249788	1101.59997558594
1590.04579874826	1115.40002441406
1590.66656384217	1109.59997558594
1591.28724778707	1106.40002441406
1591.90785059042	1109
1592.52837225968	1107.80004882813
1593.14881280232	1112.19995117188
1593.76917222578	1119.19995117188
1594.38945053753	1119.59997558594
1595.00964774502	1129.40002441406
1595.62976385573	1122.59997558594
1596.24979887709	1126.19995117188
1596.86975281657	1120.59997558594
1597.48962568164	1117.40002441406
1598.10941747974	1111.19995117188
1598.72912821832	1115.40002441406
1599.34875790486	1108
1599.9683065468	1114.40002441406
1600.58777415159	1100.40002441406
1601.2071607267	1094.40002441406
1601.82646627958	1103.59997558594
1602.44569081769	1104.59997558594
1603.06483434846	1116.40002441406
1603.68389687937	1104.40002441406
1604.30287841786	1105.80004882813
1604.92177897139	1092
1605.54059854741	1095
1606.15933715337	1099.40002441406
1606.77799479672	1093.59997558594
1607.39657148492	1102.19995117188
1608.01506722542	1095.19995117188
1608.63348202566	1100
1609.2518158931	1093.19995117188
1609.87006883519	1097.40002441406
1610.48824085939	1093.40002441406
1611.10633197312	1093
1611.72434218386	1091.80004882813
1612.34227149904	1091.80004882813
1612.96011992612	1094
1613.57788747254	1093.59997558594
1614.19557414575	1089.80004882813
1614.8131799532	1094
1615.43070490234	1096.59997558594
1616.04814900061	1092
1616.66551225545	1092.59997558594
1617.28279467433	1093.19995117188
1617.89999626467	1097
1618.51711703393	1094.59997558594
1619.13415698955	1099.40002441406
1619.75111613898	1098
1620.36799448966	1091.80004882813
1620.98479204903	1090
1621.60150882455	1091.19995117188
1622.21814482364	1096.19995117188
1622.83470005376	1095.80004882813
1623.45117452235	1094.19995117188
1624.06756823685	1101.40002441406
1624.6838812047	1102.59997558594
1625.30011343335	1104
1625.91626493022	1107.59997558594
1626.53233570278	1093.19995117188
1627.14832575845	1099.80004882813
1627.76423510468	1094.19995117188
1628.38006374891	1099.40002441406
1628.99581169857	1103.80004882813
1629.61147896111	1097.19995117188
1630.22706554397	1097.80004882813
1630.84257145457	1098.59997558594
1631.45799670038	1093.19995117188
1632.07334128881	1095.40002441406
1632.6886052273	1090.40002441406
1633.3037885233	1095.59997558594
1633.91889118425	1095
1634.53391321757	1101
1635.1488546307	1101.19995117188
1635.76371543108	1093
1636.37849562616	1092.40002441406
1636.99319522335	1087.59997558594
1637.60781423009	1080.59997558594
1638.22235265383	1077.80004882813
1638.83681050198	1084.59997558594
1639.451187782	1080
1640.0654845013	1090.59997558594
1640.67970066734	1089.59997558594
1641.29383628752	1088.40002441406
1641.9078913693	1084.80004882813
1642.5218659201	1093.59997558594
1643.13575994735	1090.80004882813
1643.74957345849	1099.40002441406
1644.36330646094	1108.19995117188
1644.97695896213	1111.19995117188
1645.59053096951	1103.40002441406
1646.20402249049	1103
1646.8174335325	1107
1647.43076410298	1108.59997558594
1648.04401420935	1100
1648.65718385905	1106.80004882813
1649.2702730595	1107
1649.88328181812	1114.59997558594
1650.49621014236	1119.40002441406
1651.10905803963	1121.19995117188
1651.72182551735	1128
1652.33451258297	1120.80004882813
1652.9471192439	1123.59997558594
1653.55964550757	1125.40002441406
1654.1720913814	1109.80004882813
1654.78445687283	1108.80004882813
1655.39674198926	1103.19995117188
1656.00894673814	1100
1656.62107112688	1092.80004882813
1657.23311516291	1086.80004882813
1657.84507885365	1093.19995117188
1658.45696220652	1089
1659.06876522895	1088.59997558594
1659.68048792835	1085
1660.29213031217	1081.19995117188
1660.90369238779	1077.80004882813
1661.51517416267	1068
1662.12657564421	1070.80004882813
1662.73789683984	1074.19995117188
1663.34913775697	1064
1663.96029840303	1070.19995117188
1664.57137878544	1070.40002441406
1665.18237891161	1066
1665.79329878897	1068.40002441406
1666.40413842493	1062.19995117188
1667.01489782691	1060.59997558594
1667.62557700233	1061.59997558594
1668.2361759586	1059.40002441406
1668.84669470315	1051.80004882813
1669.4571332434	1061.40002441406
1670.06749158675	1063.19995117188
1670.67776974062	1063.19995117188
1671.28796771243	1056
1671.8980855096	1067.59997558594
1672.50812313954	1061.80004882813
1673.11808060967	1061.19995117188
1673.72795792739	1058
1674.33775510013	1046.40002441406
1674.9474721353	1049.59997558594
1675.55710904031	1045.40002441406
1676.16666582257	1053.80004882813
1676.7761424895	1049.19995117188
1677.38553904851	1050.80004882813
1677.99485550702	1046.59997558594
1678.60409187243	1047
1679.21324815215	1045
1679.8223243536	1041.80004882813
1680.43132048419	1046.40002441406
1681.04023655132	1047.40002441406
1681.64907256241	1036.80004882813
1682.25782852487	1036.59997558594
1682.86650444611	1040.40002441406
1683.47510033353	1032.80004882813
1684.08361619455	1045.80004882813
1684.69205203657	1037.19995117188
1685.300407867	1044.40002441406
1685.90868369325	1046.19995117188
1686.51687952272	1040
1687.12499536283	1043.59997558594
1687.73303122098	1047.59997558594
1688.34098710457	1040.40002441406
1688.94886302101	1044.59997558594
1689.55665897772	1047.19995117188
1690.16437498208	1052.80004882813
1690.77201104152	1052
1691.37956716342	1040.19995117188
1691.9870433552	1039.40002441406
1692.59443962426	1039.19995117188
1693.20175597801	1034.19995117188
1693.80899242384	1043.59997558594
1694.41614896916	1038.19995117188
1695.02322562138	1045.19995117188
1695.63022238789	1039.40002441406
1696.23713927609	1035.59997558594
1696.8439762934	1039
1697.4507334472	1040.80004882813
1698.05741074491	1034.59997558594
1698.66400819391	1035
1699.27052580161	1034
1699.87696357542	1032.59997558594
1700.48332152272	1030.80004882813
1701.08959965092	1027.59997558594
1701.69579796742	1024.40002441406
1702.30191647962	1020.59997558594
1702.90795519491	1022
1703.51391412069	1025.59997558594
1704.11979326437	1018.20001220703
1704.72559263332	1017
1705.33131223496	1015.40002441406
1705.93695207668	1013.59997558594
1706.54251216588	1014.20001220703
1707.14799250994	1013.20001220703
1707.75339311628	1015.79998779297
1708.35871399227	1013.79998779297
1708.96395514532	1012.40002441406
1709.56911658282	1004.79998779297
