634.948122577771	1194.59997558594
635.690341530823	1207.80004882813
636.43246851086	1194.40002441406
637.174503525845	1198.59997558594
637.916446583745	1203.40002441406
638.658297692538	1207
639.400056860179	1197.40002441406
640.141724094637	1199.80004882813
640.883299403885	1193.19995117188
641.62478279588	1204.59997558594
642.366174278594	1200
643.107473859989	1201.59997558594
643.848681548029	1204
644.589797350679	1219.40002441406
645.330821275901	1224.19995117188
646.071753331665	1214.80004882813
646.812593525922	1204.40002441406
647.553341866646	1201.80004882813
648.293998361798	1213
649.03456301933	1209.19995117188
649.775035847216	1203.40002441406
650.515416853409	1214.59997558594
651.255706045874	1214.80004882813
651.995903432568	1213
652.736009021453	1203.80004882813
653.476022820486	1210.19995117188
654.215944837629	1210.80004882813
654.955775080842	1213.40002441406
655.695513558081	1215
656.435160277301	1214.19995117188
657.174715246465	1214.80004882813
657.914178473527	1208
658.653549966449	1230
659.392829733176	1222.80004882813
660.132017781678	1221.40002441406
660.871114119901	1225.19995117188
661.610118755803	1233.40002441406
662.349031697343	1235.19995117188
663.087852952468	1238
663.826582529139	1234.80004882813
664.565220435305	1231.40002441406
665.30376667892	1229.19995117188
666.04222126794	1221
666.780584210316	1214.59997558594
667.518855514	1216.19995117188
668.25703518694	1221.19995117188
668.995123237096	1219.80004882813
669.733119672413	1221.40002441406
670.471024500842	1236.19995117188
671.208837730333	1226.40002441406
671.946559368839	1227.19995117188
672.684189424308	1222.19995117188
673.421727904689	1222
674.159174817929	1224
674.896530171977	1221.19995117188
675.633793974786	1221
676.370966234295	1228
677.108046958461	1234.19995117188
677.845036155219	1228
678.581933832528	1230.40002441406
679.318739998323	1235.19995117188
680.055454660558	1229.40002441406
680.792077827172	1239.40002441406
681.528609506116	1236.59997558594
682.265049705331	1229.40002441406
683.001398432759	1223.59997558594
683.737655696349	1228
684.47382150404	1227.40002441406
685.20989586378	1235.80004882813
685.945878783503	1231
686.68177027116	1222.80004882813
687.417570334688	1226.80004882813
688.153278982032	1229.80004882813
688.888896221129	1223.59997558594
689.624422059921	1224.19995117188
690.359856506349	1224.80004882813
691.095199568354	1229.80004882813
691.830451253874	1235.59997558594
692.565611570844	1237.19995117188
693.300680527212	1228.19995117188
694.03565813091	1223.40002441406
694.770544389877	1226.80004882813
695.505339312053	1233
696.240042905372	1228.40002441406
696.974655177772	1225.59997558594
697.70917613719	1225.19995117188
698.443605791561	1220.40002441406
699.177944148826	1223.40002441406
699.912191216909	1231
700.646347003755	1221
701.380411517295	1220.40002441406
702.114384765465	1225.59997558594
702.848266756195	1232.80004882813
703.582057497421	1219
704.315756997074	1226
705.049365263089	1232
705.782882303399	1235.19995117188
706.516308125936	1233.59997558594
707.249642738626	1239.80004882813
707.982886149403	1243.40002441406
708.716038366204	1244.59997558594
709.449099396949	1241.19995117188
710.182069249577	1234.19995117188
710.914947932009	1228.80004882813
711.647735452181	1220.19995117188
712.380431818022	1236.19995117188
713.113037037454	1240.19995117188
713.845551118411	1241.19995117188
714.577974068818	1242.19995117188
715.310305896604	1245.59997558594
716.042546609694	1239.59997558594
716.774696216013	1224
717.506754723493	1233.59997558594
718.238722140053	1216.80004882813
718.970598473624	1228.19995117188
719.702383732127	1227.80004882813
720.43407792349	1234.59997558594
721.165681055634	1236.40002441406
721.897193136486	1242.19995117188
722.628614173966	1237.19995117188
723.359944175997	1233.19995117188
724.091183150505	1241
724.822331105412	1237.59997558594
725.553388048638	1230.40002441406
726.284353988106	1223.80004882813
727.015228931734	1231.80004882813
727.746012887449	1223.59997558594
728.476705863162	1227.19995117188
729.207307866803	1226.40002441406
729.937818906289	1229
730.668238989535	1240.19995117188
731.398568124459	1243.59997558594
732.128806318986	1237.40002441406
732.858953581034	1243.80004882813
733.589009918514	1232.19995117188
734.318975339348	1227.80004882813
735.048849851452	1231.40002441406
735.778633462744	1226.59997558594
736.508326181137	1233.40002441406
737.237928014549	1232.80004882813
737.967438970897	1233.19995117188
738.696859058095	1237.80004882813
739.426188284054	1236.80004882813
740.155426656692	1240.19995117188
740.884574183922	1249.40002441406
741.613630873659	1244.19995117188
742.342596733815	1247.19995117188
743.071471772302	1248.40002441406
743.800255997034	1252
744.528949415921	1259.59997558594
745.257552036877	1252.19995117188
745.986063867811	1246.80004882813
746.714484916638	1248.19995117188
747.442815191261	1246.19995117188
748.171054699597	1227.19995117188
748.899203449554	1229.40002441406
749.627261449039	1231.40002441406
750.355228705966	1231.40002441406
751.083105228239	1228.19995117188
751.810891023765	1223.19995117188
752.538586100459	1226
753.266190466218	1237.19995117188
753.99370412896	1223.19995117188
754.721127096582	1227.40002441406
755.448459377	1236.19995117188
756.175700978114	1242.40002441406
756.902851907828	1239
757.629912174055	1233.19995117188
758.356881784688	1232.40002441406
759.083760747639	1236.19995117188
759.810549070817	1234.80004882813
760.537246762113	1231
761.263853829442	1232.59997558594
761.990370280698	1232.59997558594
762.716796123791	1233
763.443131366618	1234.59997558594
764.169376017082	1231.19995117188
764.895530083085	1241
765.621593572527	1251.40002441406
766.347566493312	1246.59997558594
767.073448853336	1248.40002441406
767.799240660502	1247.19995117188
768.524941922707	1248.19995117188
769.250552647854	1256.80004882813
769.976072843836	1264
770.701502518551	1275.19995117188
771.426841679905	1275.40002441406
772.152090335793	1285.59997558594
772.877248494107	1289.80004882813
773.602316162747	1286.59997558594
774.327293349609	1290.40002441406
775.052180062592	1279.40002441406
775.776976309589	1276.80004882813
776.501682098496	1279.80004882813
777.226297437206	1266.80004882813
777.950822333616	1279.19995117188
778.675256795621	1266.80004882813
779.399600831111	1272.19995117188
780.123854447983	1267.40002441406
780.84801765413	1266.19995117188
781.572090457441	1265
782.296072865811	1268.80004882813
783.019964887131	1262
783.743766529297	1251.59997558594
784.467477800194	1254.80004882813
785.191098707719	1256
785.914629259756	1254.59997558594
786.638069464194	1249.40002441406
787.361419328932	1258.19995117188
788.084678861852	1264.80004882813
788.807848070845	1249.19995117188
789.530926963798	1255.80004882813
790.253915548602	1253
790.976813833144	1258.80004882813
791.699621825307	1257.40002441406
792.422339532986	1258.19995117188
793.144966964061	1253.19995117188
793.86750412642	1244.80004882813
794.589951027946	1257.59997558594
795.312307676536	1244
796.03457408006	1239.40002441406
796.756750246417	1240.19995117188
797.478836183477	1242.40002441406
798.200831899137	1240.59997558594
798.92273740127	1232.19995117188
799.644552697769	1247
800.36627779651	1246.59997558594
801.087912705374	1251.19995117188
801.809457432251	1253.40002441406
802.530911985017	1246
803.252276371558	1246.40002441406
803.973550599748	1242.80004882813
804.694734677472	1243.19995117188
805.415828612611	1247.80004882813
806.136832413045	1243.19995117188
806.857746086646	1243.59997558594
807.578569641305	1231.40002441406
808.299303084892	1227.19995117188
809.019946425289	1240.59997558594
809.740499670372	1233
810.460962828022	1237
811.181335906114	1243.59997558594
811.901618912524	1255.59997558594
812.621811855131	1259.40002441406
813.341914741809	1250.40002441406
814.061927580433	1250.59997558594
814.781850378881	1246.80004882813
815.501683145025	1247.19995117188
816.221425886743	1243.19995117188
816.941078611903	1254.40002441406
817.660641328387	1239.80004882813
818.380114044065	1235
819.099496766808	1235.40002441406
819.818789504492	1235.80004882813
820.53799226499	1253.19995117188
821.257105056168	1246.80004882813
821.976127885904	1249.80004882813
822.695060762064	1252.19995117188
823.413903692525	1247.59997558594
824.132656685151	1242
824.851319747817	1246.59997558594
825.569892888388	1226.59997558594
826.288376114739	1233.19995117188
827.006769434737	1234.19995117188
827.725072856249	1231.19995117188
828.443286387142	1220.80004882813
829.161410035285	1230.40002441406
829.87944380855	1232.19995117188
830.597387714798	1232.59997558594
831.315241761898	1237.19995117188
832.033005957715	1230.59997558594
832.750680310119	1234.40002441406
833.468264826969	1227
834.18575951614	1236.19995117188
834.903164385486	1226.59997558594
835.620479442878	1228.40002441406
836.337704696181	1235.40002441406
837.054840153255	1228
837.771885821962	1230.19995117188
838.488841710172	1229
839.20570782574	1232.19995117188
839.922484176531	1233.40002441406
840.639170770409	1234.19995117188
841.355767615231	1239.19995117188
842.072274718864	1245.59997558594
842.788692089164	1245
843.505019733993	1242
844.221257661209	1237.40002441406
844.937405878676	1242.19995117188
845.65346439425	1240
846.369433215789	1232.59997558594
847.085312351156	1229
847.801101808205	1232
848.516801594793	1227.80004882813
849.232411718781	1238.40002441406
849.947932188021	1224.19995117188
850.663363010376	1236
851.378704193698	1243
852.093955745842	1241.40002441406
852.809117674669	1238.59997558594
853.524189988028	1244.59997558594
854.239172693778	1239.40002441406
854.954065799768	1238.40002441406
855.668869313857	1237.80004882813
856.383583243899	1244.19995117188
857.098207597743	1243.40002441406
857.812742383246	1232.80004882813
858.527187608255	1233.40002441406
859.241543280628	1233.59997558594
859.955809408218	1228.40002441406
860.669985998868	1225
861.384073060437	1229.59997558594
862.098070600772	1231.80004882813
862.811978627724	1235
863.52579714914	1238.80004882813
864.239526172873	1242.80004882813
864.953165706776	1239
865.666715758687	1243
866.380176336464	1239.40002441406
867.093547447951	1252
867.806829100996	1234.80004882813
868.520021303444	1244.59997558594
869.233124063149	1235
869.94613738795	1238.40002441406
870.659061285693	1226.40002441406
871.37189576423	1222.59997558594
872.084640831403	1211
872.797296495057	1224.40002441406
873.509862763039	1229.19995117188
874.22233964319	1229
874.934727143353	1227.40002441406
875.647025271374	1236.59997558594
876.359234035097	1224
877.071353442361	1228.19995117188
877.783383501015	1228.59997558594
878.495324218895	1228.19995117188
879.207175603844	1225
879.918937663705	1220
880.630610406318	1223.59997558594
881.342193839524	1231.40002441406
882.053687971161	1235.80004882813
882.765092809069	1234.40002441406
883.476408361091	1237.40002441406
884.187634635066	1234.59997558594
884.898771638828	1221
885.609819380221	1221.59997558594
886.320777867076	1219.59997558594
887.031647107236	1228.80004882813
887.742427108536	1228.80004882813
888.453117878816	1239
889.16371942591	1232.19995117188
889.874231757652	1225
890.584654881883	1222.40002441406
891.294988806434	1228
892.005233539141	1222
892.715389087837	1220
893.42545546036	1228
894.135432664543	1231
894.845320708216	1224.80004882813
895.555119599216	1227.80004882813
896.264829345375	1236.19995117188
896.974449954526	1241.80004882813
897.683981434496	1234.19995117188
898.393423793125	1238.19995117188
899.102777038235	1229.59997558594
899.812041177664	1236
900.521216219239	1237
901.230302170793	1237.40002441406
901.939299040155	1235.19995117188
902.64820683515	1243.59997558594
903.357025563612	1264.19995117188
904.065755233368	1259.40002441406
904.774395852247	1247
905.482947428076	1251.40002441406
906.191409968682	1240.40002441406
906.899783481897	1239.80004882813
907.608067975538	1231
908.316263457443	1231
909.02436993543	1229.59997558594
909.732387417327	1227.40002441406
910.440315910959	1226
911.148155424154	1227
911.855905964731	1250.19995117188
912.563567540521	1238.80004882813
913.271140159339	1238
913.978623829017	1250.59997558594
914.686018557374	1251.40002441406
915.393324352237	1233.80004882813
916.100541221421	1238.40002441406
916.807669172752	1243.59997558594
917.514708214054	1232.59997558594
918.221658353142	1243.59997558594
918.928519597843	1234.59997558594
919.635291955976	1233.19995117188
920.341975435358	1243.19995117188
921.048570043813	1246.40002441406
921.75507578916	1260.80004882813
922.461492679212	1254
923.167820721795	1255.80004882813
923.874059924726	1252.59997558594
924.58021029582	1250
925.286271842893	1245.19995117188
925.992244573769	1233.40002441406
926.698128496262	1246.59997558594
927.403923618184	1244.59997558594
928.109629947355	1227
928.815247491593	1226.80004882813
929.520776258708	1226
930.226216256519	1233.19995117188
930.931567492841	1229.19995117188
931.636829975482	1221.40002441406
932.342003712263	1231.40002441406
933.047088710995	1239.40002441406
933.752084979491	1243.80004882813
934.456992525564	1235.80004882813
935.161811357024	1237.59997558594
935.866541481688	1237.80004882813
936.571182907363	1212.19995117188
937.275735641861	1208.59997558594
937.980199692995	1207
938.684575068572	1200.59997558594
939.388861776411	1206.59997558594
940.093059824311	1214.59997558594
940.797169220085	1208.40002441406
941.501189971544	1206.80004882813
942.205122086495	1217.80004882813
942.908965572751	1214.40002441406
943.612720438111	1211.59997558594
944.316386690391	1214.59997558594
945.019964337391	1219.19995117188
945.723453386924	1224.80004882813
946.426853846795	1235.80004882813
947.130165724808	1221
947.83338902877	1220
948.536523766488	1218.40002441406
949.239569945764	1216.19995117188
949.942527574402	1221
950.64539666021	1218.40002441406
951.348177210993	1205.80004882813
952.050869234548	1211.19995117188
952.753472738683	1212.59997558594
953.455987731199	1218.59997558594
954.158414219898	1211
954.860752212587	1210.80004882813
955.563001717061	1205.19995117188
956.265162741124	1206.40002441406
956.967235292576	1204.40002441406
957.669219379224	1210.40002441406
958.371115008857	1218.59997558594
959.072922189283	1228.80004882813
959.774640928301	1219.59997558594
960.476271233708	1224.19995117188
961.177813113301	1214.40002441406
961.879266574882	1215.40002441406
962.580631626248	1220.80004882813
963.281908275194	1212.80004882813
963.98309652952	1208
964.684196397022	1207.59997558594
965.3852078855	1204
966.086131002745	1200.59997558594
966.786965756555	1214
967.487712154726	1217.19995117188
968.188370205055	1205.19995117188
968.888939915331	1228.19995117188
969.589421293352	1219.59997558594
970.289814346909	1223.19995117188
970.990119083801	1221.40002441406
971.690335511819	1221.19995117188
972.39046363875	1223.80004882813
973.090503472398	1212.19995117188
973.790455020545	1210.80004882813
974.490318290987	1217
975.190093291516	1211.80004882813
975.889780029923	1203.40002441406
976.589378513998	1205
977.288888751527	1211.80004882813
977.988310750308	1219.40002441406
978.687644518122	1228.80004882813
979.386890062767	1219.59997558594
980.086047392025	1218.59997558594
980.785116513689	1201.80004882813
981.484097435542	1207
982.182990165377	1206.80004882813
982.88179471098	1202.59997558594
983.580511080137	1217.40002441406
984.279139280632	1227.40002441406
984.977679320253	1230.59997558594
985.67613120679	1220.80004882813
986.374494948027	1220.80004882813
987.072770551745	1220.80004882813
987.770958025731	1230
988.469057377772	1238
989.167068615649	1226.19995117188
989.864991747145	1219.40002441406
990.562826780047	1210.59997558594
991.260573722134	1204.19995117188
991.958232581195	1208.19995117188
992.655803365003	1214.80004882813
993.353286081346	1214.40002441406
994.050680738006	1220.80004882813
994.74798734276	1215.19995117188
995.44520590339	1227.19995117188
996.142336427681	1220.80004882813
996.839378923407	1214.80004882813
997.536333398348	1216.40002441406
998.233199860289	1210
998.929978317004	1215
999.626668776274	1220.59997558594
1000.32327124587	1220.40002441406
1001.01978573359	1230
1001.71621224718	1217.19995117188
1002.41255079445	1227.80004882813
1003.10880138315	1224.59997558594
1003.80496402107	1206.19995117188
1004.50103871599	1203
1005.19702547567	1210.40002441406
1005.8929243079	1218.59997558594
1006.58873522045	1219.40002441406
1007.2844582211	1223.80004882813
1007.98009331761	1205.80004882813
1008.67564051776	1205.80004882813
1009.37109982933	1209.40002441406
1010.06647126009	1217.19995117188
1010.7617548178	1222.40002441406
1011.45695051026	1212.40002441406
1012.15205834522	1213.59997558594
1012.84707833045	1220.40002441406
1013.54201047373	1206.19995117188
1014.23685478284	1207
1014.93161126553	1202.40002441406
1015.62627992959	1208.19995117188
1016.32086078277	1209.19995117188
1017.01535383285	1208.19995117188
1017.70975908761	1216
1018.40407655479	1211
1019.09830624219	1210.19995117188
1019.79244815755	1203.80004882813
1020.48650230866	1203.19995117188
1021.18046870328	1201.59997558594
1021.87434734917	1211.40002441406
1022.56813825411	1216.59997558594
1023.26184142584	1211.59997558594
1023.95545687216	1216
1024.64898460082	1215.80004882813
1025.34242461957	1217.80004882813
1026.0357769362	1221.40002441406
1026.72904155846	1212.40002441406
1027.42221849412	1211.80004882813
1028.11530775094	1208.80004882813
1028.80830933668	1208
1029.50122325911	1208
1030.19404952599	1205.40002441406
1030.88678814508	1203.59997558594
1031.57943912414	1211.19995117188
1032.27200247093	1204.40002441406
1032.96447819323	1202.40002441406
1033.65686629878	1211.59997558594
1034.34916679534	1204.40002441406
1035.04137969068	1210.59997558594
1035.73350499256	1207.40002441406
1036.42554270874	1206.80004882813
1037.11749284697	1199.59997558594
1037.80935541501	1194
1038.50113042062	1194.80004882813
1039.19281787156	1197.80004882813
1039.88441777559	1202.59997558594
1040.57593014046	1198.59997558594
1041.26735497393	1213.59997558594
1041.95869228376	1206
1042.6499420777	1212.59997558594
1043.3411043635	1200.80004882813
1044.03217914893	1197.19995117188
1044.72316644174	1206.40002441406
1045.41406624968	1194.59997558594
1046.1048785805	1189.19995117188
1046.79560344197	1188
1047.48624084182	1203.40002441406
1048.17679078783	1200.59997558594
1048.86725328774	1200.59997558594
1049.55762834929	1203.59997558594
1050.24791598025	1197
1050.93811618837	1204
1051.62822898139	1203.40002441406
1052.31825436707	1194.19995117188
1053.00819235315	1200.40002441406
1053.6980429474	1205.80004882813
1054.38780615755	1204.19995117188
1055.07748199136	1204.80004882813
1055.76707045658	1201.19995117188
1056.45657156095	1208.80004882813
1057.14598531222	1196.40002441406
1057.83531171814	1196.59997558594
1058.52455078646	1204.19995117188
1059.21370252494	1200.19995117188
1059.90276694129	1196
1060.5917440433	1197.19995117188
1061.28063383868	1193.40002441406
1061.9694363352	1205.80004882813
1062.65815154059	1201
1063.34677946261	1188.80004882813
1064.03532010899	1195.40002441406
1064.72377348748	1197.80004882813
1065.41213960583	1196.19995117188
1066.10041847177	1199.59997558594
1066.78861009306	1194
1067.47671447743	1196.80004882813
1068.16473163263	1204.19995117188
1068.85266156639	1193.19995117188
1069.54050428647	1201.19995117188
1070.2282598006	1198
1070.91592811652	1205.80004882813
1071.60350924198	1200.19995117188
1072.29100318471	1210.40002441406
1072.97840995245	1201.59997558594
1073.66572955295	1199.19995117188
1074.35296199394	1200.19995117188
1075.04010728316	1196.19995117188
1075.72716542836	1192.40002441406
1076.41413643726	1191
1077.10102031761	1185.40002441406
1077.78781707715	1200.80004882813
1078.4745267236	1202.80004882813
1079.16114926471	1207.40002441406
1079.84768470822	1199
1080.53413306185	1206
1081.22049433336	1198.59997558594
1081.90676853046	1200.19995117188
1082.5929556609	1191.59997558594
1083.27905573241	1191.59997558594
1083.96506875272	1196
1084.65099472957	1194
1085.3368336707	1207
1086.02258558383	1196.80004882813
1086.70825047669	1197.40002441406
1087.39382835703	1201.40002441406
1088.07931923257	1200.59997558594
1088.76472311104	1211.59997558594
1089.45004000018	1201
1090.13526990771	1199.80004882813
1090.82041284137	1199
1091.50546880889	1198.80004882813
1092.19043781799	1194.40002441406
1092.87531987642	1192
1093.56011499188	1189.40002441406
1094.24482317212	1189.59997558594
1094.92944442486	1192.40002441406
1095.61397875783	1186.40002441406
1096.29842617876	1187.80004882813
1096.98278669537	1186
1097.6670603154	1196.80004882813
1098.35124704656	1185.19995117188
1099.03534689659	1188.40002441406
1099.71935987322	1198.19995117188
1100.40328598416	1207.80004882813
1101.08712523713	1196
1101.77087763988	1198.40002441406
1102.45454320012	1195.40002441406
1103.13812192557	1195.19995117188
1103.82161382396	1194.80004882813
1104.50501890301	1186.80004882813
1105.18833717045	1183.19995117188
1105.87156863399	1194.59997558594
1106.55471330137	1188.80004882813
1107.2377711803	1201.19995117188
1107.9207422785	1206.40002441406
1108.60362660369	1188.80004882813
1109.2864241636	1194.59997558594
1109.96913496594	1186.19995117188
1110.65175901844	1189
1111.33429632882	1183.40002441406
1112.01674690479	1194.40002441406
1112.69911075408	1203.19995117188
1113.38138788439	1198.80004882813
1114.06357830346	1204.80004882813
1114.745682019	1192.40002441406
1115.42769903872	1174.59997558594
1116.10962937035	1176.40002441406
1116.7914730216	1177.59997558594
1117.47323000018	1182.59997558594
1118.15490031382	1190.40002441406
1118.83648397022	1183.80004882813
1119.51798097712	1184.40002441406
1120.1993913422	1188
1120.88071507321	1189.40002441406
1121.56195217784	1202.80004882813
1122.24310266381	1206
1122.92416653884	1204.59997558594
1123.60514381064	1202.19995117188
1124.28603448692	1209
1124.9668385754	1204.40002441406
1125.64755608378	1206.80004882813
1126.32818701978	1206
1127.00873139111	1203.59997558594
1127.68918920548	1214.40002441406
1128.3695604706	1215.19995117188
1129.04984519419	1206.40002441406
1129.73004338394	1213
1130.41015504758	1202.80004882813
1131.09018019281	1209.59997558594
1131.77011882734	1202.19995117188
1132.44997095888	1206.59997558594
1133.12973659514	1205.40002441406
1133.80941574381	1200.59997558594
1134.48900841263	1196
1135.16851460927	1205.80004882813
1135.84793434147	1192.80004882813
1136.52726761692	1199.80004882813
1137.20651444333	1191.19995117188
1137.8856748284	1189.40002441406
1138.56474877984	1189.19995117188
1139.24373630536	1183
1139.92263741265	1179.40002441406
1140.60145210943	1181.59997558594
1141.28018040339	1182.80004882813
1141.95882230225	1191.40002441406
1142.6373778137	1193.59997558594
1143.31584694545	1183.59997558594
1143.99422970519	1191.59997558594
1144.67252610064	1181.59997558594
1145.35073613949	1177.59997558594
1146.02885982944	1176.80004882813
1146.7068971782	1175.80004882813
1147.38484819347	1176
1148.06271288294	1178.59997558594
1148.74049125432	1181.80004882813
1149.41818331531	1184
1150.0957890736	1186.59997558594
1150.77330853689	1190.40002441406
1151.45074171289	1206.59997558594
1152.12808860928	1201.19995117188
1152.80534923378	1194.19995117188
1153.48252359407	1196.80004882813
1154.15961169786	1190.59997558594
1154.83661355283	1186.19995117188
1155.51352916669	1180.19995117188
1156.19035854713	1183.59997558594
1156.86710170185	1184
1157.54375863855	1180.40002441406
1158.22032936491	1180.80004882813
1158.89681388863	1172.19995117188
1159.57321221741	1177.19995117188
1160.24952435894	1180
1160.92575032092	1179.59997558594
1161.60189011103	1179.59997558594
1162.27794373697	1175.59997558594
1162.95391120644	1185.40002441406
1163.62979252712	1180.40002441406
1164.3055877067	1180.40002441406
1164.98129675288	1187.19995117188
1165.65691967336	1186.59997558594
1166.33245647581	1195.80004882813
1167.00790716792	1198.59997558594
1167.6832717574	1185.59997558594
1168.35855025193	1190.19995117188
1169.0337426592	1199
1169.70884898689	1189.40002441406
1170.3838692427	1189.40002441406
1171.05880343431	1183.19995117188
1171.73365156941	1182
1172.40841365569	1188.59997558594
1173.08308970083	1182.80004882813
1173.75767971253	1179.80004882813
1174.43218369847	1197.59997558594
1175.10660166633	1194.80004882813
1175.7809336238	1195
1176.45517957857	1187.40002441406
1177.12933953832	1186.40002441406
1177.80341351073	1177.19995117188
1178.47740150349	1183.80004882813
1179.15130352429	1184
1179.8251195808	1193.59997558594
1180.49884968071	1198.19995117188
1181.1724938317	1205.80004882813
1181.84605204145	1194.40002441406
1182.51952431766	1195.40002441406
1183.19291066799	1199.19995117188
1183.86621110013	1197.40002441406
1184.53942562176	1197
1185.21255424057	1187.59997558594
1185.88559696422	1200.19995117188
1186.55855380041	1188.59997558594
1187.2314247568	1187
1187.90420984109	1189.59997558594
1188.57690906095	1188
1189.24952242405	1198.19995117188
1189.92204993808	1211.80004882813
1190.59449161071	1206
1191.26684744962	1203.40002441406
1191.93911746249	1201.59997558594
1192.61130165699	1205
1193.28340004081	1203.80004882813
1193.95541262161	1211
1194.62733940707	1210.19995117188
1195.29918040487	1199.59997558594
1195.97093562269	1202.59997558594
1196.64260506819	1206.80004882813
1197.31418874905	1196.80004882813
1197.98568667295	1197.59997558594
1198.65709884755	1195.40002441406
1199.32842528053	1186.40002441406
1199.99966597957	1181
1200.67082095234	1183.40002441406
1201.3418902065	1180.59997558594
1202.01287374974	1184.19995117188
1202.68377158971	1187.19995117188
1203.3545837341	1179.19995117188
1204.02531019057	1179
1204.6959509668	1178.80004882813
1205.36650607045	1190.80004882813
1206.03697550919	1184
1206.70735929069	1191.80004882813
1207.37765742263	1183.59997558594
1208.04786991266	1177.80004882813
1208.71799676846	1173.19995117188
1209.38803799769	1180.40002441406
1210.05799360803	1174.19995117188
1210.72786360714	1179
1211.39764800268	1177.19995117188
1212.06734680233	1180.40002441406
1212.73696001375	1178
1213.4064876446	1169.59997558594
1214.07592970255	1175.59997558594
1214.74528619526	1176.40002441406
1215.4145571304	1178
1216.08374251564	1164.40002441406
1216.75284235863	1168.19995117188
1217.42185666704	1170.19995117188
1218.09078544854	1167.19995117188
1218.75962871078	1170.40002441406
1219.42838646143	1171.80004882813
1220.09705870816	1173.40002441406
1220.76564545861	1175.59997558594
1221.43414672046	1178.59997558594
1222.10256250136	1173.19995117188
1222.77089280898	1166.59997558594
1223.43913765098	1159.40002441406
1224.107297035	1161.19995117188
1224.77537096873	1166.59997558594
1225.44335945981	1167.40002441406
1226.1112625159	1172.59997558594
1226.77908014467	1176.40002441406
1227.44681235376	1177.19995117188
1228.11445915085	1168.40002441406
1228.78202054357	1171
1229.44949653961	1183.59997558594
1230.11688714659	1175.59997558594
1230.7841923722	1165
1231.45141222407	1156.19995117188
1232.11854670988	1174.19995117188
1232.78559583726	1170.80004882813
1233.45255961388	1154.59997558594
1234.1194380474	1164.80004882813
1234.78623114546	1172.59997558594
1235.45293891572	1166.80004882813
1236.11956136583	1155
1236.78609850345	1174.59997558594
1237.45255033623	1166.40002441406
1238.11891687182	1162
1238.78519811788	1171
1239.45139408205	1173
1240.11750477198	1173.80004882813
1240.78353019534	1171.40002441406
1241.44947035976	1170.19995117188
1242.11532527291	1165
1242.78109494242	1155.19995117188
1243.44677937595	1160.40002441406
1244.11237858115	1161.40002441406
1244.77789256567	1154
1245.44332133715	1167
1246.10866490325	1152.40002441406
1246.7739232716	1157.80004882813
1247.43909644987	1163.59997558594
1248.10418444569	1169
1248.76918726671	1163.40002441406
1249.43410492059	1167.80004882813
1250.09893741496	1155.59997558594
1250.76368475747	1161.80004882813
1251.42834695576	1164.59997558594
1252.09292401749	1162.59997558594
1252.75741595029	1177.40002441406
1253.42182276182	1177.19995117188
1254.08614445971	1181.59997558594
1254.75038105161	1176.59997558594
1255.41453254515	1177.40002441406
1256.07859894799	1175.59997558594
1256.74258026777	1164.19995117188
1257.40647651213	1154.40002441406
1258.0702876887	1156.80004882813
1258.73401380514	1152.59997558594
1259.39765486908	1157.80004882813
1260.06121088817	1163.40002441406
1260.72468187004	1166.80004882813
1261.38806782233	1160.19995117188
1262.05136875269	1167.59997558594
1262.71458466875	1155.80004882813
1263.37771557815	1159.40002441406
1264.04076148854	1161.40002441406
1264.70372240753	1154.80004882813
1265.3665983428	1154.80004882813
1266.02938930195	1151.40002441406
1266.69209529263	1152.19995117188
1267.35471632249	1152.80004882813
1268.01725239914	1159.80004882813
1268.67970353024	1163.19995117188
1269.34206972342	1159.80004882813
1270.00435098631	1169.59997558594
1270.66654732655	1155.19995117188
1271.32865875177	1158.40002441406
1271.9906852696	1150.59997558594
1272.65262688768	1146.59997558594
1273.31448361365	1156.40002441406
1273.97625545514	1156.80004882813
1274.63794241978	1152.40002441406
1275.2995445152	1148.40002441406
1275.96106174903	1169.40002441406
1276.62249412892	1167.40002441406
1277.28384166248	1168
1277.94510435735	1162.19995117188
1278.60628222116	1158
1279.26737526155	1170
1279.92838348613	1162.40002441406
1280.58930690255	1161.59997558594
1281.25014551842	1169.40002441406
1281.91089934139	1164
1282.57156837907	1170.40002441406
1283.2321526391	1160.80004882813
1283.89265212911	1168.40002441406
1284.55306685671	1166.59997558594
1285.21339682955	1161.19995117188
1285.87364205525	1155.59997558594
1286.53380254142	1161.19995117188
1287.19387829571	1163.19995117188
1287.85386932573	1157.19995117188
1288.51377563911	1160
1289.17359724348	1160.80004882813
1289.83333414646	1159.59997558594
1290.49298635567	1166.19995117188
1291.15255387874	1158.59997558594
1291.8120367233	1159.19995117188
1292.47143489696	1160
1293.13074840736	1170
1293.7899772621	1170.40002441406
1294.44912146882	1165.19995117188
1295.10818103513	1170
1295.76715596866	1146.19995117188
1296.42604627704	1153.59997558594
1297.08485196787	1144.40002441406
1297.74357304878	1156.59997558594
1298.4022095274	1156.80004882813
1299.06076141134	1155
1299.71922870821	1154.40002441406
1300.37761142565	1156.59997558594
1301.03590957126	1157.40002441406
1301.69412315268	1170.59997558594
1302.3522521775	1167.19995117188
1303.01029665336	1171
1303.66825658787	1165.40002441406
1304.32613198865	1164.40002441406
1304.98392286332	1173.19995117188
1305.64162921948	1170.40002441406
1306.29925106476	1167.80004882813
1306.95678840677	1147
1307.61424125312	1165.80004882813
1308.27160961145	1158.40002441406
1308.92889348934	1168.80004882813
1309.58609289443	1166.19995117188
1310.24320783432	1175.40002441406
1310.90023831664	1177.59997558594
1311.55718434898	1166.80004882813
1312.21404593897	1162.80004882813
1312.87082309421	1174.80004882813
1313.52751582233	1170.40002441406
1314.18412413092	1184.59997558594
1314.84064802761	1180.59997558594
1315.49708752	1178.40002441406
1316.1534426157	1181.40002441406
1316.80971332233	1183.40002441406
1317.46589964749	1165
1318.1220015988	1167.19995117188
1318.77801918386	1175
1319.43395241028	1164.40002441406
1320.08980128567	1172
1320.74556581764	1171
1321.4012460138	1178.40002441406
1322.05684188176	1170.19995117188
1322.71235342911	1175.80004882813
1323.36778066347	1167
1324.02312359245	1166.59997558594
1324.67838222365	1172.80004882813
1325.33355656468	1165.40002441406
1325.98864662314	1152
1326.64365240663	1167.80004882813
1327.29857392277	1158.59997558594
1327.95341117915	1148.59997558594
1328.60816418339	1149.80004882813
1329.26283294308	1145.40002441406
1329.91741746582	1151.80004882813
1330.57191775923	1160
1331.2263338309	1171.19995117188
1331.88066568843	1164.19995117188
1332.53491333943	1164.80004882813
1333.1890767915	1158.59997558594
1333.84315605224	1165.59997558594
1334.49715112925	1155.19995117188
1335.15106203013	1155.80004882813
1335.80488876249	1159.40002441406
1336.45863133391	1169.59997558594
1337.112289752	1166.59997558594
1337.76586402437	1154.40002441406
1338.4193541586	1173
1339.0727601623	1177.59997558594
1339.72608204306	1166.80004882813
1340.37931980849	1163
1341.03247346617	1161.80004882813
1341.68554302372	1166.59997558594
1342.33852848871	1169.80004882813
1342.99142986876	1175.40002441406
1343.64424717145	1176.40002441406
1344.29698040438	1170.40002441406
1344.94962957515	1161
1345.60219469135	1158
1346.25467576058	1169.19995117188
1346.90707279042	1172
1347.55938578848	1165
1348.21161476235	1171
1348.86375971962	1172
1349.51582066787	1162.80004882813
1350.16779761472	1166.80004882813
1350.81969056774	1166
1351.47149953453	1164.80004882813
1352.12322452269	1160.80004882813
1352.77486553979	1166
1353.42642259344	1177.80004882813
1354.07789569122	1187
1354.72928484072	1186.19995117188
1355.38059004953	1171
1356.03181132525	1175.80004882813
1356.68294867545	1180.19995117188
1357.33400210773	1176.80004882813
1357.98497162968	1173.19995117188
1358.63585724889	1176.59997558594
1359.28665897294	1189.80004882813
1359.93737680942	1181.40002441406
1360.58801076591	1199.40002441406
1361.23856085001	1192.80004882813
1361.88902706929	1207.59997558594
1362.53940943135	1197.80004882813
1363.18970794377	1201.59997558594
1363.83992261413	1188
1364.49005345003	1189.80004882813
1365.14010045904	1187.40002441406
1365.79006364874	1187.59997558594
1366.43994302673	1185.19995117188
1367.08973860058	1180
1367.73945037788	1176.80004882813
1368.38907836621	1168.40002441406
1369.03862257315	1174
1369.68808300629	1164.40002441406
1370.3374596732	1166.40002441406
1370.98675258148	1166.59997558594
1371.63596173868	1170.59997558594
1372.28508715241	1169.19995117188
1372.93412883024	1175.19995117188
1373.58308677974	1160.40002441406
1374.2319610085	1152.40002441406
1374.8807515241	1151.59997558594
1375.52945833412	1153.80004882813
1376.17808144612	1152.59997558594
1376.82662086771	1152
1377.47507660644	1143.59997558594
1378.12344866989	1145.19995117188
1378.77173706565	1141.80004882813
1379.41994180129	1133.40002441406
1380.06806288439	1143.59997558594
1380.71610032252	1142.40002441406
1381.36405412326	1146.59997558594
1382.01192429419	1154.40002441406
1382.65971084287	1141.80004882813
1383.30741377688	1136.40002441406
1383.95503310381	1132.40002441406
1384.60256883121	1143.40002441406
1385.25002096667	1139.19995117188
1385.89738951775	1141.19995117188
1386.54467449204	1135.40002441406
1387.19187589709	1144
1387.8389937405	1143
1388.48602802982	1141.19995117188
1389.13297877262	1146
1389.77984597649	1141.19995117188
1390.42662964899	1148.59997558594
1391.07332979768	1146.59997558594
1391.71994643015	1144.59997558594
1392.36647955395	1136
1393.01292917667	1132.80004882813
1393.65929530586	1139.40002441406
1394.3055779491	1139.19995117188
1394.95177711395	1136.59997558594
1395.59789280799	1137.19995117188
1396.24392503877	1140
1396.88987381387	1133.59997558594
1397.53573914086	1139
1398.1815210273	1139.40002441406
1398.82721948075	1149.40002441406
1399.47283450878	1141.19995117188
1400.11836611897	1144
1400.76381431886	1141
1401.40917911603	1137
1402.05446051805	1129.40002441406
1402.69965853247	1141
1403.34477316686	1130.80004882813
1403.98980442878	1132.40002441406
1404.6347523258	1127
1405.27961686548	1136.59997558594
1405.92439805538	1145.40002441406
1406.56909590306	1137.19995117188
1407.21371041608	1139
1407.85824160202	1136
1408.50268946841	1131.80004882813
1409.14705402284	1131.19995117188
1409.79133527285	1133.80004882813
1410.43553322601	1129.80004882813
1411.07964788987	1135.59997558594
1411.723679272	1142
1412.36762737996	1136.59997558594
1413.01149222129	1132.80004882813
1413.65527380357	1123.59997558594
1414.29897213435	1134.19995117188
1414.94258722118	1134.80004882813
1415.58611907163	1137.59997558594
1416.22956769325	1135
1416.87293309359	1136.19995117188
1417.51621528021	1134
1418.15941426067	1133.40002441406
1418.80253004253	1140.59997558594
1419.44556263333	1147
1420.08851204063	1145.59997558594
1420.731378272	1143
1421.37416133497	1143.59997558594
1422.0168612371	1139.40002441406
1422.65947798596	1136.40002441406
1423.30201158908	1146
1423.94446205403	1142.40002441406
1424.58682938835	1132.80004882813
1425.2291135996	1141.80004882813
1425.87131469532	1143.40002441406
1426.51343268308	1132.40002441406
1427.15546757042	1139.19995117188
1427.79741936488	1136.59997558594
1428.43928807403	1142.40002441406
1429.0810737054	1149.19995117188
1429.72277626656	1149.80004882813
1430.36439576504	1140.80004882813
1431.00593220841	1142.19995117188
1431.64738560419	1141.19995117188
1432.28875595995	1136.59997558594
1432.93004328324	1133
1433.57124758159	1139
1434.21236886255	1137.19995117188
1434.85340713368	1132.19995117188
1435.49436240252	1131.59997558594
1436.13523467661	1133
1436.77602396349	1132.59997558594
1437.41673027073	1137
1438.05735360585	1137.40002441406
1438.69789397641	1136.40002441406
1439.33835138994	1140.19995117188
1439.978725854	1142
1440.61901737612	1145.80004882813
1441.25922596385	1142.19995117188
1441.89935162473	1146
1442.53939436631	1139.80004882813
1443.17935419612	1138.80004882813
1443.81923112171	1131.40002441406
1444.45902515061	1137.19995117188
1445.09873629038	1137.19995117188
1445.73836454854	1133.19995117188
1446.37790993265	1141.59997558594
1447.01737245024	1137.40002441406
1447.65675210885	1131
1448.29604891602	1140.80004882813
1448.93526287928	1143
1449.57439400618	1145.40002441406
1450.21344230426	1143
1450.85240778105	1134.80004882813
1451.49129044409	1128.80004882813
1452.13009030092	1124.19995117188
1452.76880735907	1119.40002441406
1453.40744162608	1129.19995117188
1454.04599310949	1126
1454.68446181683	1128
1455.32284775564	1125.40002441406
1455.96115093345	1122
1456.5993713578	1133
1457.23750903623	1132.80004882813
1457.87556397626	1127.80004882813
1458.51353618543	1128.19995117188
1459.15142567127	1131.19995117188
1459.78923244132	1131
1460.42695650311	1129.19995117188
1461.06459786417	1132.80004882813
1461.70215653203	1121
1462.33963251423	1119
1462.97702581829	1122.19995117188
1463.61433645175	1128.59997558594
1464.25156442214	1122
1464.88870973699	1124.40002441406
1465.52577240382	1134.19995117188
1466.16275243017	1130
1466.79964982356	1138.40002441406
1467.43646459154	1145.59997558594
1468.07319674161	1138.40002441406
1468.70984628132	1135
1469.34641321818	1119.80004882813
1469.98289755974	1130.40002441406
1470.6192993135	1131
1471.25561848701	1128.19995117188
1471.89185508779	1120.59997558594
1472.52800912336	1109.19995117188
1473.16408060124	1125.40002441406
1473.80006952897	1121.40002441406
1474.43597591407	1121.59997558594
1475.07179976406	1129.59997558594
1475.70754108647	1132.59997558594
1476.34319988883	1133.59997558594
1476.97877617865	1136.40002441406
1477.61426996345	1135
1478.24968125077	1128.19995117188
1478.88501004812	1123.19995117188
1479.52025636303	1127
1480.15542020302	1132.19995117188
1480.79050157561	1124.80004882813
1481.42550048832	1126
1482.06041694867	1119.40002441406
1482.69525096418	1113.59997558594
1483.33000254237	1118
1483.96467169077	1118.59997558594
1484.59925841689	1125.19995117188
1485.23376272825	1128.59997558594
1485.86818463237	1127.40002441406
1486.50252413677	1132.59997558594
1487.13678124896	1128.40002441406
1487.77095597646	1118
1488.4050483268	1124.40002441406
1489.03905830749	1128.40002441406
1489.67298592604	1123.19995117188
1490.30683118996	1124.19995117188
1490.9405941068	1126.19995117188
1491.57427468403	1126
1492.2078729292	1129.40002441406
1492.84138884981	1137.19995117188
1493.47482245338	1134.80004882813
1494.10817374742	1132.40002441406
1494.74144273944	1130.59997558594
1495.37462943696	1137.19995117188
1496.0077338475	1132.19995117188
1496.64075597856	1142.59997558594
1497.27369583765	1140
1497.9065534323	1142.19995117188
1498.53932877001	1135.80004882813
1499.17202185829	1139.19995117188
1499.80463270465	1134.40002441406
1500.43716131661	1140.40002441406
1501.06960770167	1134.19995117188
1501.70197186735	1142
1502.33425382116	1146.59997558594
1502.96645357059	1137.80004882813
1503.59857112317	1143
1504.23060648641	1139.59997558594
1504.8625596678	1140
1505.49443067486	1135.80004882813
1506.1262195151	1134.59997558594
1506.75792619602	1143.59997558594
1507.38955072513	1149
1508.02109310993	1146
1508.65255335794	1145.80004882813
1509.28393147666	1147.59997558594
1509.91522747359	1145.59997558594
1510.54644135624	1151.40002441406
1511.17757313212	1147.40002441406
1511.80862280872	1137.59997558594
1512.43959039356	1141.40002441406
1513.07047589413	1129.40002441406
1513.70127931795	1135.40002441406
1514.33200067251	1130.59997558594
1514.96263996531	1132.59997558594
1515.59319720386	1132.80004882813
1516.22367239567	1127.80004882813
1516.85406554822	1135.80004882813
1517.48437666903	1125.19995117188
1518.1146057656	1131
1518.74475284542	1127.59997558594
1519.374817916	1130.80004882813
1520.00480098483	1124
1520.63470205942	1115.19995117188
1521.26452114726	1132.80004882813
1521.89425825586	1123.59997558594
1522.52391339271	1126.40002441406
1523.15348656531	1125
1523.78297778116	1131.19995117188
1524.41238704775	1120.80004882813
1525.04171437259	1128
1525.67095976317	1128.19995117188
1526.30012322699	1127.59997558594
1526.92920477154	1117
1527.55820440432	1129
1528.18712213283	1134.40002441406
1528.81595796455	1123.19995117188
1529.44471190699	1127.59997558594
1530.07338396764	1121.40002441406
1530.70197415399	1120.19995117188
1531.33048247353	1123.40002441406
1531.95890893377	1116.19995117188
1532.58725354219	1107.80004882813
1533.21551630629	1107.40002441406
1533.84369723356	1103.19995117188
1534.47179633148	1108.59997558594
1535.09981360757	1114.19995117188
1535.72774906929	1105.19995117188
1536.35560272415	1105.19995117188
1536.98337457963	1112.19995117188
1537.61106464323	1111.40002441406
1538.23867292243	1113.40002441406
1538.86619942473	1108.59997558594
1539.49364415762	1106
1540.12100712857	1107.80004882813
1540.74828834509	1117
1541.37548781466	1117.40002441406
1542.00260554478	1111.59997558594
1542.62964154291	1113.80004882813
1543.25659581655	1113.19995117188
1543.8834683732	1116.40002441406
1544.51025922034	1102.59997558594
1545.13696836544	1116.59997558594
1545.76359581601	1112.19995117188
1546.39014157952	1112.40002441406
1547.01660566345	1111
1547.64298807531	1106.19995117188
1548.26928882255	1103.59997558594
1548.89550791269	1098.80004882813
1549.52164535318	1092.59997558594
1550.14770115153	1091.19995117188
1550.77367531521	1101.19995117188
1551.39956785171	1107.59997558594
1552.0253787685	1101.40002441406
1552.65110807307	1103.80004882813
1553.2767557729	1103.59997558594
1553.90232187548	1101
1554.52780638828	1102.40002441406
1555.15320931879	1109.19995117188
1555.77853067447	1103.40002441406
1556.40377046282	1105.59997558594
1557.02892869132	1110.19995117188
1557.65400536744	1105
1558.27900049866	1098
1558.90391409247	1105.19995117188
1559.52874615633	1095.59997558594
1560.15349669773	1106.40002441406
1560.77816572414	1103.40002441406
1561.40275324305	1102.59997558594
1562.02725926192	1109.59997558594
1562.65168378824	1110.80004882813
1563.27602682948	1111.40002441406
1563.90028839311	1106.19995117188
1564.52446848662	1116.80004882813
1565.14856711748	1113.19995117188
1565.77258429316	1114
1566.39652002113	1115.59997558594
1567.02037430887	1116
1567.64414716387	1109.80004882813
1568.26783859357	1114.19995117188
1568.89144860547	1112.59997558594
1569.51497720703	1110
1570.13842440573	1110.19995117188
1570.76179020904	1110.40002441406
1571.38507462442	1117.59997558594
1572.00827765936	1110
1572.63139932132	1105.80004882813
1573.25443961777	1114.40002441406
1573.87739855618	1115.19995117188
1574.50027614402	1116
1575.12307238877	1112.40002441406
1575.74578729789	1115.19995117188
1576.36842087885	1112.59997558594
1576.99097313912	1115.59997558594
1577.61344408616	1120.19995117188
1578.23583372745	1115.19995117188
1578.85814207046	1122.19995117188
1579.48036912264	1118.80004882813
1580.10251489147	1113.40002441406
1580.72457938441	1113.59997558594
1581.34656260893	1102.40002441406
1581.9684645725	1099.19995117188
1582.59028528258	1099
1583.21202474663	1105.19995117188
1583.83368297212	1098.19995117188
1584.45525996652	1087.80004882813
1585.07675573728	1090.19995117188
1585.69817029188	1089
1586.31950363778	1081.80004882813
1586.94075578243	1097.19995117188
1587.5619267333	1085
1588.18301649786	1088.40002441406
1588.80402508357	1085
1589.42495249788	1088.80004882813
1590.04579874826	1087.19995117188
1590.66656384217	1084
1591.28724778707	1086.19995117188
1591.90785059042	1081.59997558594
1592.52837225968	1083.40002441406
1593.14881280232	1086.59997558594
1593.76917222578	1088.40002441406
1594.38945053753	1094.19995117188
1595.00964774502	1088.80004882813
1595.62976385573	1085.80004882813
1596.24979887709	1087.19995117188
1596.86975281657	1091.59997558594
1597.48962568164	1091.19995117188
1598.10941747974	1093.19995117188
1598.72912821832	1098.59997558594
1599.34875790486	1097
1599.9683065468	1096.80004882813
1600.58777415159	1092.59997558594
1601.2071607267	1093.19995117188
1601.82646627958	1087
1602.44569081769	1093.19995117188
1603.06483434846	1087.19995117188
1603.68389687937	1087.40002441406
1604.30287841786	1086.80004882813
1604.92177897139	1084.80004882813
1605.54059854741	1083.19995117188
1606.15933715337	1086.59997558594
1606.77799479672	1081.19995117188
1607.39657148492	1083.19995117188
1608.01506722542	1081.59997558594
1608.63348202566	1082.80004882813
1609.2518158931	1081
1609.87006883519	1084.40002441406
1610.48824085939	1082.80004882813
1611.10633197312	1083.80004882813
1611.72434218386	1086.40002441406
1612.34227149904	1084.19995117188
1612.96011992612	1087.59997558594
1613.57788747254	1084.80004882813
1614.19557414575	1079.40002441406
1614.8131799532	1079.19995117188
1615.43070490234	1078.19995117188
1616.04814900061	1071.19995117188
1616.66551225545	1076.59997558594
1617.28279467433	1076.19995117188
1617.89999626467	1082.19995117188
1618.51711703393	1092.19995117188
1619.13415698955	1089.59997558594
1619.75111613898	1086.80004882813
1620.36799448966	1092.19995117188
1620.98479204903	1091.19995117188
1621.60150882455	1092
1622.21814482364	1092
1622.83470005376	1091.59997558594
1623.45117452235	1092
1624.06756823685	1088.40002441406
1624.6838812047	1089
1625.30011343335	1093
1625.91626493022	1093
1626.53233570278	1093.19995117188
1627.14832575845	1096.19995117188
1627.76423510468	1079.19995117188
1628.38006374891	1080
1628.99581169857	1081
1629.61147896111	1075.19995117188
1630.22706554397	1077.80004882813
1630.84257145457	1084
1631.45799670038	1080.80004882813
1632.07334128881	1085.80004882813
1632.6886052273	1075.80004882813
1633.3037885233	1075.59997558594
1633.91889118425	1073.80004882813
1634.53391321757	1074.40002441406
1635.1488546307	1075
1635.76371543108	1071.40002441406
1636.37849562616	1070
1636.99319522335	1074
1637.60781423009	1076.19995117188
1638.22235265383	1077.19995117188
1638.83681050198	1081
1639.451187782	1076.59997558594
1640.0654845013	1082
1640.67970066734	1082.19995117188
1641.29383628752	1082
1641.9078913693	1080.40002441406
1642.5218659201	1080.19995117188
1643.13575994735	1080.40002441406
1643.74957345849	1082.59997558594
1644.36330646094	1091.59997558594
1644.97695896213	1089.59997558594
1645.59053096951	1094.40002441406
1646.20402249049	1089.59997558594
1646.8174335325	1093.40002441406
1647.43076410298	1095.40002441406
1648.04401420935	1098.19995117188
1648.65718385905	1091.80004882813
1649.2702730595	1092
1649.88328181812	1102.59997558594
1650.49621014236	1101.59997558594
1651.10905803963	1097.80004882813
1651.72182551735	1085.59997558594
1652.33451258297	1076.40002441406
1652.9471192439	1080.19995117188
1653.55964550757	1074.19995117188
1654.1720913814	1073.80004882813
1654.78445687283	1075.59997558594
1655.39674198926	1069.40002441406
1656.00894673814	1069.80004882813
1656.62107112688	1070.59997558594
1657.23311516291	1064.80004882813
1657.84507885365	1060.40002441406
1658.45696220652	1068
1659.06876522895	1059.19995117188
1659.68048792835	1052.59997558594
1660.29213031217	1049.19995117188
1660.90369238779	1047.59997558594
1661.51517416267	1048
1662.12657564421	1053.40002441406
1662.73789683984	1043.59997558594
1663.34913775697	1045.19995117188
1663.96029840303	1050
1664.57137878544	1043
1665.18237891161	1043.40002441406
1665.79329878897	1042.59997558594
1666.40413842493	1047.19995117188
1667.01489782691	1040.80004882813
1667.62557700233	1037.80004882813
1668.2361759586	1041
1668.84669470315	1047
1669.4571332434	1039.59997558594
1670.06749158675	1041.19995117188
1670.67776974062	1040.59997558594
1671.28796771243	1035.19995117188
1671.8980855096	1039
1672.50812313954	1047.19995117188
1673.11808060967	1041.59997558594
1673.72795792739	1038.59997558594
1674.33775510013	1037
1674.9474721353	1037.80004882813
1675.55710904031	1029.40002441406
1676.16666582257	1032
1676.7761424895	1028.59997558594
1677.38553904851	1034.59997558594
1677.99485550702	1035.80004882813
1678.60409187243	1031.59997558594
1679.21324815215	1029
1679.8223243536	1030
1680.43132048419	1027.40002441406
1681.04023655132	1028.40002441406
1681.64907256241	1030.59997558594
1682.25782852487	1022.40002441406
1682.86650444611	1031.59997558594
1683.47510033353	1021.20001220703
1684.08361619455	1025.80004882813
1684.69205203657	1025
1685.300407867	1027.40002441406
1685.90868369325	1023.40002441406
1686.51687952272	1024
1687.12499536283	1025.19995117188
1687.73303122098	1020.79998779297
1688.34098710457	1028.80004882813
1688.94886302101	1021.59997558594
1689.55665897772	1025.19995117188
1690.16437498208	1026.80004882813
1690.77201104152	1031.59997558594
1691.37956716342	1028.80004882813
1691.9870433552	1027
1692.59443962426	1021.20001220703
1693.20175597801	1020.79998779297
1693.80899242384	1024
1694.41614896916	1023.40002441406
1695.02322562138	1019.59997558594
1695.63022238789	1021
1696.23713927609	1020.79998779297
1696.8439762934	1016
1697.4507334472	1015.40002441406
1698.05741074491	1015.59997558594
1698.66400819391	1010.59997558594
1699.27052580161	1018.40002441406
1699.87696357542	1014.40002441406
1700.48332152272	1008
1701.08959965092	1019.40002441406
1701.69579796742	1015.59997558594
1702.30191647962	1012.20001220703
1702.90795519491	1025
1703.51391412069	1019.59997558594
1704.11979326437	1011
1704.72559263332	1015.40002441406
1705.33131223496	1018.59997558594
1705.93695207668	1014.79998779297
1706.54251216588	1014.40002441406
1707.14799250994	1010.20001220703
1707.75339311628	1010
1708.35871399227	1010.40002441406
1708.96395514532	1007.40002441406
1709.56911658282	1010.79998779297
