634.948122577771	1016.59997558594
635.690341530823	1013.59997558594
636.43246851086	1008
637.174503525845	1009.59997558594
637.916446583745	1009
638.658297692538	1013.79998779297
639.400056860179	1007
640.141724094637	1010
640.883299403885	1005.79998779297
641.62478279588	1005.20001220703
642.366174278594	1004.79998779297
643.107473859989	1007.40002441406
643.848681548029	1009.20001220703
644.589797350679	1009.59997558594
645.330821275901	1011.20001220703
646.071753331665	1011.20001220703
646.812593525922	1005.20001220703
647.553341866646	1016.40002441406
648.293998361798	1015.40002441406
649.03456301933	1009
649.775035847216	1012.20001220703
650.515416853409	1017
651.255706045874	1018.79998779297
651.995903432568	1014.40002441406
652.736009021453	1014.59997558594
653.476022820486	1014
654.215944837629	1008.40002441406
654.955775080842	1009.20001220703
655.695513558081	1010.79998779297
656.435160277301	1013
657.174715246465	1016.59997558594
657.914178473527	1014.20001220703
658.653549966449	1008.59997558594
659.392829733176	1013
660.132017781678	1018
660.871114119901	1014.20001220703
661.610118755803	1010.59997558594
662.349031697343	1014.20001220703
663.087852952468	1017.79998779297
663.826582529139	1016
664.565220435305	1016.20001220703
665.30376667892	1018.20001220703
666.04222126794	1019.59997558594
666.780584210316	1012.79998779297
667.518855514	1016.20001220703
668.25703518694	1022.20001220703
668.995123237096	1015.40002441406
669.733119672413	1019.40002441406
670.471024500842	1018
671.208837730333	1015.59997558594
671.946559368839	1018.59997558594
672.684189424308	1020.79998779297
673.421727904689	1022
674.159174817929	1017
674.896530171977	1019.20001220703
675.633793974786	1022.59997558594
676.370966234295	1019.20001220703
677.108046958461	1019.59997558594
677.845036155219	1021.59997558594
678.581933832528	1028
679.318739998323	1018.40002441406
680.055454660558	1022
680.792077827172	1024.40002441406
681.528609506116	1019
682.265049705331	1021.20001220703
683.001398432759	1021.79998779297
683.737655696349	1024
684.47382150404	1018
685.20989586378	1023.59997558594
685.945878783503	1018.20001220703
686.68177027116	1023.79998779297
687.417570334688	1027.80004882813
688.153278982032	1024.59997558594
688.888896221129	1018.40002441406
689.624422059921	1008
690.359856506349	1021.79998779297
691.095199568354	1019
691.830451253874	1026.19995117188
692.565611570844	1026.19995117188
693.300680527212	1028.40002441406
694.03565813091	1025.80004882813
694.770544389877	1027.80004882813
695.505339312053	1025.80004882813
696.240042905372	1020.40002441406
696.974655177772	1014.40002441406
697.70917613719	1016.59997558594
698.443605791561	1012
699.177944148826	1012.59997558594
699.912191216909	1010.20001220703
700.646347003755	1013
701.380411517295	1016.40002441406
702.114384765465	1022.20001220703
702.848266756195	1020
703.582057497421	1023
704.315756997074	1022.20001220703
705.049365263089	1011.79998779297
705.782882303399	1015.40002441406
706.516308125936	1018.59997558594
707.249642738626	1023.59997558594
707.982886149403	1026.59997558594
708.716038366204	1022.59997558594
709.449099396949	1020
710.182069249577	1023
710.914947932009	1025.19995117188
711.647735452181	1024.80004882813
712.380431818022	1028.80004882813
713.113037037454	1021
713.845551118411	1025.40002441406
714.577974068818	1029.80004882813
715.310305896604	1027.19995117188
716.042546609694	1030.19995117188
716.774696216013	1025.80004882813
717.506754723493	1021.79998779297
718.238722140053	1025.80004882813
718.970598473624	1020.79998779297
719.702383732127	1021.59997558594
720.43407792349	1025.40002441406
721.165681055634	1020.59997558594
721.897193136486	1018.59997558594
722.628614173966	1019.59997558594
723.359944175997	1022
724.091183150505	1019.79998779297
724.822331105412	1023.59997558594
725.553388048638	1029.19995117188
726.284353988106	1024.80004882813
727.015228931734	1025.40002441406
727.746012887449	1026
728.476705863162	1022.79998779297
729.207307866803	1022
729.937818906289	1027.40002441406
730.668238989535	1029.40002441406
731.398568124459	1028.59997558594
732.128806318986	1031
732.858953581034	1023.79998779297
733.589009918514	1029.80004882813
734.318975339348	1027.59997558594
735.048849851452	1028.19995117188
735.778633462744	1023.59997558594
736.508326181137	1023
737.237928014549	1025.40002441406
737.967438970897	1025.19995117188
738.696859058095	1028.59997558594
739.426188284054	1026.19995117188
740.155426656692	1028.19995117188
740.884574183922	1025.40002441406
741.613630873659	1027
742.342596733815	1033.40002441406
743.071471772302	1030.59997558594
743.800255997034	1037.59997558594
744.528949415921	1032
745.257552036877	1035.80004882813
745.986063867811	1036.40002441406
746.714484916638	1033.59997558594
747.442815191261	1030
748.171054699597	1030.19995117188
748.899203449554	1025
749.627261449039	1032
750.355228705966	1025.59997558594
751.083105228239	1020
751.810891023765	1020.20001220703
752.538586100459	1026
753.266190466218	1025.80004882813
753.99370412896	1029.80004882813
754.721127096582	1023.40002441406
755.448459377	1028.40002441406
756.175700978114	1028.19995117188
756.902851907828	1027.59997558594
757.629912174055	1024.59997558594
758.356881784688	1029.19995117188
759.083760747639	1027.59997558594
759.810549070817	1017.79998779297
760.537246762113	1021.79998779297
761.263853829442	1026.80004882813
761.990370280698	1026.40002441406
762.716796123791	1032.80004882813
763.443131366618	1027
764.169376017082	1025.80004882813
764.895530083085	1030.80004882813
765.621593572527	1038.40002441406
766.347566493312	1032.40002441406
767.073448853336	1034.19995117188
767.799240660502	1037.19995117188
768.524941922707	1038.59997558594
769.250552647854	1042.80004882813
769.976072843836	1047.59997558594
770.701502518551	1045.19995117188
771.426841679905	1040
772.152090335793	1046.40002441406
772.877248494107	1053
773.602316162747	1051.19995117188
774.327293349609	1049.80004882813
775.052180062592	1065
775.776976309589	1056.80004882813
776.501682098496	1060.59997558594
777.226297437206	1045.59997558594
777.950822333616	1044
778.675256795621	1037.80004882813
779.399600831111	1036.59997558594
780.123854447983	1039.19995117188
780.84801765413	1036.19995117188
781.572090457441	1041
782.296072865811	1043.40002441406
783.019964887131	1034.59997558594
783.743766529297	1039.80004882813
784.467477800194	1034
785.191098707719	1030.40002441406
785.914629259756	1036.40002441406
786.638069464194	1032
787.361419328932	1031.19995117188
788.084678861852	1033.80004882813
788.807848070845	1028.80004882813
789.530926963798	1031
790.253915548602	1032.19995117188
790.976813833144	1031.19995117188
791.699621825307	1032.59997558594
792.422339532986	1030
793.144966964061	1030.19995117188
793.86750412642	1032.80004882813
794.589951027946	1031.80004882813
795.312307676536	1035.59997558594
796.03457408006	1031.19995117188
796.756750246417	1028.19995117188
797.478836183477	1029.59997558594
798.200831899137	1031.40002441406
798.92273740127	1026
799.644552697769	1028.80004882813
800.36627779651	1028
801.087912705374	1032.80004882813
801.809457432251	1030.80004882813
802.530911985017	1036.80004882813
803.252276371558	1032.80004882813
803.973550599748	1034.80004882813
804.694734677472	1029.40002441406
805.415828612611	1035.59997558594
806.136832413045	1033.40002441406
806.857746086646	1036.59997558594
807.578569641305	1033.59997558594
808.299303084892	1028.40002441406
809.019946425289	1030.80004882813
809.740499670372	1032.59997558594
810.460962828022	1031.19995117188
811.181335906114	1028.40002441406
811.901618912524	1030.40002441406
812.621811855131	1038
813.341914741809	1034
814.061927580433	1036.40002441406
814.781850378881	1032.19995117188
815.501683145025	1033.59997558594
816.221425886743	1031.80004882813
816.941078611903	1028.19995117188
817.660641328387	1024.80004882813
818.380114044065	1023
819.099496766808	1025.80004882813
819.818789504492	1032.80004882813
820.53799226499	1033
821.257105056168	1030.80004882813
821.976127885904	1037.40002441406
822.695060762064	1033.19995117188
823.413903692525	1039.59997558594
824.132656685151	1037.40002441406
824.851319747817	1035.80004882813
825.569892888388	1035.80004882813
826.288376114739	1026.59997558594
827.006769434737	1030.40002441406
827.725072856249	1030.80004882813
828.443286387142	1030.80004882813
829.161410035285	1024.40002441406
829.87944380855	1026.59997558594
830.597387714798	1031.19995117188
831.315241761898	1029.40002441406
832.033005957715	1031.80004882813
832.750680310119	1023.20001220703
833.468264826969	1027
834.18575951614	1030.40002441406
834.903164385486	1033.80004882813
835.620479442878	1032.19995117188
836.337704696181	1030.80004882813
837.054840153255	1029.80004882813
837.771885821962	1029.59997558594
838.488841710172	1030
839.20570782574	1032.80004882813
839.922484176531	1035.80004882813
840.639170770409	1033.40002441406
841.355767615231	1033.59997558594
842.072274718864	1028.19995117188
842.788692089164	1032.40002441406
843.505019733993	1033.19995117188
844.221257661209	1032.80004882813
844.937405878676	1034.59997558594
845.65346439425	1028.19995117188
846.369433215789	1027.59997558594
847.085312351156	1024.80004882813
847.801101808205	1023.40002441406
848.516801594793	1028.40002441406
849.232411718781	1031.80004882813
849.947932188021	1027.59997558594
850.663363010376	1032.40002441406
851.378704193698	1029
852.093955745842	1030.40002441406
852.809117674669	1034.40002441406
853.524189988028	1030.80004882813
854.239172693778	1033
854.954065799768	1034
855.668869313857	1031.40002441406
856.383583243899	1029
857.098207597743	1028.19995117188
857.812742383246	1027.80004882813
858.527187608255	1024.80004882813
859.241543280628	1031.59997558594
859.955809408218	1034.40002441406
860.669985998868	1029.59997558594
861.384073060437	1031.59997558594
862.098070600772	1024.80004882813
862.811978627724	1032.19995117188
863.52579714914	1036.80004882813
864.239526172873	1032
864.953165706776	1027.80004882813
865.666715758687	1032.40002441406
866.380176336464	1034.59997558594
867.093547447951	1035.80004882813
867.806829100996	1034.59997558594
868.520021303444	1041.19995117188
869.233124063149	1029.80004882813
869.94613738795	1033
870.659061285693	1034.80004882813
871.37189576423	1032.40002441406
872.084640831403	1029.40002441406
872.797296495057	1026.40002441406
873.509862763039	1024.59997558594
874.22233964319	1023.20001220703
874.934727143353	1027.80004882813
875.647025271374	1025.80004882813
876.359234035097	1029.19995117188
877.071353442361	1024.19995117188
877.783383501015	1029.19995117188
878.495324218895	1025.19995117188
879.207175603844	1030.19995117188
879.918937663705	1025.80004882813
880.630610406318	1019.40002441406
881.342193839524	1028.19995117188
882.053687971161	1027.80004882813
882.765092809069	1035.80004882813
883.476408361091	1038.19995117188
884.187634635066	1034.80004882813
884.898771638828	1027.40002441406
885.609819380221	1031.59997558594
886.320777867076	1024
887.031647107236	1024.40002441406
887.742427108536	1025.80004882813
888.453117878816	1033.80004882813
889.16371942591	1031.40002441406
889.874231757652	1035.80004882813
890.584654881883	1030.19995117188
891.294988806434	1028.59997558594
892.005233539141	1029
892.715389087837	1030
893.42545546036	1030.19995117188
894.135432664543	1031.59997558594
894.845320708216	1029.80004882813
895.555119599216	1025.80004882813
896.264829345375	1031
896.974449954526	1029
897.683981434496	1033
898.393423793125	1032.40002441406
899.102777038235	1024
899.812041177664	1024.19995117188
900.521216219239	1028.40002441406
901.230302170793	1029
901.939299040155	1034.19995117188
902.64820683515	1031
903.357025563612	1041
904.065755233368	1041.19995117188
904.774395852247	1039
905.482947428076	1039.40002441406
906.191409968682	1042.80004882813
906.899783481897	1038.19995117188
907.608067975538	1037.40002441406
908.316263457443	1035.80004882813
909.02436993543	1036.19995117188
909.732387417327	1025.59997558594
910.440315910959	1025.40002441406
911.148155424154	1040.59997558594
911.855905964731	1027
912.563567540521	1030
913.271140159339	1031
913.978623829017	1035.59997558594
914.686018557374	1039.40002441406
915.393324352237	1035.59997558594
916.100541221421	1037
916.807669172752	1033.80004882813
917.514708214054	1037.19995117188
918.221658353142	1039.80004882813
918.928519597843	1036.59997558594
919.635291955976	1033.19995117188
920.341975435358	1040.40002441406
921.048570043813	1038.59997558594
921.75507578916	1043.80004882813
922.461492679212	1038.59997558594
923.167820721795	1043
923.874059924726	1045.19995117188
924.58021029582	1044.59997558594
925.286271842893	1041.19995117188
925.992244573769	1031.80004882813
926.698128496262	1039.80004882813
927.403923618184	1038.19995117188
928.109629947355	1035.59997558594
928.815247491593	1032.59997558594
929.520776258708	1028
930.226216256519	1028.59997558594
930.931567492841	1035.19995117188
931.636829975482	1034.59997558594
932.342003712263	1029.59997558594
933.047088710995	1029.59997558594
933.752084979491	1034
934.456992525564	1036.80004882813
935.161811357024	1041.59997558594
935.866541481688	1035.80004882813
936.571182907363	1030.80004882813
937.275735641861	1032.40002441406
937.980199692995	1024.59997558594
938.684575068572	1027.59997558594
939.388861776411	1032.19995117188
940.093059824311	1025
940.797169220085	1022.59997558594
941.501189971544	1028.19995117188
942.205122086495	1021.59997558594
942.908965572751	1016.79998779297
943.612720438111	1022.20001220703
944.316386690391	1025.80004882813
945.019964337391	1023.79998779297
945.723453386924	1023.20001220703
946.426853846795	1030
947.130165724808	1027
947.83338902877	1029.40002441406
948.536523766488	1025.80004882813
949.239569945764	1019.40002441406
949.942527574402	1029.19995117188
950.64539666021	1026.59997558594
951.348177210993	1027.80004882813
952.050869234548	1026.40002441406
952.753472738683	1025
953.455987731199	1022
954.158414219898	1018
954.860752212587	1031.40002441406
955.563001717061	1026.59997558594
956.265162741124	1029.19995117188
956.967235292576	1019.20001220703
957.669219379224	1022
958.371115008857	1027.40002441406
959.072922189283	1031.59997558594
959.774640928301	1027.40002441406
960.476271233708	1026.19995117188
961.177813113301	1026.19995117188
961.879266574882	1025.80004882813
962.580631626248	1026
963.281908275194	1020.59997558594
963.98309652952	1026.59997558594
964.684196397022	1022.79998779297
965.3852078855	1016.79998779297
966.086131002745	1020
966.786965756555	1016.20001220703
967.487712154726	1021.20001220703
968.188370205055	1023
968.888939915331	1019.40002441406
969.589421293352	1028.40002441406
970.289814346909	1021.59997558594
970.990119083801	1022.79998779297
971.690335511819	1031.80004882813
972.39046363875	1031
973.090503472398	1025.59997558594
973.790455020545	1028.40002441406
974.490318290987	1027.80004882813
975.190093291516	1025.80004882813
975.889780029923	1029.19995117188
976.589378513998	1028.19995117188
977.288888751527	1032.40002441406
977.988310750308	1031
978.687644518122	1029.19995117188
979.386890062767	1030
980.086047392025	1033
980.785116513689	1037.59997558594
981.484097435542	1027.80004882813
982.182990165377	1027.59997558594
982.88179471098	1022.40002441406
983.580511080137	1017.40002441406
984.279139280632	1028
984.977679320253	1026.59997558594
985.67613120679	1031.19995117188
986.374494948027	1032.19995117188
987.072770551745	1030.40002441406
987.770958025731	1029.40002441406
988.469057377772	1030.19995117188
989.167068615649	1034.80004882813
989.864991747145	1028.40002441406
990.562826780047	1030.40002441406
991.260573722134	1027
991.958232581195	1025.40002441406
992.655803365003	1030.59997558594
993.353286081346	1025
994.050680738006	1024.40002441406
994.74798734276	1027.19995117188
995.44520590339	1024.19995117188
996.142336427681	1026
996.839378923407	1024.59997558594
997.536333398348	1026
998.233199860289	1019.20001220703
998.929978317004	1025.19995117188
999.626668776274	1030.19995117188
1000.32327124587	1036.40002441406
1001.01978573359	1033.59997558594
1001.71621224718	1035
1002.41255079445	1039.59997558594
1003.10880138315	1033.19995117188
1003.80496402107	1031.19995117188
1004.50103871599	1024.59997558594
1005.19702547567	1027.59997558594
1005.8929243079	1031.19995117188
1006.58873522045	1027
1007.2844582211	1034.80004882813
1007.98009331761	1028
1008.67564051776	1023
1009.37109982933	1020.59997558594
1010.06647126009	1026
1010.7617548178	1025
1011.45695051026	1033.59997558594
1012.15205834522	1036.40002441406
1012.84707833045	1031.40002441406
1013.54201047373	1033.59997558594
1014.23685478284	1031.59997558594
1014.93161126553	1030.19995117188
1015.62627992959	1027
1016.32086078277	1033
1017.01535383285	1035.59997558594
1017.70975908761	1034
1018.40407655479	1031.40002441406
1019.09830624219	1034.59997558594
1019.79244815755	1025.59997558594
1020.48650230866	1028
1021.18046870328	1028.40002441406
1021.87434734917	1024.19995117188
1022.56813825411	1030
1023.26184142584	1029.80004882813
1023.95545687216	1034.80004882813
1024.64898460082	1034.80004882813
1025.34242461957	1025.40002441406
1026.0357769362	1035
1026.72904155846	1035
1027.42221849412	1032.59997558594
1028.11530775094	1034
1028.80830933668	1031.40002441406
1029.50122325911	1027
1030.19404952599	1031.80004882813
1030.88678814508	1026.40002441406
1031.57943912414	1029
1032.27200247093	1032.59997558594
1032.96447819323	1032
1033.65686629878	1030.80004882813
1034.34916679534	1039.19995117188
1035.04137969068	1033.80004882813
1035.73350499256	1034.80004882813
1036.42554270874	1042.59997558594
1037.11749284697	1035.80004882813
1037.80935541501	1032.19995117188
1038.50113042062	1030.80004882813
1039.19281787156	1027
1039.88441777559	1025.40002441406
1040.57593014046	1025.40002441406
1041.26735497393	1029.80004882813
1041.95869228376	1038
1042.6499420777	1029.19995117188
1043.3411043635	1031.40002441406
1044.03217914893	1032.40002441406
1044.72316644174	1036.40002441406
1045.41406624968	1022.79998779297
1046.1048785805	1027
1046.79560344197	1016.79998779297
1047.48624084182	1027.19995117188
1048.17679078783	1027.19995117188
1048.86725328774	1028.80004882813
1049.55762834929	1027.40002441406
1050.24791598025	1026.59997558594
1050.93811618837	1017.59997558594
1051.62822898139	1022.59997558594
1052.31825436707	1027.19995117188
1053.00819235315	1028.80004882813
1053.6980429474	1025.80004882813
1054.38780615755	1027.40002441406
1055.07748199136	1026.40002441406
1055.76707045658	1023.40002441406
1056.45657156095	1030.40002441406
1057.14598531222	1022.79998779297
1057.83531171814	1023
1058.52455078646	1025.80004882813
1059.21370252494	1028.59997558594
1059.90276694129	1025.19995117188
1060.5917440433	1025.80004882813
1061.28063383868	1026.40002441406
1061.9694363352	1020.79998779297
1062.65815154059	1023.20001220703
1063.34677946261	1027.19995117188
1064.03532010899	1027.40002441406
1064.72377348748	1028.59997558594
1065.41213960583	1023.79998779297
1066.10041847177	1019.79998779297
1066.78861009306	1028.40002441406
1067.47671447743	1024.59997558594
1068.16473163263	1024.19995117188
1068.85266156639	1022
1069.54050428647	1031.19995117188
1070.2282598006	1031
1070.91592811652	1033.40002441406
1071.60350924198	1030.40002441406
1072.29100318471	1024
1072.97840995245	1022.59997558594
1073.66572955295	1024.80004882813
1074.35296199394	1027.40002441406
1075.04010728316	1026.59997558594
1075.72716542836	1032
1076.41413643726	1016.59997558594
1077.10102031761	1028.19995117188
1077.78781707715	1024.59997558594
1078.4745267236	1023.59997558594
1079.16114926471	1023.40002441406
1079.84768470822	1025.40002441406
1080.53413306185	1030
1081.22049433336	1032.40002441406
1081.90676853046	1020.79998779297
1082.5929556609	1023.40002441406
1083.27905573241	1027.59997558594
1083.96506875272	1026.59997558594
1084.65099472957	1023.59997558594
1085.3368336707	1021.79998779297
1086.02258558383	1028.59997558594
1086.70825047669	1026.40002441406
1087.39382835703	1025.80004882813
1088.07931923257	1024.40002441406
1088.76472311104	1026.80004882813
1089.45004000018	1027.40002441406
1090.13526990771	1031.59997558594
1090.82041284137	1031.19995117188
1091.50546880889	1024
1092.19043781799	1029.40002441406
1092.87531987642	1029.59997558594
1093.56011499188	1029.80004882813
1094.24482317212	1030.59997558594
1094.92944442486	1029
1095.61397875783	1025
1096.29842617876	1021.79998779297
1096.98278669537	1018.40002441406
1097.6670603154	1029
1098.35124704656	1022.79998779297
1099.03534689659	1028.80004882813
1099.71935987322	1022.20001220703
1100.40328598416	1029.59997558594
1101.08712523713	1030.40002441406
1101.77087763988	1034.80004882813
1102.45454320012	1031.59997558594
1103.13812192557	1036.40002441406
1103.82161382396	1032.59997558594
1104.50501890301	1025.40002441406
1105.18833717045	1022
1105.87156863399	1022.79998779297
1106.55471330137	1024.80004882813
1107.2377711803	1019
1107.9207422785	1026.59997558594
1108.60362660369	1033.80004882813
1109.2864241636	1027.19995117188
1109.96913496594	1021
1110.65175901844	1025.40002441406
1111.33429632882	1027
1112.01674690479	1024.40002441406
1112.69911075408	1023.79998779297
1113.38138788439	1030.59997558594
1114.06357830346	1031.59997558594
1114.745682019	1032.19995117188
1115.42769903872	1028.80004882813
1116.10962937035	1033.59997558594
1116.7914730216	1023.40002441406
1117.47323000018	1023
1118.15490031382	1020.40002441406
1118.83648397022	1024.40002441406
1119.51798097712	1020
1120.1993913422	1025
1120.88071507321	1024.80004882813
1121.56195217784	1024.19995117188
1122.24310266381	1029.40002441406
1122.92416653884	1032
1123.60514381064	1027.80004882813
1124.28603448692	1036.19995117188
1124.9668385754	1036.59997558594
1125.64755608378	1030
1126.32818701978	1030.19995117188
1127.00873139111	1035.19995117188
1127.68918920548	1033.80004882813
1128.3695604706	1030.19995117188
1129.04984519419	1037.80004882813
1129.73004338394	1043.19995117188
1130.41015504758	1039
1131.09018019281	1036.40002441406
1131.77011882734	1033.40002441406
1132.44997095888	1033.40002441406
1133.12973659514	1031.40002441406
1133.80941574381	1029.80004882813
1134.48900841263	1030.40002441406
1135.16851460927	1029
1135.84793434147	1031.80004882813
1136.52726761692	1027.40002441406
1137.20651444333	1034.40002441406
1137.8856748284	1025.19995117188
1138.56474877984	1032.40002441406
1139.24373630536	1034.40002441406
1139.92263741265	1028.19995117188
1140.60145210943	1025.80004882813
1141.28018040339	1017
1141.95882230225	1021.20001220703
1142.6373778137	1028.80004882813
1143.31584694545	1021.59997558594
1143.99422970519	1022.59997558594
1144.67252610064	1022
1145.35073613949	1026.19995117188
1146.02885982944	1019
1146.7068971782	1018
1147.38484819347	1018.59997558594
1148.06271288294	1019.59997558594
1148.74049125432	1020.40002441406
1149.41818331531	1027.19995117188
1150.0957890736	1025.19995117188
1150.77330853689	1032.40002441406
1151.45074171289	1034.19995117188
1152.12808860928	1036
1152.80534923378	1036.59997558594
1153.48252359407	1031.19995117188
1154.15961169786	1039.80004882813
1154.83661355283	1030.80004882813
1155.51352916669	1025.19995117188
1156.19035854713	1030.59997558594
1156.86710170185	1030
1157.54375863855	1028.59997558594
1158.22032936491	1024.40002441406
1158.89681388863	1028.80004882813
1159.57321221741	1029.19995117188
1160.24952435894	1034.59997558594
1160.92575032092	1029.19995117188
1161.60189011103	1027.80004882813
1162.27794373697	1028
1162.95391120644	1031.19995117188
1163.62979252712	1030.19995117188
1164.3055877067	1032
1164.98129675288	1028.59997558594
1165.65691967336	1037
1166.33245647581	1033.80004882813
1167.00790716792	1035.19995117188
1167.6832717574	1032.59997558594
1168.35855025193	1034
1169.0337426592	1033.80004882813
1169.70884898689	1031.80004882813
1170.3838692427	1037.40002441406
1171.05880343431	1038.59997558594
1171.73365156941	1032.19995117188
1172.40841365569	1035.80004882813
1173.08308970083	1036
1173.75767971253	1034
1174.43218369847	1032
1175.10660166633	1032.19995117188
1175.7809336238	1028.40002441406
1176.45517957857	1034.80004882813
1177.12933953832	1030.19995117188
1177.80341351073	1028.40002441406
1178.47740150349	1029
1179.15130352429	1024.59997558594
1179.8251195808	1038.40002441406
1180.49884968071	1036.40002441406
1181.1724938317	1037
1181.84605204145	1040.59997558594
1182.51952431766	1041.80004882813
1183.19291066799	1041.59997558594
1183.86621110013	1035
1184.53942562176	1034.40002441406
1185.21255424057	1032.40002441406
1185.88559696422	1034
1186.55855380041	1030.59997558594
1187.2314247568	1040.80004882813
1187.90420984109	1033.40002441406
1188.57690906095	1045.19995117188
1189.24952242405	1042
1189.92204993808	1040.59997558594
1190.59449161071	1038.59997558594
1191.26684744962	1037.80004882813
1191.93911746249	1042
1192.61130165699	1040.59997558594
1193.28340004081	1050
1193.95541262161	1041.19995117188
1194.62733940707	1041
1195.29918040487	1043
1195.97093562269	1029.19995117188
1196.64260506819	1040
1197.31418874905	1037
1197.98568667295	1028.40002441406
1198.65709884755	1031.40002441406
1199.32842528053	1034.40002441406
1199.99966597957	1033.40002441406
1200.67082095234	1031.19995117188
1201.3418902065	1033.19995117188
1202.01287374974	1033
1202.68377158971	1032
1203.3545837341	1031.40002441406
1204.02531019057	1031.80004882813
1204.6959509668	1034.40002441406
1205.36650607045	1035.59997558594
1206.03697550919	1038.80004882813
1206.70735929069	1035
1207.37765742263	1033.40002441406
1208.04786991266	1029.19995117188
1208.71799676846	1027.80004882813
1209.38803799769	1032
1210.05799360803	1019.59997558594
1210.72786360714	1028.59997558594
1211.39764800268	1027.40002441406
1212.06734680233	1026
1212.73696001375	1026.59997558594
1213.4064876446	1029
1214.07592970255	1026
1214.74528619526	1027.80004882813
1215.4145571304	1025.59997558594
1216.08374251564	1027.19995117188
1216.75284235863	1026.19995117188
1217.42185666704	1027
1218.09078544854	1023.79998779297
1218.75962871078	1019.20001220703
1219.42838646143	1026.19995117188
1220.09705870816	1023.79998779297
1220.76564545861	1024.19995117188
1221.43414672046	1021.79998779297
1222.10256250136	1028.59997558594
1222.77089280898	1022.20001220703
1223.43913765098	1024
1224.107297035	1018.79998779297
1224.77537096873	1027.40002441406
1225.44335945981	1021.20001220703
1226.1112625159	1025.59997558594
1226.77908014467	1029
1227.44681235376	1029.19995117188
1228.11445915085	1022.20001220703
1228.78202054357	1028.19995117188
1229.44949653961	1028.59997558594
1230.11688714659	1027.19995117188
1230.7841923722	1028.40002441406
1231.45141222407	1021.59997558594
1232.11854670988	1023.79998779297
1232.78559583726	1028.40002441406
1233.45255961388	1030.40002441406
1234.1194380474	1023.20001220703
1234.78623114546	1027.40002441406
1235.45293891572	1028.80004882813
1236.11956136583	1023.59997558594
1236.78609850345	1021.40002441406
1237.45255033623	1019.40002441406
1238.11891687182	1022.79998779297
1238.78519811788	1026.80004882813
1239.45139408205	1023
1240.11750477198	1025.80004882813
1240.78353019534	1024.40002441406
1241.44947035976	1024.80004882813
1242.11532527291	1024.40002441406
1242.78109494242	1018
1243.44677937595	1016.20001220703
1244.11237858115	1015.79998779297
1244.77789256567	1022.20001220703
1245.44332133715	1016.20001220703
1246.10866490325	1020.40002441406
1246.7739232716	1013.59997558594
1247.43909644987	1017.20001220703
1248.10418444569	1023.59997558594
1248.76918726671	1019
1249.43410492059	1021
1250.09893741496	1018.59997558594
1250.76368475747	1020.79998779297
1251.42834695576	1016.59997558594
1252.09292401749	1020.40002441406
1252.75741595029	1017.20001220703
1253.42182276182	1030
1254.08614445971	1026
1254.75038105161	1034.59997558594
1255.41453254515	1031.59997558594
1256.07859894799	1033.19995117188
1256.74258026777	1026.80004882813
1257.40647651213	1021.79998779297
1258.0702876887	1027.40002441406
1258.73401380514	1018
1259.39765486908	1020.20001220703
1260.06121088817	1020.59997558594
1260.72468187004	1022
1261.38806782233	1014.79998779297
1262.05136875269	1026.80004882813
1262.71458466875	1022.20001220703
1263.37771557815	1023.79998779297
1264.04076148854	1022.59997558594
1264.70372240753	1018.79998779297
1265.3665983428	1014.20001220703
1266.02938930195	1016.79998779297
1266.69209529263	1024
1267.35471632249	1017.40002441406
1268.01725239914	1023
1268.67970353024	1021.40002441406
1269.34206972342	1028.59997558594
1270.00435098631	1024.40002441406
1270.66654732655	1023
1271.32865875177	1023.20001220703
1271.9906852696	1028
1272.65262688768	1021.20001220703
1273.31448361365	1021
1273.97625545514	1016.40002441406
1274.63794241978	1018.40002441406
1275.2995445152	1020.59997558594
1275.96106174903	1020.59997558594
1276.62249412892	1022.59997558594
1277.28384166248	1026.59997558594
1277.94510435735	1021.40002441406
1278.60628222116	1018.40002441406
1279.26737526155	1030.59997558594
1279.92838348613	1018.79998779297
1280.58930690255	1016.59997558594
1281.25014551842	1030.19995117188
1281.91089934139	1018.59997558594
1282.57156837907	1022.59997558594
1283.2321526391	1021.40002441406
1283.89265212911	1021
1284.55306685671	1021.79998779297
1285.21339682955	1022.40002441406
1285.87364205525	1019.59997558594
1286.53380254142	1022.59997558594
1287.19387829571	1018.79998779297
1287.85386932573	1026.40002441406
1288.51377563911	1023.59997558594
1289.17359724348	1031.80004882813
1289.83333414646	1026.40002441406
1290.49298635567	1025.40002441406
1291.15255387874	1014.79998779297
1291.8120367233	1020.40002441406
1292.47143489696	1020.40002441406
1293.13074840736	1028.59997558594
1293.7899772621	1028
1294.44912146882	1030.40002441406
1295.10818103513	1022.79998779297
1295.76715596866	1028.59997558594
1296.42604627704	1021.40002441406
1297.08485196787	1016
1297.74357304878	1019
1298.4022095274	1025.59997558594
1299.06076141134	1022.20001220703
1299.71922870821	1029.40002441406
1300.37761142565	1023.79998779297
1301.03590957126	1027.80004882813
1301.69412315268	1029.80004882813
1302.3522521775	1024.40002441406
1303.01029665336	1028.59997558594
1303.66825658787	1034
1304.32613198865	1036.40002441406
1304.98392286332	1037.19995117188
1305.64162921948	1028.40002441406
1306.29925106476	1039.40002441406
1306.95678840677	1041.40002441406
1307.61424125312	1030.19995117188
1308.27160961145	1032.40002441406
1308.92889348934	1038.59997558594
1309.58609289443	1030.19995117188
1310.24320783432	1034.59997558594
1310.90023831664	1032.59997558594
1311.55718434898	1033.59997558594
1312.21404593897	1039.80004882813
1312.87082309421	1032.19995117188
1313.52751582233	1028.59997558594
1314.18412413092	1040.80004882813
1314.84064802761	1029.40002441406
1315.49708752	1043.40002441406
1316.1534426157	1033
1316.80971332233	1036.80004882813
1317.46589964749	1034.40002441406
1318.1220015988	1034.59997558594
1318.77801918386	1029.80004882813
1319.43395241028	1029
1320.08980128567	1032.80004882813
1320.74556581764	1027.40002441406
1321.4012460138	1025.80004882813
1322.05684188176	1031.40002441406
1322.71235342911	1033.59997558594
1323.36778066347	1034.59997558594
1324.02312359245	1031.80004882813
1324.67838222365	1038.80004882813
1325.33355656468	1028.59997558594
1325.98864662314	1030.19995117188
1326.64365240663	1030.19995117188
1327.29857392277	1027.19995117188
1327.95341117915	1037.19995117188
1328.60816418339	1037.40002441406
1329.26283294308	1026.80004882813
1329.91741746582	1032
1330.57191775923	1034.40002441406
1331.2263338309	1035.59997558594
1331.88066568843	1039.19995117188
1332.53491333943	1032
1333.1890767915	1025.40002441406
1333.84315605224	1028.40002441406
1334.49715112925	1034.19995117188
1335.15106203013	1033.59997558594
1335.80488876249	1036.80004882813
1336.45863133391	1038.59997558594
1337.112289752	1039.19995117188
1337.76586402437	1036.80004882813
1338.4193541586	1034
1339.0727601623	1034.80004882813
1339.72608204306	1035
1340.37931980849	1037.19995117188
1341.03247346617	1040.19995117188
1341.68554302372	1039.59997558594
1342.33852848871	1036
1342.99142986876	1037.19995117188
1343.64424717145	1030.80004882813
1344.29698040438	1032.59997558594
1344.94962957515	1029.19995117188
1345.60219469135	1035.59997558594
1346.25467576058	1042.40002441406
1346.90707279042	1030.80004882813
1347.55938578848	1035.40002441406
1348.21161476235	1040.59997558594
1348.86375971962	1034.19995117188
1349.51582066787	1036.80004882813
1350.16779761472	1040.80004882813
1350.81969056774	1040.80004882813
1351.47149953453	1037.19995117188
1352.12322452269	1037.80004882813
1352.77486553979	1038.19995117188
1353.42642259344	1041.59997558594
1354.07789569122	1042.19995117188
1354.72928484072	1037.59997558594
1355.38059004953	1040.80004882813
1356.03181132525	1041
1356.68294867545	1037.80004882813
1357.33400210773	1044.19995117188
1357.98497162968	1039.80004882813
1358.63585724889	1035.19995117188
1359.28665897294	1039.40002441406
1359.93737680942	1042.40002441406
1360.58801076591	1052.19995117188
1361.23856085001	1044.19995117188
1361.88902706929	1043.59997558594
1362.53940943135	1046.19995117188
1363.18970794377	1050.19995117188
1363.83992261413	1045.59997558594
1364.49005345003	1044.59997558594
1365.14010045904	1042.40002441406
1365.79006364874	1039.59997558594
1366.43994302673	1046.19995117188
1367.08973860058	1044.19995117188
1367.73945037788	1038.19995117188
1368.38907836621	1036.19995117188
1369.03862257315	1036.80004882813
1369.68808300629	1032.80004882813
1370.3374596732	1026.40002441406
1370.98675258148	1025.80004882813
1371.63596173868	1031.80004882813
1372.28508715241	1035.80004882813
1372.93412883024	1032.19995117188
1373.58308677974	1033.19995117188
1374.2319610085	1026.80004882813
1374.8807515241	1024.59997558594
1375.52945833412	1026.80004882813
1376.17808144612	1023
1376.82662086771	1013.79998779297
1377.47507660644	1011.20001220703
1378.12344866989	1017
1378.77173706565	1012
1379.41994180129	1018.20001220703
1380.06806288439	1020.79998779297
1380.71610032252	1018.20001220703
1381.36405412326	1019.59997558594
1382.01192429419	1023.40002441406
1382.65971084287	1021
1383.30741377688	1024.40002441406
1383.95503310381	1021
1384.60256883121	1021
1385.25002096667	1018
1385.89738951775	1019.79998779297
1386.54467449204	1020.20001220703
1387.19187589709	1022.40002441406
1387.8389937405	1025.59997558594
1388.48602802982	1022.79998779297
1389.13297877262	1021
1389.77984597649	1022
1390.42662964899	1018.59997558594
1391.07332979768	1021.40002441406
1391.71994643015	1021.79998779297
1392.36647955395	1022.79998779297
1393.01292917667	1021.79998779297
1393.65929530586	1022
1394.3055779491	1017.79998779297
1394.95177711395	1017.40002441406
1395.59789280799	1022.40002441406
1396.24392503877	1010.59997558594
1396.88987381387	1016.20001220703
1397.53573914086	1016.79998779297
1398.1815210273	1019
1398.82721948075	1021.79998779297
1399.47283450878	1022.40002441406
1400.11836611897	1016.40002441406
1400.76381431886	1008.79998779297
1401.40917911603	1015.40002441406
1402.05446051805	1014.40002441406
1402.69965853247	1013.40002441406
1403.34477316686	1011.79998779297
1403.98980442878	1018.20001220703
1404.6347523258	1023.20001220703
1405.27961686548	1012.20001220703
1405.92439805538	1012.59997558594
1406.56909590306	1008
1407.21371041608	1013.59997558594
1407.85824160202	1016
1408.50268946841	1021.59997558594
1409.14705402284	1013.79998779297
1409.79133527285	1015.20001220703
1410.43553322601	1020.20001220703
1411.07964788987	1017.59997558594
1411.723679272	1021.20001220703
1412.36762737996	1020.40002441406
1413.01149222129	1021.59997558594
1413.65527380357	1019.79998779297
1414.29897213435	1015
1414.94258722118	1018.20001220703
1415.58611907163	1018
1416.22956769325	1015.59997558594
1416.87293309359	1025.80004882813
1417.51621528021	1020.79998779297
1418.15941426067	1024
1418.80253004253	1026.40002441406
1419.44556263333	1023.20001220703
1420.08851204063	1022.40002441406
1420.731378272	1028.80004882813
1421.37416133497	1021.40002441406
1422.0168612371	1020.79998779297
1422.65947798596	1021.59997558594
1423.30201158908	1017.59997558594
1423.94446205403	1017
1424.58682938835	1021.20001220703
1425.2291135996	1024.19995117188
1425.87131469532	1018.40002441406
1426.51343268308	1015.59997558594
1427.15546757042	1025.59997558594
1427.79741936488	1022.40002441406
1428.43928807403	1026.59997558594
1429.0810737054	1022.59997558594
1429.72277626656	1022.40002441406
1430.36439576504	1028.80004882813
1431.00593220841	1026.40002441406
1431.64738560419	1028.40002441406
1432.28875595995	1021.59997558594
1432.93004328324	1019.79998779297
1433.57124758159	1019
1434.21236886255	1012.79998779297
1434.85340713368	1019.20001220703
1435.49436240252	1012.20001220703
1436.13523467661	1021
1436.77602396349	1019.79998779297
1437.41673027073	1020.40002441406
1438.05735360585	1023.20001220703
1438.69789397641	1019.79998779297
1439.33835138994	1018.40002441406
1439.978725854	1027.40002441406
1440.61901737612	1023.40002441406
1441.25922596385	1023.40002441406
1441.89935162473	1027.40002441406
1442.53939436631	1022.40002441406
1443.17935419612	1031.19995117188
1443.81923112171	1031.19995117188
1444.45902515061	1022.79998779297
1445.09873629038	1022.79998779297
1445.73836454854	1023.79998779297
1446.37790993265	1026.59997558594
1447.01737245024	1029.19995117188
1447.65675210885	1027.40002441406
1448.29604891602	1021
1448.93526287928	1022.40002441406
1449.57439400618	1021.40002441406
1450.21344230426	1025.59997558594
1450.85240778105	1026.59997558594
1451.49129044409	1023.20001220703
1452.13009030092	1022.40002441406
1452.76880735907	1020
1453.40744162608	1023
1454.04599310949	1022
1454.68446181683	1021.79998779297
1455.32284775564	1020.40002441406
1455.96115093345	1025.19995117188
1456.5993713578	1019.20001220703
1457.23750903623	1022.20001220703
1457.87556397626	1022
1458.51353618543	1015.40002441406
1459.15142567127	1012.79998779297
1459.78923244132	1017.20001220703
1460.42695650311	1020
1461.06459786417	1021.79998779297
1461.70215653203	1021.59997558594
1462.33963251423	1016
1462.97702581829	1013.40002441406
1463.61433645175	1016.40002441406
1464.25156442214	1014.79998779297
1464.88870973699	1012.40002441406
1465.52577240382	1015
1466.16275243017	1017.79998779297
1466.79964982356	1022.20001220703
1467.43646459154	1026.59997558594
1468.07319674161	1020.40002441406
1468.70984628132	1020.59997558594
1469.34641321818	1020.79998779297
1469.98289755974	1023.59997558594
1470.6192993135	1021.20001220703
1471.25561848701	1023
1471.89185508779	1013.59997558594
1472.52800912336	1011.59997558594
1473.16408060124	1013.20001220703
1473.80006952897	1013.59997558594
1474.43597591407	1012.20001220703
1475.07179976406	1011.79998779297
1475.70754108647	1014.40002441406
1476.34319988883	1019.59997558594
1476.97877617865	1015.20001220703
1477.61426996345	1024.80004882813
1478.24968125077	1026.40002441406
1478.88501004812	1025.40002441406
1479.52025636303	1018.40002441406
1480.15542020302	1021.59997558594
1480.79050157561	1013
1481.42550048832	1018
1482.06041694867	1014
1482.69525096418	1006.20001220703
1483.33000254237	1015.40002441406
1483.96467169077	1009.40002441406
1484.59925841689	1011.59997558594
1485.23376272825	1019.20001220703
1485.86818463237	1018.20001220703
1486.50252413677	1022.59997558594
1487.13678124896	1018.79998779297
1487.77095597646	1025.59997558594
1488.4050483268	1016.59997558594
1489.03905830749	1023.40002441406
1489.67298592604	1017.40002441406
1490.30683118996	1013.40002441406
1490.9405941068	1011.59997558594
1491.57427468403	1015.59997558594
1492.2078729292	1021.79998779297
1492.84138884981	1019.20001220703
1493.47482245338	1018.59997558594
1494.10817374742	1020.40002441406
1494.74144273944	1015
1495.37462943696	1018.59997558594
1496.0077338475	1019.20001220703
1496.64075597856	1023.79998779297
1497.27369583765	1025
1497.9065534323	1024
1498.53932877001	1027
1499.17202185829	1029.59997558594
1499.80463270465	1028
1500.43716131661	1030.40002441406
1501.06960770167	1027.59997558594
1501.70197186735	1028.19995117188
1502.33425382116	1024
1502.96645357059	1030.59997558594
1503.59857112317	1025.80004882813
1504.23060648641	1023.59997558594
1504.8625596678	1027
1505.49443067486	1025.59997558594
1506.1262195151	1028.80004882813
1506.75792619602	1022.59997558594
1507.38955072513	1034.40002441406
1508.02109310993	1029.40002441406
1508.65255335794	1031
1509.28393147666	1023
1509.91522747359	1032.40002441406
1510.54644135624	1033.40002441406
1511.17757313212	1035
1511.80862280872	1029.59997558594
1512.43959039356	1030.59997558594
1513.07047589413	1023.79998779297
1513.70127931795	1022.79998779297
1514.33200067251	1029.59997558594
1514.96263996531	1023
1515.59319720386	1027.40002441406
1516.22367239567	1022.40002441406
1516.85406554822	1016
1517.48437666903	1012.40002441406
1518.1146057656	1020.40002441406
1518.74475284542	1018
1519.374817916	1012.79998779297
1520.00480098483	1011
1520.63470205942	1014
1521.26452114726	1015
1521.89425825586	1018.79998779297
1522.52391339271	1019.59997558594
1523.15348656531	1020.59997558594
1523.78297778116	1019.79998779297
1524.41238704775	1017.79998779297
1525.04171437259	1017.79998779297
1525.67095976317	1019
1526.30012322699	1020
1526.92920477154	1019.59997558594
1527.55820440432	1017.59997558594
1528.18712213283	1018.79998779297
1528.81595796455	1017.20001220703
1529.44471190699	1026.59997558594
1530.07338396764	1025.19995117188
1530.70197415399	1020.40002441406
1531.33048247353	1013.79998779297
1531.95890893377	1014
1532.58725354219	1011.59997558594
1533.21551630629	1016.40002441406
1533.84369723356	1017.20001220703
1534.47179633148	1013.59997558594
1535.09981360757	1019.20001220703
1535.72774906929	1010.40002441406
1536.35560272415	1009
1536.98337457963	1008.40002441406
1537.61106464323	1008.59997558594
1538.23867292243	1009.20001220703
1538.86619942473	1011.59997558594
1539.49364415762	1015.20001220703
1540.12100712857	1008.59997558594
1540.74828834509	1008
1541.37548781466	1010.40002441406
1542.00260554478	1009.79998779297
1542.62964154291	1009.40002441406
1543.25659581655	1011.79998779297
1543.8834683732	1010.59997558594
1544.51025922034	1011.40002441406
1545.13696836544	1003.40002441406
1545.76359581601	1006.20001220703
1546.39014157952	1008.79998779297
1547.01660566345	1001.20001220703
1547.64298807531	1008.79998779297
1548.26928882255	1002.59997558594
1548.89550791269	1000
1549.52164535318	998.200012207031
1550.14770115153	999.799987792969
1550.77367531521	1000.40002441406
1551.39956785171	996.599975585938
1552.0253787685	1006.20001220703
1552.65110807307	1000
1553.2767557729	996.599975585938
1553.90232187548	1000.59997558594
1554.52780638828	1001.40002441406
1555.15320931879	999.400024414063
1555.77853067447	1004
1556.40377046282	1000.79998779297
1557.02892869132	1003.79998779297
1557.65400536744	1005.40002441406
1558.27900049866	999.400024414063
1558.90391409247	1008.40002441406
1559.52874615633	1011.59997558594
1560.15349669773	1008.79998779297
1560.77816572414	1010.79998779297
1561.40275324305	1009.20001220703
1562.02725926192	1007.40002441406
1562.65168378824	1014.20001220703
1563.27602682948	1009.20001220703
1563.90028839311	1015.20001220703
1564.52446848662	1010.59997558594
1565.14856711748	1011.59997558594
1565.77258429316	1011.79998779297
1566.39652002113	1015.59997558594
1567.02037430887	1016.59997558594
1567.64414716387	1015.59997558594
1568.26783859357	1014.40002441406
1568.89144860547	1012.79998779297
1569.51497720703	1010.59997558594
1570.13842440573	1011.40002441406
1570.76179020904	1007
1571.38507462442	1010.40002441406
1572.00827765936	1014
1572.63139932132	1011.59997558594
1573.25443961777	1012.20001220703
1573.87739855618	1006.40002441406
1574.50027614402	1012
1575.12307238877	1014.20001220703
1575.74578729789	1010.79998779297
1576.36842087885	1021.79998779297
1576.99097313912	1011.40002441406
1577.61344408616	1012.59997558594
1578.23583372745	1008.59997558594
1578.85814207046	1011.79998779297
1579.48036912264	1013.79998779297
1580.10251489147	1013.40002441406
1580.72457938441	1018.20001220703
1581.34656260893	1008
1581.9684645725	1004.59997558594
1582.59028528258	1009
1583.21202474663	1005.40002441406
1583.83368297212	1007.79998779297
1584.45525996652	1011.40002441406
1585.07675573728	1001.79998779297
1585.69817029188	1002.59997558594
1586.31950363778	1005.79998779297
1586.94075578243	1001.20001220703
1587.5619267333	998.599975585938
1588.18301649786	1003
1588.80402508357	998
1589.42495249788	1001.20001220703
1590.04579874826	1003
1590.66656384217	1005.79998779297
1591.28724778707	999.799987792969
1591.90785059042	1002
1592.52837225968	1004.20001220703
1593.14881280232	1001.59997558594
1593.76917222578	1001.79998779297
1594.38945053753	1003.79998779297
1595.00964774502	1003.40002441406
1595.62976385573	999.599975585938
1596.24979887709	1001.20001220703
1596.86975281657	1002.59997558594
1597.48962568164	1002.40002441406
1598.10941747974	1001.40002441406
1598.72912821832	999.599975585938
1599.34875790486	1004.20001220703
1599.9683065468	1006.59997558594
1600.58777415159	1005
1601.2071607267	996.799987792969
1601.82646627958	998.200012207031
1602.44569081769	999
1603.06483434846	996
1603.68389687937	992.799987792969
1604.30287841786	990.200012207031
1604.92177897139	992.599975585938
1605.54059854741	990.400024414063
1606.15933715337	992
1606.77799479672	996.799987792969
1607.39657148492	998
1608.01506722542	998
1608.63348202566	997
1609.2518158931	998.200012207031
1609.87006883519	990.599975585938
1610.48824085939	998.599975585938
1611.10633197312	1001.79998779297
1611.72434218386	994
1612.34227149904	991.799987792969
1612.96011992612	993.799987792969
1613.57788747254	989
1614.19557414575	991.400024414063
1614.8131799532	992
1615.43070490234	990.200012207031
1616.04814900061	988.400024414063
1616.66551225545	993.599975585938
1617.28279467433	990.200012207031
1617.89999626467	985.400024414063
1618.51711703393	983.799987792969
1619.13415698955	987.400024414063
1619.75111613898	995.200012207031
1620.36799448966	995.599975585938
1620.98479204903	995
1621.60150882455	997.400024414063
1622.21814482364	1004.20001220703
1622.83470005376	998
1623.45117452235	999.400024414063
1624.06756823685	1001.79998779297
1624.6838812047	999.799987792969
1625.30011343335	997.400024414063
1625.91626493022	995.599975585938
1626.53233570278	998.599975585938
1627.14832575845	996.200012207031
1627.76423510468	991.799987792969
1628.38006374891	991.400024414063
1628.99581169857	993.200012207031
1629.61147896111	988
1630.22706554397	994.400024414063
1630.84257145457	989.200012207031
1631.45799670038	997.200012207031
1632.07334128881	991.200012207031
1632.6886052273	994.599975585938
1633.3037885233	995.799987792969
1633.91889118425	988.599975585938
1634.53391321757	988.799987792969
1635.1488546307	987.200012207031
1635.76371543108	983.799987792969
1636.37849562616	979.799987792969
1636.99319522335	981.200012207031
1637.60781423009	982.200012207031
1638.22235265383	983
1638.83681050198	992.599975585938
1639.451187782	989
1640.0654845013	987.599975585938
1640.67970066734	987.200012207031
1641.29383628752	992.200012207031
1641.9078913693	990.200012207031
1642.5218659201	993.599975585938
1643.13575994735	995.200012207031
1643.74957345849	992.799987792969
1644.36330646094	996.200012207031
1644.97695896213	989.599975585938
1645.59053096951	993.200012207031
1646.20402249049	1000
1646.8174335325	1002.20001220703
1647.43076410298	1004.79998779297
1648.04401420935	1004.59997558594
1648.65718385905	1004.40002441406
1649.2702730595	1009
1649.88328181812	1004.79998779297
1650.49621014236	1004.40002441406
1651.10905803963	1006
1651.72182551735	1002.59997558594
1652.33451258297	999.200012207031
1652.9471192439	989.599975585938
1653.55964550757	995.799987792969
1654.1720913814	993.599975585938
1654.78445687283	989
1655.39674198926	981.799987792969
1656.00894673814	979.799987792969
1656.62107112688	982.200012207031
1657.23311516291	982.400024414063
1657.84507885365	979
1658.45696220652	979.400024414063
1659.06876522895	983.400024414063
1659.68048792835	977.799987792969
1660.29213031217	981.400024414063
1660.90369238779	976.400024414063
1661.51517416267	970.400024414063
1662.12657564421	977.799987792969
1662.73789683984	970
1663.34913775697	965.599975585938
1663.96029840303	965.400024414063
1664.57137878544	963
1665.18237891161	963.799987792969
1665.79329878897	965.400024414063
1666.40413842493	964.400024414063
1667.01489782691	964.200012207031
1667.62557700233	962.799987792969
1668.2361759586	962
1668.84669470315	965.200012207031
1669.4571332434	964.599975585938
1670.06749158675	963.400024414063
1670.67776974062	968.400024414063
1671.28796771243	967
1671.8980855096	965.200012207031
1672.50812313954	967.400024414063
1673.11808060967	967.200012207031
1673.72795792739	960.599975585938
1674.33775510013	962
1674.9474721353	962.200012207031
1675.55710904031	963
1676.16666582257	954.400024414063
1676.7761424895	957.799987792969
1677.38553904851	960
1677.99485550702	964.799987792969
1678.60409187243	963.400024414063
1679.21324815215	962.599975585938
1679.8223243536	963
1680.43132048419	961.200012207031
1681.04023655132	960
1681.64907256241	960.400024414063
1682.25782852487	966
1682.86650444611	959.200012207031
1683.47510033353	959.400024414063
1684.08361619455	961.200012207031
1684.69205203657	962.599975585938
1685.300407867	968.400024414063
1685.90868369325	963.400024414063
1686.51687952272	965.599975585938
1687.12499536283	964
1687.73303122098	959
1688.34098710457	957
1688.94886302101	957.599975585938
1689.55665897772	960
1690.16437498208	958.400024414063
1690.77201104152	961.400024414063
1691.37956716342	953
1691.9870433552	959.200012207031
1692.59443962426	955.400024414063
1693.20175597801	956.200012207031
1693.80899242384	960.599975585938
1694.41614896916	958.200012207031
1695.02322562138	953.400024414063
1695.63022238789	954.799987792969
1696.23713927609	956.799987792969
1696.8439762934	957.200012207031
1697.4507334472	953
1698.05741074491	950.799987792969
1698.66400819391	954.400024414063
1699.27052580161	952
1699.87696357542	951
1700.48332152272	950
1701.08959965092	951.200012207031
1701.69579796742	948.599975585938
1702.30191647962	956.799987792969
1702.90795519491	955.200012207031
1703.51391412069	952.400024414063
1704.11979326437	949.200012207031
1704.72559263332	954.599975585938
1705.33131223496	957.200012207031
1705.93695207668	946
1706.54251216588	950.599975585938
1707.14799250994	945.200012207031
1707.75339311628	949
1708.35871399227	949.400024414063
1708.96395514532	943.400024414063
1709.56911658282	946.799987792969
