634.948122577771	1157
635.690341530823	1161.59997558594
636.43246851086	1152.59997558594
637.174503525845	1154.80004882813
637.916446583745	1166.80004882813
638.658297692538	1160
639.400056860179	1165.80004882813
640.141724094637	1161.59997558594
640.883299403885	1165
641.62478279588	1158
642.366174278594	1157.80004882813
643.107473859989	1156.80004882813
643.848681548029	1149.19995117188
644.589797350679	1152.40002441406
645.330821275901	1160.40002441406
646.071753331665	1144
646.812593525922	1148.19995117188
647.553341866646	1145.40002441406
648.293998361798	1159.80004882813
649.03456301933	1149.40002441406
649.775035847216	1159.40002441406
650.515416853409	1159
651.255706045874	1158.80004882813
651.995903432568	1158
652.736009021453	1155.19995117188
653.476022820486	1166.40002441406
654.215944837629	1153.80004882813
654.955775080842	1153.80004882813
655.695513558081	1156.59997558594
656.435160277301	1161.40002441406
657.174715246465	1157.59997558594
657.914178473527	1153.19995117188
658.653549966449	1147.19995117188
659.392829733176	1149.80004882813
660.132017781678	1154.19995117188
660.871114119901	1151.80004882813
661.610118755803	1160.40002441406
662.349031697343	1158
663.087852952468	1163.19995117188
663.826582529139	1159.80004882813
664.565220435305	1163.19995117188
665.30376667892	1161
666.04222126794	1161.80004882813
666.780584210316	1161.80004882813
667.518855514	1157.19995117188
668.25703518694	1161.40002441406
668.995123237096	1159
669.733119672413	1162.19995117188
670.471024500842	1157.40002441406
671.208837730333	1149.40002441406
671.946559368839	1172.59997558594
672.684189424308	1168.80004882813
673.421727904689	1165.19995117188
674.159174817929	1160
674.896530171977	1175.80004882813
675.633793974786	1164.59997558594
676.370966234295	1167.19995117188
677.108046958461	1162
677.845036155219	1161.19995117188
678.581933832528	1160.40002441406
679.318739998323	1162.59997558594
680.055454660558	1157
680.792077827172	1168.80004882813
681.528609506116	1160.59997558594
682.265049705331	1158.80004882813
683.001398432759	1155
683.737655696349	1161.80004882813
684.47382150404	1158.59997558594
685.20989586378	1163.40002441406
685.945878783503	1166
686.68177027116	1159.59997558594
687.417570334688	1169.40002441406
688.153278982032	1162.59997558594
688.888896221129	1153.19995117188
689.624422059921	1161.19995117188
690.359856506349	1160.59997558594
691.095199568354	1169.40002441406
691.830451253874	1171.59997558594
692.565611570844	1179.19995117188
693.300680527212	1180.59997558594
694.03565813091	1188
694.770544389877	1172.59997558594
695.505339312053	1179.80004882813
696.240042905372	1176.40002441406
696.974655177772	1161.19995117188
697.70917613719	1163.19995117188
698.443605791561	1163.59997558594
699.177944148826	1166.59997558594
699.912191216909	1168.40002441406
700.646347003755	1159.80004882813
701.380411517295	1166.59997558594
702.114384765465	1169
702.848266756195	1169.59997558594
703.582057497421	1164.40002441406
704.315756997074	1170
705.049365263089	1157
705.782882303399	1166.59997558594
706.516308125936	1157.19995117188
707.249642738626	1165.19995117188
707.982886149403	1174.59997558594
708.716038366204	1177
709.449099396949	1179.59997558594
710.182069249577	1180.80004882813
710.914947932009	1178
711.647735452181	1186
712.380431818022	1183.40002441406
713.113037037454	1180.59997558594
713.845551118411	1178.80004882813
714.577974068818	1178.59997558594
715.310305896604	1175.40002441406
716.042546609694	1180.59997558594
716.774696216013	1181.40002441406
717.506754723493	1184.80004882813
718.238722140053	1184.40002441406
718.970598473624	1177.40002441406
719.702383732127	1177.40002441406
720.43407792349	1177.59997558594
721.165681055634	1174.80004882813
721.897193136486	1172.19995117188
722.628614173966	1173.59997558594
723.359944175997	1172
724.091183150505	1179.40002441406
724.822331105412	1180.80004882813
725.553388048638	1189.40002441406
726.284353988106	1179.19995117188
727.015228931734	1169.80004882813
727.746012887449	1168.80004882813
728.476705863162	1162.59997558594
729.207307866803	1157
729.937818906289	1173.19995117188
730.668238989535	1171
731.398568124459	1178.80004882813
732.128806318986	1171
732.858953581034	1174.19995117188
733.589009918514	1175.80004882813
734.318975339348	1180.40002441406
735.048849851452	1168.40002441406
735.778633462744	1169.80004882813
736.508326181137	1170.59997558594
737.237928014549	1168.80004882813
737.967438970897	1176.40002441406
738.696859058095	1171.59997558594
739.426188284054	1172.19995117188
740.155426656692	1175.59997558594
740.884574183922	1177
741.613630873659	1184.59997558594
742.342596733815	1181.40002441406
743.071471772302	1177
743.800255997034	1187.59997558594
744.528949415921	1190.59997558594
745.257552036877	1192.40002441406
745.986063867811	1196.80004882813
746.714484916638	1195.19995117188
747.442815191261	1181.80004882813
748.171054699597	1178.80004882813
748.899203449554	1173
749.627261449039	1171
750.355228705966	1177
751.083105228239	1169
751.810891023765	1166.80004882813
752.538586100459	1173.59997558594
753.266190466218	1169.19995117188
753.99370412896	1174.19995117188
754.721127096582	1174
755.448459377	1175.40002441406
756.175700978114	1173.40002441406
756.902851907828	1172
757.629912174055	1163.40002441406
758.356881784688	1178.59997558594
759.083760747639	1165
759.810549070817	1167.59997558594
760.537246762113	1173.40002441406
761.263853829442	1168.59997558594
761.990370280698	1177.59997558594
762.716796123791	1173.40002441406
763.443131366618	1177.19995117188
764.169376017082	1180.59997558594
764.895530083085	1184.40002441406
765.621593572527	1190.59997558594
766.347566493312	1189.80004882813
767.073448853336	1196.40002441406
767.799240660502	1202.40002441406
768.524941922707	1214.19995117188
769.250552647854	1205.19995117188
769.976072843836	1212.19995117188
770.701502518551	1209.59997558594
771.426841679905	1213.19995117188
772.152090335793	1222.59997558594
772.877248494107	1217.40002441406
773.602316162747	1226.19995117188
774.327293349609	1229.19995117188
775.052180062592	1223.59997558594
775.776976309589	1223.40002441406
776.501682098496	1205.80004882813
777.226297437206	1206.40002441406
777.950822333616	1203.40002441406
778.675256795621	1195.19995117188
779.399600831111	1199
780.123854447983	1192.40002441406
780.84801765413	1199
781.572090457441	1184
782.296072865811	1188.19995117188
783.019964887131	1199
783.743766529297	1185.40002441406
784.467477800194	1184.40002441406
785.191098707719	1190.80004882813
785.914629259756	1183.59997558594
786.638069464194	1183.59997558594
787.361419328932	1190.59997558594
788.084678861852	1181.19995117188
788.807848070845	1188.19995117188
789.530926963798	1192.40002441406
790.253915548602	1185.40002441406
790.976813833144	1184.59997558594
791.699621825307	1190.59997558594
792.422339532986	1183.80004882813
793.144966964061	1178.59997558594
793.86750412642	1187.40002441406
794.589951027946	1194.59997558594
795.312307676536	1186.59997558594
796.03457408006	1184.59997558594
796.756750246417	1191.19995117188
797.478836183477	1185.59997558594
798.200831899137	1177.80004882813
798.92273740127	1182
799.644552697769	1179.19995117188
800.36627779651	1179.19995117188
801.087912705374	1184.59997558594
801.809457432251	1182.19995117188
802.530911985017	1187.19995117188
803.252276371558	1182.40002441406
803.973550599748	1188.59997558594
804.694734677472	1177.19995117188
805.415828612611	1183.40002441406
806.136832413045	1180
806.857746086646	1180.19995117188
807.578569641305	1172.59997558594
808.299303084892	1180.19995117188
809.019946425289	1179.19995117188
809.740499670372	1170.59997558594
810.460962828022	1174.19995117188
811.181335906114	1174.19995117188
811.901618912524	1177.19995117188
812.621811855131	1177
813.341914741809	1188.80004882813
814.061927580433	1179.19995117188
814.781850378881	1172.59997558594
815.501683145025	1177.59997558594
816.221425886743	1181.80004882813
816.941078611903	1174.19995117188
817.660641328387	1180.40002441406
818.380114044065	1176.40002441406
819.099496766808	1169.19995117188
819.818789504492	1174.59997558594
820.53799226499	1175.59997558594
821.257105056168	1176.40002441406
821.976127885904	1168
822.695060762064	1175.80004882813
823.413903692525	1178
824.132656685151	1182.80004882813
824.851319747817	1181.59997558594
825.569892888388	1177.59997558594
826.288376114739	1182
827.006769434737	1171.80004882813
827.725072856249	1171.40002441406
828.443286387142	1170
829.161410035285	1161
829.87944380855	1166.59997558594
830.597387714798	1175.59997558594
831.315241761898	1175.59997558594
832.033005957715	1179.40002441406
832.750680310119	1179
833.468264826969	1181.59997558594
834.18575951614	1173.59997558594
834.903164385486	1168.59997558594
835.620479442878	1174
836.337704696181	1174.59997558594
837.054840153255	1165.59997558594
837.771885821962	1179
838.488841710172	1174.59997558594
839.20570782574	1177.59997558594
839.922484176531	1173.59997558594
840.639170770409	1178.59997558594
841.355767615231	1170.19995117188
842.072274718864	1181.19995117188
842.788692089164	1180
843.505019733993	1173.40002441406
844.221257661209	1173.40002441406
844.937405878676	1185.19995117188
845.65346439425	1173.80004882813
846.369433215789	1169.59997558594
847.085312351156	1178.59997558594
847.801101808205	1179.19995117188
848.516801594793	1171.59997558594
849.232411718781	1178.80004882813
849.947932188021	1167.59997558594
850.663363010376	1168.19995117188
851.378704193698	1176.59997558594
852.093955745842	1169.59997558594
852.809117674669	1175
853.524189988028	1177.59997558594
854.239172693778	1182.80004882813
854.954065799768	1179.80004882813
855.668869313857	1174.80004882813
856.383583243899	1174
857.098207597743	1179.19995117188
857.812742383246	1178.40002441406
858.527187608255	1178.80004882813
859.241543280628	1168
859.955809408218	1171
860.669985998868	1173.59997558594
861.384073060437	1174.80004882813
862.098070600772	1178.40002441406
862.811978627724	1180.80004882813
863.52579714914	1176.80004882813
864.239526172873	1179.80004882813
864.953165706776	1176.19995117188
865.666715758687	1170.59997558594
866.380176336464	1181.80004882813
867.093547447951	1180.19995117188
867.806829100996	1177.80004882813
868.520021303444	1177.40002441406
869.233124063149	1172.80004882813
869.94613738795	1180
870.659061285693	1178
871.37189576423	1179.59997558594
872.084640831403	1174.19995117188
872.797296495057	1170.19995117188
873.509862763039	1165.40002441406
874.22233964319	1167
874.934727143353	1169.80004882813
875.647025271374	1168.80004882813
876.359234035097	1174
877.071353442361	1181
877.783383501015	1175.59997558594
878.495324218895	1167.80004882813
879.207175603844	1161.59997558594
879.918937663705	1157.19995117188
880.630610406318	1164.19995117188
881.342193839524	1165.40002441406
882.053687971161	1156.80004882813
882.765092809069	1171.59997558594
883.476408361091	1169
884.187634635066	1171.59997558594
884.898771638828	1169.40002441406
885.609819380221	1168
886.320777867076	1163.59997558594
887.031647107236	1162.59997558594
887.742427108536	1167.19995117188
888.453117878816	1171.80004882813
889.16371942591	1172
889.874231757652	1185.19995117188
890.584654881883	1174
891.294988806434	1169
892.005233539141	1164.80004882813
892.715389087837	1164.59997558594
893.42545546036	1170
894.135432664543	1174.40002441406
894.845320708216	1164.40002441406
895.555119599216	1166.80004882813
896.264829345375	1178.19995117188
896.974449954526	1171.80004882813
897.683981434496	1176.80004882813
898.393423793125	1168.80004882813
899.102777038235	1168.59997558594
899.812041177664	1168.40002441406
900.521216219239	1170.40002441406
901.230302170793	1164
901.939299040155	1165.80004882813
902.64820683515	1173.19995117188
903.357025563612	1176.59997558594
904.065755233368	1176.40002441406
904.774395852247	1182
905.482947428076	1190.80004882813
906.191409968682	1180.40002441406
906.899783481897	1183.80004882813
907.608067975538	1188.19995117188
908.316263457443	1171.19995117188
909.02436993543	1173.80004882813
909.732387417327	1180.80004882813
910.440315910959	1172.40002441406
911.148155424154	1167.19995117188
911.855905964731	1166.19995117188
912.563567540521	1162
913.271140159339	1172.80004882813
913.978623829017	1177.40002441406
914.686018557374	1169.40002441406
915.393324352237	1177.40002441406
916.100541221421	1176.40002441406
916.807669172752	1175
917.514708214054	1173.19995117188
918.221658353142	1173.59997558594
918.928519597843	1181.59997558594
919.635291955976	1180.40002441406
920.341975435358	1177
921.048570043813	1183
921.75507578916	1179
922.461492679212	1182
923.167820721795	1192.80004882813
923.874059924726	1191.19995117188
924.58021029582	1190.59997558594
925.286271842893	1193
925.992244573769	1196.19995117188
926.698128496262	1197
927.403923618184	1183.59997558594
928.109629947355	1170.80004882813
928.815247491593	1167.80004882813
929.520776258708	1172
930.226216256519	1176.80004882813
930.931567492841	1167.40002441406
931.636829975482	1179.80004882813
932.342003712263	1181
933.047088710995	1166.19995117188
933.752084979491	1177
934.456992525564	1174.80004882813
935.161811357024	1170.19995117188
935.866541481688	1172.40002441406
936.571182907363	1166.59997558594
937.275735641861	1167.19995117188
937.980199692995	1162.40002441406
938.684575068572	1156.19995117188
939.388861776411	1164
940.093059824311	1156.19995117188
940.797169220085	1162
941.501189971544	1160.40002441406
942.205122086495	1158
942.908965572751	1162.40002441406
943.612720438111	1163.59997558594
944.316386690391	1164.59997558594
945.019964337391	1158.40002441406
945.723453386924	1167.80004882813
946.426853846795	1167
947.130165724808	1166.40002441406
947.83338902877	1155.80004882813
948.536523766488	1155.19995117188
949.239569945764	1161.40002441406
949.942527574402	1167
950.64539666021	1166
951.348177210993	1168.40002441406
952.050869234548	1158.80004882813
952.753472738683	1159.40002441406
953.455987731199	1160.40002441406
954.158414219898	1155.19995117188
954.860752212587	1162.19995117188
955.563001717061	1150.59997558594
956.265162741124	1148
956.967235292576	1151.80004882813
957.669219379224	1150.59997558594
958.371115008857	1161.80004882813
959.072922189283	1155.59997558594
959.774640928301	1160.40002441406
960.476271233708	1155.40002441406
961.177813113301	1159.40002441406
961.879266574882	1161.19995117188
962.580631626248	1165
963.281908275194	1154.40002441406
963.98309652952	1159.80004882813
964.684196397022	1148.59997558594
965.3852078855	1149.19995117188
966.086131002745	1151.40002441406
966.786965756555	1153.40002441406
967.487712154726	1154.40002441406
968.188370205055	1152.59997558594
968.888939915331	1152.40002441406
969.589421293352	1156
970.289814346909	1160.80004882813
970.990119083801	1162.80004882813
971.690335511819	1156.40002441406
972.39046363875	1162.59997558594
973.090503472398	1158.59997558594
973.790455020545	1158.59997558594
974.490318290987	1154.59997558594
975.190093291516	1156.59997558594
975.889780029923	1157.59997558594
976.589378513998	1153.80004882813
977.288888751527	1157
977.988310750308	1151.59997558594
978.687644518122	1155.19995117188
979.386890062767	1164.40002441406
980.086047392025	1173.40002441406
980.785116513689	1161.40002441406
981.484097435542	1158.80004882813
982.182990165377	1160.19995117188
982.88179471098	1148
983.580511080137	1143.80004882813
984.279139280632	1157
984.977679320253	1148.59997558594
985.67613120679	1162.40002441406
986.374494948027	1164.80004882813
987.072770551745	1160.80004882813
987.770958025731	1161.80004882813
988.469057377772	1163.80004882813
989.167068615649	1161.59997558594
989.864991747145	1161
990.562826780047	1168
991.260573722134	1159
991.958232581195	1159.59997558594
992.655803365003	1165.80004882813
993.353286081346	1158.40002441406
994.050680738006	1152.80004882813
994.74798734276	1156.19995117188
995.44520590339	1152
996.142336427681	1157.59997558594
996.839378923407	1145.40002441406
997.536333398348	1154.40002441406
998.233199860289	1153.19995117188
998.929978317004	1151.59997558594
999.626668776274	1154.80004882813
1000.32327124587	1155.40002441406
1001.01978573359	1160.80004882813
1001.71621224718	1153.80004882813
1002.41255079445	1169
1003.10880138315	1162.19995117188
1003.80496402107	1158.19995117188
1004.50103871599	1163.40002441406
1005.19702547567	1161.80004882813
1005.8929243079	1152.19995117188
1006.58873522045	1157.80004882813
1007.2844582211	1167
1007.98009331761	1157.40002441406
1008.67564051776	1154.40002441406
1009.37109982933	1155
1010.06647126009	1156.19995117188
1010.7617548178	1157.19995117188
1011.45695051026	1152
1012.15205834522	1167.40002441406
1012.84707833045	1168.19995117188
1013.54201047373	1166
1014.23685478284	1166.59997558594
1014.93161126553	1156
1015.62627992959	1162.19995117188
1016.32086078277	1168.80004882813
1017.01535383285	1166.19995117188
1017.70975908761	1161.40002441406
1018.40407655479	1166.59997558594
1019.09830624219	1153
1019.79244815755	1164
1020.48650230866	1148
1021.18046870328	1155.40002441406
1021.87434734917	1142.59997558594
1022.56813825411	1160
1023.26184142584	1165
1023.95545687216	1162.80004882813
1024.64898460082	1168.19995117188
1025.34242461957	1160
1026.0357769362	1163.59997558594
1026.72904155846	1154.80004882813
1027.42221849412	1173.59997558594
1028.11530775094	1166.19995117188
1028.80830933668	1161
1029.50122325911	1161.59997558594
1030.19404952599	1160.59997558594
1030.88678814508	1157.80004882813
1031.57943912414	1161
1032.27200247093	1164.19995117188
1032.96447819323	1162.19995117188
1033.65686629878	1164.80004882813
1034.34916679534	1163.19995117188
1035.04137969068	1159.59997558594
1035.73350499256	1171.59997558594
1036.42554270874	1169
1037.11749284697	1165
1037.80935541501	1166
1038.50113042062	1163.59997558594
1039.19281787156	1157.19995117188
1039.88441777559	1164
1040.57593014046	1154
1041.26735497393	1164.40002441406
1041.95869228376	1161
1042.6499420777	1157.80004882813
1043.3411043635	1164.40002441406
1044.03217914893	1163.80004882813
1044.72316644174	1152.59997558594
1045.41406624968	1167
1046.1048785805	1162
1046.79560344197	1149.40002441406
1047.48624084182	1160.59997558594
1048.17679078783	1163.80004882813
1048.86725328774	1155.59997558594
1049.55762834929	1168
1050.24791598025	1153.59997558594
1050.93811618837	1156.19995117188
1051.62822898139	1155.59997558594
1052.31825436707	1151.80004882813
1053.00819235315	1156.40002441406
1053.6980429474	1158
1054.38780615755	1156.40002441406
1055.07748199136	1161.80004882813
1055.76707045658	1163
1056.45657156095	1161.59997558594
1057.14598531222	1152.19995117188
1057.83531171814	1159.80004882813
1058.52455078646	1160.40002441406
1059.21370252494	1153.59997558594
1059.90276694129	1150.19995117188
1060.5917440433	1153.59997558594
1061.28063383868	1150.80004882813
1061.9694363352	1149.19995117188
1062.65815154059	1153.19995117188
1063.34677946261	1144.19995117188
1064.03532010899	1151.19995117188
1064.72377348748	1149
1065.41213960583	1151.19995117188
1066.10041847177	1156.19995117188
1066.78861009306	1149.40002441406
1067.47671447743	1147.80004882813
1068.16473163263	1154.80004882813
1068.85266156639	1151.19995117188
1069.54050428647	1152.80004882813
1070.2282598006	1160.19995117188
1070.91592811652	1144
1071.60350924198	1145.19995117188
1072.29100318471	1140.80004882813
1072.97840995245	1143
1073.66572955295	1133.80004882813
1074.35296199394	1147
1075.04010728316	1151
1075.72716542836	1148.40002441406
1076.41413643726	1145.59997558594
1077.10102031761	1145.80004882813
1077.78781707715	1143.59997558594
1078.4745267236	1144.80004882813
1079.16114926471	1148.59997558594
1079.84768470822	1147.19995117188
1080.53413306185	1152.40002441406
1081.22049433336	1156
1081.90676853046	1150
1082.5929556609	1154
1083.27905573241	1159.19995117188
1083.96506875272	1153
1084.65099472957	1157
1085.3368336707	1160.80004882813
1086.02258558383	1141.59997558594
1086.70825047669	1151.19995117188
1087.39382835703	1140.80004882813
1088.07931923257	1148
1088.76472311104	1142.40002441406
1089.45004000018	1141.40002441406
1090.13526990771	1155.80004882813
1090.82041284137	1160
1091.50546880889	1162.40002441406
1092.19043781799	1156
1092.87531987642	1158.59997558594
1093.56011499188	1160.40002441406
1094.24482317212	1154.80004882813
1094.92944442486	1150.40002441406
1095.61397875783	1148.19995117188
1096.29842617876	1145.80004882813
1096.98278669537	1150.59997558594
1097.6670603154	1151.19995117188
1098.35124704656	1144
1099.03534689659	1148.59997558594
1099.71935987322	1144.59997558594
1100.40328598416	1149.40002441406
1101.08712523713	1146.19995117188
1101.77087763988	1158.19995117188
1102.45454320012	1163.40002441406
1103.13812192557	1151.59997558594
1103.82161382396	1157.59997558594
1104.50501890301	1154.59997558594
1105.18833717045	1145
1105.87156863399	1141.59997558594
1106.55471330137	1131.80004882813
1107.2377711803	1131.19995117188
1107.9207422785	1139.40002441406
1108.60362660369	1147
1109.2864241636	1147.80004882813
1109.96913496594	1143.80004882813
1110.65175901844	1143
1111.33429632882	1145.19995117188
1112.01674690479	1146.59997558594
1112.69911075408	1151.80004882813
1113.38138788439	1144.19995117188
1114.06357830346	1159.80004882813
1114.745682019	1161.80004882813
1115.42769903872	1157.80004882813
1116.10962937035	1151.59997558594
1116.7914730216	1161
1117.47323000018	1157.19995117188
1118.15490031382	1155.59997558594
1118.83648397022	1159.40002441406
1119.51798097712	1161.59997558594
1120.1993913422	1147.80004882813
1120.88071507321	1144.80004882813
1121.56195217784	1145
1122.24310266381	1141.19995117188
1122.92416653884	1142.80004882813
1123.60514381064	1141
1124.28603448692	1156
1124.9668385754	1148
1125.64755608378	1147.59997558594
1126.32818701978	1150
1127.00873139111	1152.59997558594
1127.68918920548	1154
1128.3695604706	1159.59997558594
1129.04984519419	1156
1129.73004338394	1156.19995117188
1130.41015504758	1154.40002441406
1131.09018019281	1159
1131.77011882734	1157
1132.44997095888	1162
1133.12973659514	1158.19995117188
1133.80941574381	1158
1134.48900841263	1143.19995117188
1135.16851460927	1151
1135.84793434147	1153.40002441406
1136.52726761692	1160.59997558594
1137.20651444333	1143.80004882813
1137.8856748284	1151.40002441406
1138.56474877984	1161.59997558594
1139.24373630536	1159.19995117188
1139.92263741265	1145.19995117188
1140.60145210943	1135.40002441406
1141.28018040339	1142.19995117188
1141.95882230225	1135.80004882813
1142.6373778137	1143.80004882813
1143.31584694545	1142.59997558594
1143.99422970519	1146
1144.67252610064	1146.19995117188
1145.35073613949	1147.80004882813
1146.02885982944	1141.19995117188
1146.7068971782	1143.59997558594
1147.38484819347	1141.19995117188
1148.06271288294	1130.80004882813
1148.74049125432	1127.80004882813
1149.41818331531	1141.59997558594
1150.0957890736	1144.40002441406
1150.77330853689	1139
1151.45074171289	1150.59997558594
1152.12808860928	1146.59997558594
1152.80534923378	1152
1153.48252359407	1158.40002441406
1154.15961169786	1152.80004882813
1154.83661355283	1146.19995117188
1155.51352916669	1154.80004882813
1156.19035854713	1147.40002441406
1156.86710170185	1139
1157.54375863855	1152
1158.22032936491	1148
1158.89681388863	1144.59997558594
1159.57321221741	1144.80004882813
1160.24952435894	1140.19995117188
1160.92575032092	1152
1161.60189011103	1135.80004882813
1162.27794373697	1137.59997558594
1162.95391120644	1142.19995117188
1163.62979252712	1143.80004882813
1164.3055877067	1132.80004882813
1164.98129675288	1148.59997558594
1165.65691967336	1147.40002441406
1166.33245647581	1143.40002441406
1167.00790716792	1144.80004882813
1167.6832717574	1146.59997558594
1168.35855025193	1148.80004882813
1169.0337426592	1141.80004882813
1169.70884898689	1154.40002441406
1170.3838692427	1159.19995117188
1171.05880343431	1154.40002441406
1171.73365156941	1157.80004882813
1172.40841365569	1159.80004882813
1173.08308970083	1159
1173.75767971253	1163.40002441406
1174.43218369847	1162
1175.10660166633	1171.19995117188
1175.7809336238	1170
1176.45517957857	1175.59997558594
1177.12933953832	1173.59997558594
1177.80341351073	1156.59997558594
1178.47740150349	1153
1179.15130352429	1153.59997558594
1179.8251195808	1152.19995117188
1180.49884968071	1168
1181.1724938317	1181.19995117188
1181.84605204145	1171
1182.51952431766	1177.19995117188
1183.19291066799	1181.80004882813
1183.86621110013	1175.19995117188
1184.53942562176	1166
1185.21255424057	1171.80004882813
1185.88559696422	1160.19995117188
1186.55855380041	1175.19995117188
1187.2314247568	1161.80004882813
1187.90420984109	1160.59997558594
1188.57690906095	1160.40002441406
1189.24952242405	1168.19995117188
1189.92204993808	1167.40002441406
1190.59449161071	1169.80004882813
1191.26684744962	1172
1191.93911746249	1163
1192.61130165699	1179
1193.28340004081	1175.80004882813
1193.95541262161	1178.40002441406
1194.62733940707	1179.80004882813
1195.29918040487	1183.80004882813
1195.97093562269	1170.59997558594
1196.64260506819	1164.40002441406
1197.31418874905	1173.59997558594
1197.98568667295	1177.80004882813
1198.65709884755	1164.59997558594
1199.32842528053	1164.80004882813
1199.99966597957	1166.40002441406
1200.67082095234	1161.59997558594
1201.3418902065	1150.59997558594
1202.01287374974	1162
1202.68377158971	1160.40002441406
1203.3545837341	1159.59997558594
1204.02531019057	1161.80004882813
1204.6959509668	1163.19995117188
1205.36650607045	1166.19995117188
1206.03697550919	1161.19995117188
1206.70735929069	1154.59997558594
1207.37765742263	1157
1208.04786991266	1147.80004882813
1208.71799676846	1142.19995117188
1209.38803799769	1134.59997558594
1210.05799360803	1140.19995117188
1210.72786360714	1140.59997558594
1211.39764800268	1143.59997558594
1212.06734680233	1145.19995117188
1212.73696001375	1148.80004882813
1213.4064876446	1141.40002441406
1214.07592970255	1147.40002441406
1214.74528619526	1150
1215.4145571304	1146.19995117188
1216.08374251564	1136.19995117188
1216.75284235863	1145.19995117188
1217.42185666704	1144.19995117188
1218.09078544854	1143.59997558594
1218.75962871078	1143.59997558594
1219.42838646143	1144.59997558594
1220.09705870816	1135
1220.76564545861	1142.80004882813
1221.43414672046	1134.80004882813
1222.10256250136	1145.80004882813
1222.77089280898	1150.59997558594
1223.43913765098	1140.80004882813
1224.107297035	1129.59997558594
1224.77537096873	1128
1225.44335945981	1130.40002441406
1226.1112625159	1145.80004882813
1226.77908014467	1145.80004882813
1227.44681235376	1150
1228.11445915085	1142.80004882813
1228.78202054357	1155.19995117188
1229.44949653961	1150.59997558594
1230.11688714659	1147.40002441406
1230.7841923722	1133.40002441406
1231.45141222407	1134.19995117188
1232.11854670988	1140.19995117188
1232.78559583726	1146.40002441406
1233.45255961388	1150.19995117188
1234.1194380474	1146
1234.78623114546	1138.40002441406
1235.45293891572	1141.59997558594
1236.11956136583	1136.59997558594
1236.78609850345	1141.80004882813
1237.45255033623	1136.19995117188
1238.11891687182	1131
1238.78519811788	1131.19995117188
1239.45139408205	1144.40002441406
1240.11750477198	1147
1240.78353019534	1153
1241.44947035976	1152.59997558594
1242.11532527291	1142.59997558594
1242.78109494242	1145.19995117188
1243.44677937595	1139.80004882813
1244.11237858115	1147.80004882813
1244.77789256567	1134
1245.44332133715	1132.59997558594
1246.10866490325	1139
1246.7739232716	1133.19995117188
1247.43909644987	1131.59997558594
1248.10418444569	1141.40002441406
1248.76918726671	1127.80004882813
1249.43410492059	1133.19995117188
1250.09893741496	1137
1250.76368475747	1138.19995117188
1251.42834695576	1131.19995117188
1252.09292401749	1134.80004882813
1252.75741595029	1138
1253.42182276182	1144.59997558594
1254.08614445971	1144.59997558594
1254.75038105161	1147.80004882813
1255.41453254515	1142.80004882813
1256.07859894799	1153.59997558594
1256.74258026777	1142.59997558594
1257.40647651213	1136.80004882813
1258.0702876887	1134.19995117188
1258.73401380514	1139.80004882813
1259.39765486908	1136
1260.06121088817	1132
1260.72468187004	1129
1261.38806782233	1141.59997558594
1262.05136875269	1140.80004882813
1262.71458466875	1145.80004882813
1263.37771557815	1144.40002441406
1264.04076148854	1148.59997558594
1264.70372240753	1147.40002441406
1265.3665983428	1137.19995117188
1266.02938930195	1136.80004882813
1266.69209529263	1127.80004882813
1267.35471632249	1131.40002441406
1268.01725239914	1137.59997558594
1268.67970353024	1143
1269.34206972342	1138.59997558594
1270.00435098631	1143.40002441406
1270.66654732655	1142
1271.32865875177	1135.80004882813
1271.9906852696	1136.19995117188
1272.65262688768	1139
1273.31448361365	1135.80004882813
1273.97625545514	1137.19995117188
1274.63794241978	1134.80004882813
1275.2995445152	1133.19995117188
1275.96106174903	1127.80004882813
1276.62249412892	1132
1277.28384166248	1135.19995117188
1277.94510435735	1131.80004882813
1278.60628222116	1137
1279.26737526155	1137.19995117188
1279.92838348613	1134.80004882813
1280.58930690255	1136.19995117188
1281.25014551842	1143.80004882813
1281.91089934139	1141.19995117188
1282.57156837907	1134.40002441406
1283.2321526391	1148
1283.89265212911	1130.59997558594
1284.55306685671	1137.59997558594
1285.21339682955	1138.19995117188
1285.87364205525	1152
1286.53380254142	1150.40002441406
1287.19387829571	1149.59997558594
1287.85386932573	1138.59997558594
1288.51377563911	1144.80004882813
1289.17359724348	1146.40002441406
1289.83333414646	1148.80004882813
1290.49298635567	1161.19995117188
1291.15255387874	1151
1291.8120367233	1150.80004882813
1292.47143489696	1142.19995117188
1293.13074840736	1145
1293.7899772621	1141.59997558594
1294.44912146882	1147.19995117188
1295.10818103513	1147.59997558594
1295.76715596866	1143.40002441406
1296.42604627704	1142
1297.08485196787	1130.59997558594
1297.74357304878	1131.80004882813
1298.4022095274	1130
1299.06076141134	1142.40002441406
1299.71922870821	1137.40002441406
1300.37761142565	1135.19995117188
1301.03590957126	1134.59997558594
1301.69412315268	1140.19995117188
1302.3522521775	1145.40002441406
1303.01029665336	1151
1303.66825658787	1150.40002441406
1304.32613198865	1154.59997558594
1304.98392286332	1154.40002441406
1305.64162921948	1150.59997558594
1306.29925106476	1153.59997558594
1306.95678840677	1165.59997558594
1307.61424125312	1156
1308.27160961145	1146.19995117188
1308.92889348934	1151.40002441406
1309.58609289443	1158.19995117188
1310.24320783432	1152.80004882813
1310.90023831664	1158
1311.55718434898	1162.59997558594
1312.21404593897	1161.59997558594
1312.87082309421	1165.59997558594
1313.52751582233	1173.19995117188
1314.18412413092	1170.59997558594
1314.84064802761	1166.59997558594
1315.49708752	1165.40002441406
1316.1534426157	1157.59997558594
1316.80971332233	1151.80004882813
1317.46589964749	1156.59997558594
1318.1220015988	1161.40002441406
1318.77801918386	1158.40002441406
1319.43395241028	1149
1320.08980128567	1153.19995117188
1320.74556581764	1151
1321.4012460138	1147
1322.05684188176	1151.80004882813
1322.71235342911	1148.40002441406
1323.36778066347	1149
1324.02312359245	1152
1324.67838222365	1145.19995117188
1325.33355656468	1145.19995117188
1325.98864662314	1147.19995117188
1326.64365240663	1150.40002441406
1327.29857392277	1151.40002441406
1327.95341117915	1153
1328.60816418339	1149.40002441406
1329.26283294308	1147.19995117188
1329.91741746582	1142.19995117188
1330.57191775923	1156.59997558594
1331.2263338309	1160.59997558594
1331.88066568843	1157
1332.53491333943	1153
1333.1890767915	1146.19995117188
1333.84315605224	1149.19995117188
1334.49715112925	1155.40002441406
1335.15106203013	1146.19995117188
1335.80488876249	1150.59997558594
1336.45863133391	1152.59997558594
1337.112289752	1158.80004882813
1337.76586402437	1158.40002441406
1338.4193541586	1158
1339.0727601623	1157
1339.72608204306	1154.59997558594
1340.37931980849	1152.59997558594
1341.03247346617	1162.40002441406
1341.68554302372	1158.80004882813
1342.33852848871	1165.80004882813
1342.99142986876	1170.80004882813
1343.64424717145	1162.80004882813
1344.29698040438	1163.19995117188
1344.94962957515	1175.59997558594
1345.60219469135	1178.40002441406
1346.25467576058	1174
1346.90707279042	1172
1347.55938578848	1162.40002441406
1348.21161476235	1165.80004882813
1348.86375971962	1169
1349.51582066787	1170.80004882813
1350.16779761472	1175.40002441406
1350.81969056774	1170.59997558594
1351.47149953453	1162.80004882813
1352.12322452269	1175
1352.77486553979	1180.80004882813
1353.42642259344	1178.19995117188
1354.07789569122	1176.80004882813
1354.72928484072	1182.40002441406
1355.38059004953	1176.80004882813
1356.03181132525	1176.80004882813
1356.68294867545	1187.80004882813
1357.33400210773	1183.40002441406
1357.98497162968	1176.80004882813
1358.63585724889	1178
1359.28665897294	1189.59997558594
1359.93737680942	1190.40002441406
1360.58801076591	1186.80004882813
1361.23856085001	1188.19995117188
1361.88902706929	1183.19995117188
1362.53940943135	1188.19995117188
1363.18970794377	1187.19995117188
1363.83992261413	1195
1364.49005345003	1190.19995117188
1365.14010045904	1192.40002441406
1365.79006364874	1180.59997558594
1366.43994302673	1175.19995117188
1367.08973860058	1166.80004882813
1367.73945037788	1165.19995117188
1368.38907836621	1159.19995117188
1369.03862257315	1155.80004882813
1369.68808300629	1153.40002441406
1370.3374596732	1150.59997558594
1370.98675258148	1139.59997558594
1371.63596173868	1153.80004882813
1372.28508715241	1150.80004882813
1372.93412883024	1155.40002441406
1373.58308677974	1151.59997558594
1374.2319610085	1148.80004882813
1374.8807515241	1147.59997558594
1375.52945833412	1147.19995117188
1376.17808144612	1145.40002441406
1376.82662086771	1142.19995117188
1377.47507660644	1147.40002441406
1378.12344866989	1128
1378.77173706565	1125.80004882813
1379.41994180129	1126.40002441406
1380.06806288439	1123.40002441406
1380.71610032252	1131.40002441406
1381.36405412326	1133.19995117188
1382.01192429419	1132.19995117188
1382.65971084287	1138
1383.30741377688	1131
1383.95503310381	1127
1384.60256883121	1130.59997558594
1385.25002096667	1135.80004882813
1385.89738951775	1128.59997558594
1386.54467449204	1135.19995117188
1387.19187589709	1123.80004882813
1387.8389937405	1124.59997558594
1388.48602802982	1134.80004882813
1389.13297877262	1120.59997558594
1389.77984597649	1123.40002441406
1390.42662964899	1124
1391.07332979768	1113.59997558594
1391.71994643015	1127.19995117188
1392.36647955395	1125.40002441406
1393.01292917667	1122.40002441406
1393.65929530586	1129.40002441406
1394.3055779491	1124.19995117188
1394.95177711395	1123.80004882813
1395.59789280799	1126
1396.24392503877	1130
1396.88987381387	1122.40002441406
1397.53573914086	1129.59997558594
1398.1815210273	1125.80004882813
1398.82721948075	1130.40002441406
1399.47283450878	1125.19995117188
1400.11836611897	1126.59997558594
1400.76381431886	1126.40002441406
1401.40917911603	1129.40002441406
1402.05446051805	1129.59997558594
1402.69965853247	1130.40002441406
1403.34477316686	1123.59997558594
1403.98980442878	1129.40002441406
1404.6347523258	1130.59997558594
1405.27961686548	1129.80004882813
1405.92439805538	1133.40002441406
1406.56909590306	1126.40002441406
1407.21371041608	1125.19995117188
1407.85824160202	1136
1408.50268946841	1129
1409.14705402284	1132.40002441406
1409.79133527285	1130.80004882813
1410.43553322601	1124.19995117188
1411.07964788987	1126.19995117188
1411.723679272	1132
1412.36762737996	1127
1413.01149222129	1120.80004882813
1413.65527380357	1114.19995117188
1414.29897213435	1114.19995117188
1414.94258722118	1116
1415.58611907163	1111
1416.22956769325	1120.80004882813
1416.87293309359	1122
1417.51621528021	1114.80004882813
1418.15941426067	1118.19995117188
1418.80253004253	1126.40002441406
1419.44556263333	1126.80004882813
1420.08851204063	1129.19995117188
1420.731378272	1132.40002441406
1421.37416133497	1140.59997558594
1422.0168612371	1127.40002441406
1422.65947798596	1131
1423.30201158908	1134.40002441406
1423.94446205403	1130.40002441406
1424.58682938835	1133.19995117188
1425.2291135996	1125.19995117188
1425.87131469532	1136.40002441406
1426.51343268308	1134.19995117188
1427.15546757042	1132.19995117188
1427.79741936488	1126.40002441406
1428.43928807403	1139.19995117188
1429.0810737054	1130.59997558594
1429.72277626656	1136
1430.36439576504	1141.59997558594
1431.00593220841	1136.40002441406
1431.64738560419	1131.40002441406
1432.28875595995	1146.80004882813
1432.93004328324	1138.40002441406
1433.57124758159	1143
1434.21236886255	1131.80004882813
1434.85340713368	1127.19995117188
1435.49436240252	1127.40002441406
1436.13523467661	1128.40002441406
1436.77602396349	1129
1437.41673027073	1131.80004882813
1438.05735360585	1128.40002441406
1438.69789397641	1128.80004882813
1439.33835138994	1128.80004882813
1439.978725854	1125.80004882813
1440.61901737612	1130.19995117188
1441.25922596385	1140
1441.89935162473	1131
1442.53939436631	1136.59997558594
1443.17935419612	1130
1443.81923112171	1141
1444.45902515061	1135
1445.09873629038	1130.80004882813
1445.73836454854	1137
1446.37790993265	1135
1447.01737245024	1140.19995117188
1447.65675210885	1126.80004882813
1448.29604891602	1134
1448.93526287928	1142.19995117188
1449.57439400618	1137
1450.21344230426	1130.19995117188
1450.85240778105	1131.40002441406
1451.49129044409	1124.80004882813
1452.13009030092	1136.59997558594
1452.76880735907	1122.59997558594
1453.40744162608	1129.40002441406
1454.04599310949	1127.80004882813
1454.68446181683	1126.19995117188
1455.32284775564	1130
1455.96115093345	1119.80004882813
1456.5993713578	1124.80004882813
1457.23750903623	1118.80004882813
1457.87556397626	1125.19995117188
1458.51353618543	1128
1459.15142567127	1128.40002441406
1459.78923244132	1123.40002441406
1460.42695650311	1124.40002441406
1461.06459786417	1130.19995117188
1461.70215653203	1120.80004882813
1462.33963251423	1131.40002441406
1462.97702581829	1121.80004882813
1463.61433645175	1120.80004882813
1464.25156442214	1125.19995117188
1464.88870973699	1117.59997558594
1465.52577240382	1118.19995117188
1466.16275243017	1118.80004882813
1466.79964982356	1127
1467.43646459154	1131
1468.07319674161	1128
1468.70984628132	1132.19995117188
1469.34641321818	1125.59997558594
1469.98289755974	1129.40002441406
1470.6192993135	1125.80004882813
1471.25561848701	1133.80004882813
1471.89185508779	1125
1472.52800912336	1127.59997558594
1473.16408060124	1116
1473.80006952897	1121.19995117188
1474.43597591407	1119
1475.07179976406	1115.59997558594
1475.70754108647	1118.40002441406
1476.34319988883	1124.59997558594
1476.97877617865	1132
1477.61426996345	1115.59997558594
1478.24968125077	1125.19995117188
1478.88501004812	1124.59997558594
1479.52025636303	1122.19995117188
1480.15542020302	1122.59997558594
1480.79050157561	1120.40002441406
1481.42550048832	1127.59997558594
1482.06041694867	1115.19995117188
1482.69525096418	1119.59997558594
1483.33000254237	1116.40002441406
1483.96467169077	1113.80004882813
1484.59925841689	1112
1485.23376272825	1117.80004882813
1485.86818463237	1111.40002441406
1486.50252413677	1123.40002441406
1487.13678124896	1130.80004882813
1487.77095597646	1122
1488.4050483268	1125.59997558594
1489.03905830749	1121.19995117188
1489.67298592604	1108
1490.30683118996	1107.19995117188
1490.9405941068	1112.59997558594
1491.57427468403	1121.19995117188
1492.2078729292	1117.19995117188
1492.84138884981	1128.40002441406
1493.47482245338	1121.19995117188
1494.10817374742	1128.80004882813
1494.74144273944	1124.19995117188
1495.37462943696	1123.80004882813
1496.0077338475	1117
1496.64075597856	1120
1497.27369583765	1129.59997558594
1497.9065534323	1130
1498.53932877001	1132.40002441406
1499.17202185829	1136.40002441406
1499.80463270465	1136.80004882813
1500.43716131661	1132
1501.06960770167	1136.19995117188
1501.70197186735	1135.80004882813
1502.33425382116	1130.59997558594
1502.96645357059	1130.19995117188
1503.59857112317	1133.59997558594
1504.23060648641	1133.19995117188
1504.8625596678	1137.19995117188
1505.49443067486	1140.40002441406
1506.1262195151	1136.40002441406
1506.75792619602	1133.59997558594
1507.38955072513	1136
1508.02109310993	1145
1508.65255335794	1142.19995117188
1509.28393147666	1142.40002441406
1509.91522747359	1141
1510.54644135624	1139.59997558594
1511.17757313212	1142.40002441406
1511.80862280872	1150.59997558594
1512.43959039356	1149.40002441406
1513.07047589413	1140
1513.70127931795	1132.40002441406
1514.33200067251	1133.59997558594
1514.96263996531	1137.80004882813
1515.59319720386	1136.19995117188
1516.22367239567	1139
1516.85406554822	1137.59997558594
1517.48437666903	1136.19995117188
1518.1146057656	1125.59997558594
1518.74475284542	1120.59997558594
1519.374817916	1121.59997558594
1520.00480098483	1120
1520.63470205942	1113.40002441406
1521.26452114726	1117.40002441406
1521.89425825586	1121.80004882813
1522.52391339271	1106
1523.15348656531	1117.19995117188
1523.78297778116	1126.40002441406
1524.41238704775	1125.80004882813
1525.04171437259	1125.59997558594
1525.67095976317	1126
1526.30012322699	1117.40002441406
1526.92920477154	1117.80004882813
1527.55820440432	1125.80004882813
1528.18712213283	1119.40002441406
1528.81595796455	1117.80004882813
1529.44471190699	1124
1530.07338396764	1122.19995117188
1530.70197415399	1127
1531.33048247353	1128.19995117188
1531.95890893377	1116.59997558594
1532.58725354219	1117.59997558594
1533.21551630629	1116.80004882813
1533.84369723356	1116.19995117188
1534.47179633148	1117.59997558594
1535.09981360757	1118.59997558594
1535.72774906929	1125.40002441406
1536.35560272415	1123.59997558594
1536.98337457963	1117.19995117188
1537.61106464323	1114.80004882813
1538.23867292243	1117
1538.86619942473	1109.19995117188
1539.49364415762	1113.80004882813
1540.12100712857	1114.80004882813
1540.74828834509	1115
1541.37548781466	1120.19995117188
1542.00260554478	1113.40002441406
1542.62964154291	1120.19995117188
1543.25659581655	1110.59997558594
1543.8834683732	1105
1544.51025922034	1112.19995117188
1545.13696836544	1110.19995117188
1545.76359581601	1106.80004882813
1546.39014157952	1105.80004882813
1547.01660566345	1113.80004882813
1547.64298807531	1106.19995117188
1548.26928882255	1107.59997558594
1548.89550791269	1106.80004882813
1549.52164535318	1103.80004882813
1550.14770115153	1100.19995117188
1550.77367531521	1093.40002441406
1551.39956785171	1099.80004882813
1552.0253787685	1096.80004882813
1552.65110807307	1095
1553.2767557729	1092
1553.90232187548	1091.40002441406
1554.52780638828	1088.19995117188
1555.15320931879	1089.19995117188
1555.77853067447	1091.40002441406
1556.40377046282	1095.59997558594
1557.02892869132	1094.59997558594
1557.65400536744	1100.19995117188
1558.27900049866	1106.59997558594
1558.90391409247	1112.40002441406
1559.52874615633	1099.80004882813
1560.15349669773	1109.59997558594
1560.77816572414	1107
1561.40275324305	1105.40002441406
1562.02725926192	1097.40002441406
1562.65168378824	1109.19995117188
1563.27602682948	1112
1563.90028839311	1110
1564.52446848662	1111
1565.14856711748	1106.19995117188
1565.77258429316	1107
1566.39652002113	1115.59997558594
1567.02037430887	1111
1567.64414716387	1111
1568.26783859357	1114.59997558594
1568.89144860547	1112
1569.51497720703	1107.40002441406
1570.13842440573	1114.40002441406
1570.76179020904	1110.80004882813
1571.38507462442	1110.80004882813
1572.00827765936	1102
1572.63139932132	1110
1573.25443961777	1106.19995117188
1573.87739855618	1102.19995117188
1574.50027614402	1100
1575.12307238877	1098
1575.74578729789	1107.80004882813
1576.36842087885	1100.19995117188
1576.99097313912	1105
1577.61344408616	1095.40002441406
1578.23583372745	1099.40002441406
1578.85814207046	1101.80004882813
1579.48036912264	1103.80004882813
1580.10251489147	1101.40002441406
1580.72457938441	1098.80004882813
1581.34656260893	1097.59997558594
1581.9684645725	1089.80004882813
1582.59028528258	1093.80004882813
1583.21202474663	1085.80004882813
1583.83368297212	1088
1584.45525996652	1096.40002441406
1585.07675573728	1088.59997558594
1585.69817029188	1086.40002441406
1586.31950363778	1085.19995117188
1586.94075578243	1088
1587.5619267333	1089
1588.18301649786	1078.80004882813
1588.80402508357	1081.40002441406
1589.42495249788	1086.19995117188
1590.04579874826	1082.59997558594
1590.66656384217	1087.80004882813
1591.28724778707	1086.80004882813
1591.90785059042	1085.19995117188
1592.52837225968	1080
1593.14881280232	1086.19995117188
1593.76917222578	1092.80004882813
1594.38945053753	1091.59997558594
1595.00964774502	1091.40002441406
1595.62976385573	1084.19995117188
1596.24979887709	1086.40002441406
1596.86975281657	1090.80004882813
1597.48962568164	1092.59997558594
1598.10941747974	1088.40002441406
1598.72912821832	1097
1599.34875790486	1092.19995117188
1599.9683065468	1085
1600.58777415159	1093.59997558594
1601.2071607267	1096
1601.82646627958	1089.80004882813
1602.44569081769	1084.80004882813
1603.06483434846	1079.80004882813
1603.68389687937	1077.59997558594
1604.30287841786	1082.80004882813
1604.92177897139	1073
1605.54059854741	1087.80004882813
1606.15933715337	1082.59997558594
1606.77799479672	1073.80004882813
1607.39657148492	1082.59997558594
1608.01506722542	1085.19995117188
1608.63348202566	1085.59997558594
1609.2518158931	1087.59997558594
1609.87006883519	1084.80004882813
1610.48824085939	1079.40002441406
1611.10633197312	1076.40002441406
1611.72434218386	1075.59997558594
1612.34227149904	1079.40002441406
1612.96011992612	1074.19995117188
1613.57788747254	1076.80004882813
1614.19557414575	1078.59997558594
1614.8131799532	1073.80004882813
1615.43070490234	1076
1616.04814900061	1081
1616.66551225545	1070
1617.28279467433	1074
1617.89999626467	1066.59997558594
1618.51711703393	1069.40002441406
1619.13415698955	1074.59997558594
1619.75111613898	1079.19995117188
1620.36799448966	1079.19995117188
1620.98479204903	1077.40002441406
1621.60150882455	1085.59997558594
1622.21814482364	1079
1622.83470005376	1076.80004882813
1623.45117452235	1079.59997558594
1624.06756823685	1089.40002441406
1624.6838812047	1085
1625.30011343335	1078.19995117188
1625.91626493022	1084.59997558594
1626.53233570278	1080.40002441406
1627.14832575845	1073
1627.76423510468	1072.40002441406
1628.38006374891	1071.40002441406
1628.99581169857	1076.59997558594
1629.61147896111	1071.59997558594
1630.22706554397	1072
1630.84257145457	1073
1631.45799670038	1077.40002441406
1632.07334128881	1073.40002441406
1632.6886052273	1073.40002441406
1633.3037885233	1074.40002441406
1633.91889118425	1062
1634.53391321757	1061.80004882813
1635.1488546307	1062.40002441406
1635.76371543108	1063.59997558594
1636.37849562616	1064
1636.99319522335	1055.59997558594
1637.60781423009	1061.80004882813
1638.22235265383	1060.80004882813
1638.83681050198	1058.19995117188
1639.451187782	1064
1640.0654845013	1068.19995117188
1640.67970066734	1065
1641.29383628752	1070.40002441406
1641.9078913693	1069.40002441406
1642.5218659201	1070.80004882813
1643.13575994735	1067.19995117188
1643.74957345849	1068
1644.36330646094	1067.80004882813
1644.97695896213	1071.19995117188
1645.59053096951	1072
1646.20402249049	1079
1646.8174335325	1070.40002441406
1647.43076410298	1086
1648.04401420935	1085.80004882813
1648.65718385905	1082.80004882813
1649.2702730595	1099.40002441406
1649.88328181812	1090
1650.49621014236	1085.80004882813
1651.10905803963	1088.80004882813
1651.72182551735	1083.80004882813
1652.33451258297	1076.59997558594
1652.9471192439	1074.59997558594
1653.55964550757	1063
1654.1720913814	1068.59997558594
1654.78445687283	1060.80004882813
1655.39674198926	1060.19995117188
1656.00894673814	1057
1656.62107112688	1051.19995117188
1657.23311516291	1053.59997558594
1657.84507885365	1041.59997558594
1658.45696220652	1044.40002441406
1659.06876522895	1042.40002441406
1659.68048792835	1045
1660.29213031217	1046.80004882813
1660.90369238779	1047.19995117188
1661.51517416267	1036.80004882813
1662.12657564421	1035.80004882813
1662.73789683984	1037.19995117188
1663.34913775697	1032.40002441406
1663.96029840303	1031.19995117188
1664.57137878544	1018.59997558594
1665.18237891161	1019.40002441406
1665.79329878897	1019.59997558594
1666.40413842493	1020.59997558594
1667.01489782691	1023.20001220703
1667.62557700233	1025
1668.2361759586	1015.20001220703
1668.84669470315	1011.79998779297
1669.4571332434	1014
1670.06749158675	1017.20001220703
1670.67776974062	1018.20001220703
1671.28796771243	1016.59997558594
1671.8980855096	1015
1672.50812313954	1011.59997558594
1673.11808060967	1016.40002441406
1673.72795792739	1023.20001220703
1674.33775510013	1016.59997558594
1674.9474721353	1011.40002441406
1675.55710904031	1009.40002441406
1676.16666582257	1011
1676.7761424895	1012.59997558594
1677.38553904851	1012.20001220703
1677.99485550702	1013.79998779297
1678.60409187243	1014.40002441406
1679.21324815215	1011
1679.8223243536	1009.20001220703
1680.43132048419	1013.20001220703
1681.04023655132	1016.79998779297
1681.64907256241	1012.59997558594
1682.25782852487	1012.20001220703
1682.86650444611	1010.59997558594
1683.47510033353	1015.40002441406
1684.08361619455	1011.40002441406
1684.69205203657	1013.79998779297
1685.300407867	1011.59997558594
1685.90868369325	1008.79998779297
1686.51687952272	1011
1687.12499536283	1008.59997558594
1687.73303122098	1006
1688.34098710457	1003.20001220703
1688.94886302101	1013.59997558594
1689.55665897772	1014
1690.16437498208	1007.40002441406
1690.77201104152	1010.20001220703
1691.37956716342	1008
1691.9870433552	1016.79998779297
1692.59443962426	1009.40002441406
1693.20175597801	1007
1693.80899242384	1008.20001220703
1694.41614896916	998
1695.02322562138	1003.40002441406
1695.63022238789	998.400024414063
1696.23713927609	998.599975585938
1696.8439762934	992.799987792969
1697.4507334472	996.400024414063
1698.05741074491	994
1698.66400819391	990.200012207031
1699.27052580161	989.799987792969
1699.87696357542	991
1700.48332152272	984
1701.08959965092	987.200012207031
1701.69579796742	993.400024414063
1702.30191647962	991.200012207031
1702.90795519491	991.799987792969
1703.51391412069	991.400024414063
1704.11979326437	993
1704.72559263332	993
1705.33131223496	992.599975585938
1705.93695207668	986.200012207031
1706.54251216588	990.200012207031
1707.14799250994	991.400024414063
1707.75339311628	991.799987792969
1708.35871399227	984
1708.96395514532	990.200012207031
1709.56911658282	987.400024414063
