634.948122577771	1261.59997558594
635.690341530823	1272.80004882813
636.43246851086	1278
637.174503525845	1276.19995117188
637.916446583745	1285.19995117188
638.658297692538	1289.19995117188
639.400056860179	1288.19995117188
640.141724094637	1281.59997558594
640.883299403885	1280.80004882813
641.62478279588	1298.80004882813
642.366174278594	1270.40002441406
643.107473859989	1276.59997558594
643.848681548029	1276.80004882813
644.589797350679	1280.40002441406
645.330821275901	1267
646.071753331665	1267.19995117188
646.812593525922	1267
647.553341866646	1266.80004882813
648.293998361798	1263.59997558594
649.03456301933	1268.59997558594
649.775035847216	1270.59997558594
650.515416853409	1277.40002441406
651.255706045874	1282.80004882813
651.995903432568	1266.40002441406
652.736009021453	1271
653.476022820486	1279.80004882813
654.215944837629	1274.40002441406
654.955775080842	1273.19995117188
655.695513558081	1267
656.435160277301	1263.19995117188
657.174715246465	1273.40002441406
657.914178473527	1264.19995117188
658.653549966449	1280.59997558594
659.392829733176	1260.40002441406
660.132017781678	1263.59997558594
660.871114119901	1286.19995117188
661.610118755803	1272.59997558594
662.349031697343	1267.80004882813
663.087852952468	1279.80004882813
663.826582529139	1276.59997558594
664.565220435305	1279
665.30376667892	1276.40002441406
666.04222126794	1268
666.780584210316	1272.59997558594
667.518855514	1265
668.25703518694	1270.19995117188
668.995123237096	1272.40002441406
669.733119672413	1263.40002441406
670.471024500842	1269.80004882813
671.208837730333	1278.59997558594
671.946559368839	1278.19995117188
672.684189424308	1284.19995117188
673.421727904689	1295
674.159174817929	1281.59997558594
674.896530171977	1286.40002441406
675.633793974786	1287.59997558594
676.370966234295	1286.19995117188
677.108046958461	1284
677.845036155219	1291.40002441406
678.581933832528	1283.19995117188
679.318739998323	1276.40002441406
680.055454660558	1276.80004882813
680.792077827172	1268.40002441406
681.528609506116	1288.40002441406
682.265049705331	1281.59997558594
683.001398432759	1276
683.737655696349	1269.59997558594
684.47382150404	1277.40002441406
685.20989586378	1273.19995117188
685.945878783503	1283.80004882813
686.68177027116	1280.80004882813
687.417570334688	1275.80004882813
688.153278982032	1281.40002441406
688.888896221129	1262.40002441406
689.624422059921	1277.80004882813
690.359856506349	1283.80004882813
691.095199568354	1287.80004882813
691.830451253874	1286
692.565611570844	1289.59997558594
693.300680527212	1295.80004882813
694.03565813091	1294.59997558594
694.770544389877	1303.59997558594
695.505339312053	1296.80004882813
696.240042905372	1295.19995117188
696.974655177772	1298.19995117188
697.70917613719	1292.40002441406
698.443605791561	1291.40002441406
699.177944148826	1281.19995117188
699.912191216909	1282.19995117188
700.646347003755	1292.19995117188
701.380411517295	1294.59997558594
702.114384765465	1286.19995117188
702.848266756195	1284.40002441406
703.582057497421	1279.59997558594
704.315756997074	1295.40002441406
705.049365263089	1272.80004882813
705.782882303399	1280.40002441406
706.516308125936	1285.59997558594
707.249642738626	1280.40002441406
707.982886149403	1305.19995117188
708.716038366204	1308
709.449099396949	1311.40002441406
710.182069249577	1309.80004882813
710.914947932009	1305.59997558594
711.647735452181	1315.80004882813
712.380431818022	1306.19995117188
713.113037037454	1307.19995117188
713.845551118411	1307.19995117188
714.577974068818	1303.59997558594
715.310305896604	1289.80004882813
716.042546609694	1309.19995117188
716.774696216013	1302
717.506754723493	1296
718.238722140053	1303.80004882813
718.970598473624	1304.80004882813
719.702383732127	1306.59997558594
720.43407792349	1296.59997558594
721.165681055634	1303.80004882813
721.897193136486	1306.40002441406
722.628614173966	1294.59997558594
723.359944175997	1297.59997558594
724.091183150505	1296.40002441406
724.822331105412	1295
725.553388048638	1291.59997558594
726.284353988106	1297
727.015228931734	1293.19995117188
727.746012887449	1298.59997558594
728.476705863162	1308.19995117188
729.207307866803	1294.19995117188
729.937818906289	1285.80004882813
730.668238989535	1297.19995117188
731.398568124459	1297.59997558594
732.128806318986	1300.80004882813
732.858953581034	1290.59997558594
733.589009918514	1294
734.318975339348	1292
735.048849851452	1295
735.778633462744	1302.40002441406
736.508326181137	1290.80004882813
737.237928014549	1285.80004882813
737.967438970897	1291.40002441406
738.696859058095	1295
739.426188284054	1303.19995117188
740.155426656692	1296.59997558594
740.884574183922	1309
741.613630873659	1310.40002441406
742.342596733815	1308.80004882813
743.071471772302	1312.80004882813
743.800255997034	1310.80004882813
744.528949415921	1314.59997558594
745.257552036877	1305.59997558594
745.986063867811	1313.40002441406
746.714484916638	1323.80004882813
747.442815191261	1302.80004882813
748.171054699597	1303
748.899203449554	1304.59997558594
749.627261449039	1303.59997558594
750.355228705966	1301.59997558594
751.083105228239	1295.59997558594
751.810891023765	1294.80004882813
752.538586100459	1294.19995117188
753.266190466218	1296
753.99370412896	1290.19995117188
754.721127096582	1297.40002441406
755.448459377	1295.80004882813
756.175700978114	1301.80004882813
756.902851907828	1291.80004882813
757.629912174055	1298.40002441406
758.356881784688	1284
759.083760747639	1286.19995117188
759.810549070817	1281.80004882813
760.537246762113	1281.80004882813
761.263853829442	1283.80004882813
761.990370280698	1286.19995117188
762.716796123791	1288.19995117188
763.443131366618	1288.19995117188
764.169376017082	1289
764.895530083085	1299.40002441406
765.621593572527	1307.40002441406
766.347566493312	1314.59997558594
767.073448853336	1321.80004882813
767.799240660502	1334.59997558594
768.524941922707	1344.80004882813
769.250552647854	1348.19995117188
769.976072843836	1367.80004882813
770.701502518551	1357.40002441406
771.426841679905	1361.80004882813
772.152090335793	1353.80004882813
772.877248494107	1349.19995117188
773.602316162747	1362
774.327293349609	1379.19995117188
775.052180062592	1389.40002441406
775.776976309589	1376.59997558594
776.501682098496	1379.40002441406
777.226297437206	1364.40002441406
777.950822333616	1351.59997558594
778.675256795621	1343.40002441406
779.399600831111	1332.19995117188
780.123854447983	1326.59997558594
780.84801765413	1323.19995117188
781.572090457441	1324.59997558594
782.296072865811	1318.19995117188
783.019964887131	1317.40002441406
783.743766529297	1319.80004882813
784.467477800194	1323.40002441406
785.191098707719	1313.80004882813
785.914629259756	1310.40002441406
786.638069464194	1306.80004882813
787.361419328932	1308.80004882813
788.084678861852	1317
788.807848070845	1312.40002441406
789.530926963798	1311.19995117188
790.253915548602	1304.19995117188
790.976813833144	1303.59997558594
791.699621825307	1305.19995117188
792.422339532986	1308.40002441406
793.144966964061	1307
793.86750412642	1302.19995117188
794.589951027946	1303.80004882813
795.312307676536	1303.40002441406
796.03457408006	1310
796.756750246417	1306.19995117188
797.478836183477	1303.80004882813
798.200831899137	1314.19995117188
798.92273740127	1308.59997558594
799.644552697769	1309.19995117188
800.36627779651	1320.19995117188
801.087912705374	1305
801.809457432251	1311.40002441406
802.530911985017	1321.40002441406
803.252276371558	1315.59997558594
803.973550599748	1301
804.694734677472	1309
805.415828612611	1290.59997558594
806.136832413045	1303.80004882813
806.857746086646	1310.80004882813
807.578569641305	1305.59997558594
808.299303084892	1295.59997558594
809.019946425289	1296.19995117188
809.740499670372	1292.40002441406
810.460962828022	1289.59997558594
811.181335906114	1294.19995117188
811.901618912524	1297.40002441406
812.621811855131	1303.80004882813
813.341914741809	1302.19995117188
814.061927580433	1296.59997558594
814.781850378881	1304
815.501683145025	1299
816.221425886743	1298.59997558594
816.941078611903	1300.80004882813
817.660641328387	1294.80004882813
818.380114044065	1289.19995117188
819.099496766808	1295
819.818789504492	1293.59997558594
820.53799226499	1294.19995117188
821.257105056168	1295
821.976127885904	1286.59997558594
822.695060762064	1283
823.413903692525	1287.80004882813
824.132656685151	1298.19995117188
824.851319747817	1303
825.569892888388	1291.40002441406
826.288376114739	1289.59997558594
827.006769434737	1290
827.725072856249	1280.19995117188
828.443286387142	1280
829.161410035285	1275.80004882813
829.87944380855	1278.40002441406
830.597387714798	1278
831.315241761898	1286
832.033005957715	1289.19995117188
832.750680310119	1282.40002441406
833.468264826969	1283.59997558594
834.18575951614	1283.59997558594
834.903164385486	1293.40002441406
835.620479442878	1298
836.337704696181	1288
837.054840153255	1299
837.771885821962	1297
838.488841710172	1299.40002441406
839.20570782574	1292.40002441406
839.922484176531	1289
840.639170770409	1283
841.355767615231	1282.40002441406
842.072274718864	1284.80004882813
842.788692089164	1293.80004882813
843.505019733993	1294.40002441406
844.221257661209	1295.80004882813
844.937405878676	1295.59997558594
845.65346439425	1290.59997558594
846.369433215789	1293.19995117188
847.085312351156	1284.40002441406
847.801101808205	1291.40002441406
848.516801594793	1288.40002441406
849.232411718781	1290.19995117188
849.947932188021	1289.59997558594
850.663363010376	1286.59997558594
851.378704193698	1300.80004882813
852.093955745842	1292.19995117188
852.809117674669	1292.40002441406
853.524189988028	1296
854.239172693778	1297.80004882813
854.954065799768	1291
855.668869313857	1289.80004882813
856.383583243899	1289.19995117188
857.098207597743	1291.59997558594
857.812742383246	1277.40002441406
858.527187608255	1285.40002441406
859.241543280628	1282.80004882813
859.955809408218	1286
860.669985998868	1289.40002441406
861.384073060437	1292.40002441406
862.098070600772	1283.80004882813
862.811978627724	1288.19995117188
863.52579714914	1289
864.239526172873	1292
864.953165706776	1274.40002441406
865.666715758687	1269.59997558594
866.380176336464	1282.80004882813
867.093547447951	1285.59997558594
867.806829100996	1288
868.520021303444	1296.80004882813
869.233124063149	1297.40002441406
869.94613738795	1297.19995117188
870.659061285693	1303.19995117188
871.37189576423	1292.19995117188
872.084640831403	1278.59997558594
872.797296495057	1277.80004882813
873.509862763039	1277.59997558594
874.22233964319	1269.80004882813
874.934727143353	1277.40002441406
875.647025271374	1274.80004882813
876.359234035097	1289.40002441406
877.071353442361	1283.59997558594
877.783383501015	1286.59997558594
878.495324218895	1277.80004882813
879.207175603844	1278.19995117188
879.918937663705	1266.59997558594
880.630610406318	1262.19995117188
881.342193839524	1267.19995117188
882.053687971161	1270.80004882813
882.765092809069	1281.19995117188
883.476408361091	1287
884.187634635066	1293.80004882813
884.898771638828	1286.19995117188
885.609819380221	1279.40002441406
886.320777867076	1272.19995117188
887.031647107236	1266.59997558594
887.742427108536	1270.59997558594
888.453117878816	1286.80004882813
889.16371942591	1286.40002441406
889.874231757652	1279.19995117188
890.584654881883	1287.19995117188
891.294988806434	1272.40002441406
892.005233539141	1264
892.715389087837	1259.40002441406
893.42545546036	1269.59997558594
894.135432664543	1264.80004882813
894.845320708216	1273.40002441406
895.555119599216	1267.19995117188
896.264829345375	1276.40002441406
896.974449954526	1269
897.683981434496	1282
898.393423793125	1279.40002441406
899.102777038235	1282.80004882813
899.812041177664	1263.80004882813
900.521216219239	1263.19995117188
901.230302170793	1261.59997558594
901.939299040155	1261.80004882813
902.64820683515	1277.59997558594
903.357025563612	1280.19995117188
904.065755233368	1291.40002441406
904.774395852247	1293.59997558594
905.482947428076	1296.40002441406
906.191409968682	1284.40002441406
906.899783481897	1290.80004882813
907.608067975538	1285
908.316263457443	1283.59997558594
909.02436993543	1281.40002441406
909.732387417327	1278.19995117188
910.440315910959	1276.40002441406
911.148155424154	1277.80004882813
911.855905964731	1275.80004882813
912.563567540521	1278.40002441406
913.271140159339	1267.40002441406
913.978623829017	1266.40002441406
914.686018557374	1271.80004882813
915.393324352237	1283
916.100541221421	1281.80004882813
916.807669172752	1284.19995117188
917.514708214054	1279.40002441406
918.221658353142	1286.59997558594
918.928519597843	1291.80004882813
919.635291955976	1290.19995117188
920.341975435358	1294.19995117188
921.048570043813	1295.80004882813
921.75507578916	1286.59997558594
922.461492679212	1302
923.167820721795	1301
923.874059924726	1306.80004882813
924.58021029582	1305.40002441406
925.286271842893	1314.19995117188
925.992244573769	1308.59997558594
926.698128496262	1291.80004882813
927.403923618184	1307.80004882813
928.109629947355	1293.19995117188
928.815247491593	1284.19995117188
929.520776258708	1279.40002441406
930.226216256519	1284.80004882813
930.931567492841	1294.40002441406
931.636829975482	1289.80004882813
932.342003712263	1284
933.047088710995	1280
933.752084979491	1286.59997558594
934.456992525564	1294.19995117188
935.161811357024	1281
935.866541481688	1285.80004882813
936.571182907363	1274.19995117188
937.275735641861	1272.80004882813
937.980199692995	1266.59997558594
938.684575068572	1260.59997558594
939.388861776411	1261
940.093059824311	1260.40002441406
940.797169220085	1268.80004882813
941.501189971544	1259.59997558594
942.205122086495	1257.80004882813
942.908965572751	1262.59997558594
943.612720438111	1261.19995117188
944.316386690391	1260.59997558594
945.019964337391	1264.19995117188
945.723453386924	1255
946.426853846795	1272
947.130165724808	1263.59997558594
947.83338902877	1267.80004882813
948.536523766488	1252
949.239569945764	1269
949.942527574402	1269.40002441406
950.64539666021	1273.40002441406
951.348177210993	1271.80004882813
952.050869234548	1260.59997558594
952.753472738683	1262.59997558594
953.455987731199	1262.80004882813
954.158414219898	1245.59997558594
954.860752212587	1254.80004882813
955.563001717061	1250.59997558594
956.265162741124	1247.59997558594
956.967235292576	1256
957.669219379224	1256.40002441406
958.371115008857	1259.80004882813
959.072922189283	1258.59997558594
959.774640928301	1251.80004882813
960.476271233708	1257.40002441406
961.177813113301	1268.59997558594
961.879266574882	1261
962.580631626248	1264.59997558594
963.281908275194	1260.19995117188
963.98309652952	1267
964.684196397022	1268.59997558594
965.3852078855	1247.59997558594
966.086131002745	1246.19995117188
966.786965756555	1256.19995117188
967.487712154726	1258.19995117188
968.188370205055	1249.40002441406
968.888939915331	1249.59997558594
969.589421293352	1248.59997558594
970.289814346909	1253.59997558594
970.990119083801	1259.80004882813
971.690335511819	1262.59997558594
972.39046363875	1263
973.090503472398	1266.19995117188
973.790455020545	1260
974.490318290987	1268
975.190093291516	1261
975.889780029923	1258.40002441406
976.589378513998	1257.40002441406
977.288888751527	1263
977.988310750308	1261.40002441406
978.687644518122	1259.40002441406
979.386890062767	1262.59997558594
980.086047392025	1273
980.785116513689	1265.40002441406
981.484097435542	1263
982.182990165377	1262.59997558594
982.88179471098	1255.80004882813
983.580511080137	1247.40002441406
984.279139280632	1247.40002441406
984.977679320253	1253
985.67613120679	1252.40002441406
986.374494948027	1257.19995117188
987.072770551745	1265.40002441406
987.770958025731	1271.80004882813
988.469057377772	1266.59997558594
989.167068615649	1266.40002441406
989.864991747145	1263.40002441406
990.562826780047	1257.80004882813
991.260573722134	1262.80004882813
991.958232581195	1250
992.655803365003	1260.19995117188
993.353286081346	1253.80004882813
994.050680738006	1251.19995117188
994.74798734276	1251.19995117188
995.44520590339	1243.80004882813
996.142336427681	1242.19995117188
996.839378923407	1248.19995117188
997.536333398348	1252.80004882813
998.233199860289	1227.40002441406
998.929978317004	1243.40002441406
999.626668776274	1247.59997558594
1000.32327124587	1258.19995117188
1001.01978573359	1254.40002441406
1001.71621224718	1251.59997558594
1002.41255079445	1263
1003.10880138315	1253.40002441406
1003.80496402107	1257
1004.50103871599	1257.59997558594
1005.19702547567	1248.80004882813
1005.8929243079	1257.19995117188
1006.58873522045	1254.40002441406
1007.2844582211	1266.19995117188
1007.98009331761	1262.80004882813
1008.67564051776	1263
1009.37109982933	1251.19995117188
1010.06647126009	1248
1010.7617548178	1240.40002441406
1011.45695051026	1241.19995117188
1012.15205834522	1263.59997558594
1012.84707833045	1262.80004882813
1013.54201047373	1257.59997558594
1014.23685478284	1253.80004882813
1014.93161126553	1262.80004882813
1015.62627992959	1260.80004882813
1016.32086078277	1267.80004882813
1017.01535383285	1260.19995117188
1017.70975908761	1258.19995117188
1018.40407655479	1262.40002441406
1019.09830624219	1258.40002441406
1019.79244815755	1251
1020.48650230866	1244.40002441406
1021.18046870328	1241.40002441406
1021.87434734917	1241.59997558594
1022.56813825411	1238.40002441406
1023.26184142584	1252.59997558594
1023.95545687216	1254.40002441406
1024.64898460082	1257.19995117188
1025.34242461957	1265
1026.0357769362	1259.59997558594
1026.72904155846	1253.19995117188
1027.42221849412	1259.80004882813
1028.11530775094	1252
1028.80830933668	1251.80004882813
1029.50122325911	1258
1030.19404952599	1249.80004882813
1030.88678814508	1251
1031.57943912414	1250.80004882813
1032.27200247093	1252
1032.96447819323	1261.80004882813
1033.65686629878	1254.80004882813
1034.34916679534	1260.19995117188
1035.04137969068	1254.80004882813
1035.73350499256	1265.19995117188
1036.42554270874	1265.19995117188
1037.11749284697	1259.59997558594
1037.80935541501	1265.59997558594
1038.50113042062	1266.19995117188
1039.19281787156	1257
1039.88441777559	1244.80004882813
1040.57593014046	1247.40002441406
1041.26735497393	1258.19995117188
1041.95869228376	1251.40002441406
1042.6499420777	1255.80004882813
1043.3411043635	1250
1044.03217914893	1252.40002441406
1044.72316644174	1253.19995117188
1045.41406624968	1241.19995117188
1046.1048785805	1241.40002441406
1046.79560344197	1237
1047.48624084182	1244.40002441406
1048.17679078783	1252.80004882813
1048.86725328774	1258.59997558594
1049.55762834929	1254.40002441406
1050.24791598025	1247.19995117188
1050.93811618837	1250.80004882813
1051.62822898139	1252.19995117188
1052.31825436707	1240.80004882813
1053.00819235315	1241.19995117188
1053.6980429474	1245.80004882813
1054.38780615755	1248.80004882813
1055.07748199136	1245.80004882813
1055.76707045658	1245.59997558594
1056.45657156095	1242.59997558594
1057.14598531222	1238
1057.83531171814	1241
1058.52455078646	1233
1059.21370252494	1246.40002441406
1059.90276694129	1238.80004882813
1060.5917440433	1240.19995117188
1061.28063383868	1231
1061.9694363352	1229.59997558594
1062.65815154059	1227.80004882813
1063.34677946261	1233
1064.03532010899	1231.59997558594
1064.72377348748	1238
1065.41213960583	1240.40002441406
1066.10041847177	1250.59997558594
1066.78861009306	1244.59997558594
1067.47671447743	1239
1068.16473163263	1229.59997558594
1068.85266156639	1230.80004882813
1069.54050428647	1242.59997558594
1070.2282598006	1235.80004882813
1070.91592811652	1231.80004882813
1071.60350924198	1229.59997558594
1072.29100318471	1221.40002441406
1072.97840995245	1223
1073.66572955295	1212
1074.35296199394	1228.80004882813
1075.04010728316	1224
1075.72716542836	1232.19995117188
1076.41413643726	1230.19995117188
1077.10102031761	1234.19995117188
1077.78781707715	1236.80004882813
1078.4745267236	1220.19995117188
1079.16114926471	1220.59997558594
1079.84768470822	1216.19995117188
1080.53413306185	1227.59997558594
1081.22049433336	1233.59997558594
1081.90676853046	1243.59997558594
1082.5929556609	1239.80004882813
1083.27905573241	1234.19995117188
1083.96506875272	1242.80004882813
1084.65099472957	1252
1085.3368336707	1243.40002441406
1086.02258558383	1244
1086.70825047669	1239
1087.39382835703	1224.59997558594
1088.07931923257	1225.40002441406
1088.76472311104	1224.19995117188
1089.45004000018	1224
1090.13526990771	1226
1090.82041284137	1238
1091.50546880889	1244
1092.19043781799	1246
1092.87531987642	1240.19995117188
1093.56011499188	1234.80004882813
1094.24482317212	1247.19995117188
1094.92944442486	1230.40002441406
1095.61397875783	1234.40002441406
1096.29842617876	1236.19995117188
1096.98278669537	1226.80004882813
1097.6670603154	1244.40002441406
1098.35124704656	1233.80004882813
1099.03534689659	1232
1099.71935987322	1226.80004882813
1100.40328598416	1221.80004882813
1101.08712523713	1236.19995117188
1101.77087763988	1241.59997558594
1102.45454320012	1239
1103.13812192557	1243.59997558594
1103.82161382396	1243.80004882813
1104.50501890301	1235.80004882813
1105.18833717045	1234
1105.87156863399	1237.59997558594
1106.55471330137	1218.59997558594
1107.2377711803	1225
1107.9207422785	1215.40002441406
1108.60362660369	1225.40002441406
1109.2864241636	1233.80004882813
1109.96913496594	1225.59997558594
1110.65175901844	1212.80004882813
1111.33429632882	1227
1112.01674690479	1232.19995117188
1112.69911075408	1228
1113.38138788439	1233.19995117188
1114.06357830346	1234
1114.745682019	1248
1115.42769903872	1242.19995117188
1116.10962937035	1240
1116.7914730216	1240.40002441406
1117.47323000018	1241.40002441406
1118.15490031382	1241.59997558594
1118.83648397022	1239
1119.51798097712	1236.59997558594
1120.1993913422	1239
1120.88071507321	1231.40002441406
1121.56195217784	1231
1122.24310266381	1222.59997558594
1122.92416653884	1233.19995117188
1123.60514381064	1227.19995117188
1124.28603448692	1230
1124.9668385754	1241.19995117188
1125.64755608378	1224.19995117188
1126.32818701978	1223.19995117188
1127.00873139111	1228
1127.68918920548	1233.59997558594
1128.3695604706	1236.40002441406
1129.04984519419	1239.59997558594
1129.73004338394	1241.59997558594
1130.41015504758	1237.40002441406
1131.09018019281	1233.40002441406
1131.77011882734	1245.80004882813
1132.44997095888	1241.80004882813
1133.12973659514	1239.19995117188
1133.80941574381	1233.59997558594
1134.48900841263	1239.80004882813
1135.16851460927	1229
1135.84793434147	1224.59997558594
1136.52726761692	1239.59997558594
1137.20651444333	1233.19995117188
1137.8856748284	1237.19995117188
1138.56474877984	1233.80004882813
1139.24373630536	1223.59997558594
1139.92263741265	1231.80004882813
1140.60145210943	1221.40002441406
1141.28018040339	1222.80004882813
1141.95882230225	1221
1142.6373778137	1218.40002441406
1143.31584694545	1219.19995117188
1143.99422970519	1219.40002441406
1144.67252610064	1218.19995117188
1145.35073613949	1225.80004882813
1146.02885982944	1222.59997558594
1146.7068971782	1219.40002441406
1147.38484819347	1212.40002441406
1148.06271288294	1204.40002441406
1148.74049125432	1206.19995117188
1149.41818331531	1215.40002441406
1150.0957890736	1211
1150.77330853689	1217.19995117188
1151.45074171289	1225.80004882813
1152.12808860928	1219
1152.80534923378	1222.80004882813
1153.48252359407	1237.59997558594
1154.15961169786	1225.59997558594
1154.83661355283	1230.19995117188
1155.51352916669	1226.40002441406
1156.19035854713	1219.19995117188
1156.86710170185	1227
1157.54375863855	1215.59997558594
1158.22032936491	1209.40002441406
1158.89681388863	1218.19995117188
1159.57321221741	1216.19995117188
1160.24952435894	1214.80004882813
1160.92575032092	1211.80004882813
1161.60189011103	1210.59997558594
1162.27794373697	1216.80004882813
1162.95391120644	1215.59997558594
1163.62979252712	1222.40002441406
1164.3055877067	1204.19995117188
1164.98129675288	1209.59997558594
1165.65691967336	1212.19995117188
1166.33245647581	1213
1167.00790716792	1222.19995117188
1167.6832717574	1227
1168.35855025193	1234.59997558594
1169.0337426592	1225.80004882813
1169.70884898689	1214.40002441406
1170.3838692427	1223.59997558594
1171.05880343431	1229.80004882813
1171.73365156941	1226.80004882813
1172.40841365569	1238.80004882813
1173.08308970083	1235.19995117188
1173.75767971253	1228.40002441406
1174.43218369847	1235
1175.10660166633	1236.80004882813
1175.7809336238	1244
1176.45517957857	1250.59997558594
1177.12933953832	1235
1177.80341351073	1240.59997558594
1178.47740150349	1227.59997558594
1179.15130352429	1224.80004882813
1179.8251195808	1222.80004882813
1180.49884968071	1234.40002441406
1181.1724938317	1239.59997558594
1181.84605204145	1236.40002441406
1182.51952431766	1242.80004882813
1183.19291066799	1247.19995117188
1183.86621110013	1242.40002441406
1184.53942562176	1246.40002441406
1185.21255424057	1241
1185.88559696422	1241
1186.55855380041	1234.40002441406
1187.2314247568	1228.80004882813
1187.90420984109	1234.59997558594
1188.57690906095	1229.59997558594
1189.24952242405	1230.19995117188
1189.92204993808	1235.80004882813
1190.59449161071	1243.40002441406
1191.26684744962	1236.80004882813
1191.93911746249	1238.40002441406
1192.61130165699	1241.59997558594
1193.28340004081	1246
1193.95541262161	1254.80004882813
1194.62733940707	1257.59997558594
1195.29918040487	1246.40002441406
1195.97093562269	1239.40002441406
1196.64260506819	1239
1197.31418874905	1246
1197.98568667295	1243
1198.65709884755	1227.40002441406
1199.32842528053	1233.40002441406
1199.99966597957	1227.40002441406
1200.67082095234	1223.80004882813
1201.3418902065	1221.40002441406
1202.01287374974	1230.19995117188
1202.68377158971	1218.40002441406
1203.3545837341	1221.59997558594
1204.02531019057	1222
1204.6959509668	1226
1205.36650607045	1225.40002441406
1206.03697550919	1225.19995117188
1206.70735929069	1223
1207.37765742263	1217.40002441406
1208.04786991266	1222.40002441406
1208.71799676846	1208.40002441406
1209.38803799769	1196.40002441406
1210.05799360803	1202
1210.72786360714	1195
1211.39764800268	1202.59997558594
1212.06734680233	1198.59997558594
1212.73696001375	1203
1213.4064876446	1200.59997558594
1214.07592970255	1201.40002441406
1214.74528619526	1213.59997558594
1215.4145571304	1209.19995117188
1216.08374251564	1206.19995117188
1216.75284235863	1201
1217.42185666704	1209.59997558594
1218.09078544854	1208.40002441406
1218.75962871078	1200.40002441406
1219.42838646143	1204.40002441406
1220.09705870816	1200.59997558594
1220.76564545861	1209.59997558594
1221.43414672046	1204.59997558594
1222.10256250136	1212.40002441406
1222.77089280898	1209
1223.43913765098	1200.40002441406
1224.107297035	1192.59997558594
1224.77537096873	1189.80004882813
1225.44335945981	1191
1226.1112625159	1197.19995117188
1226.77908014467	1205.80004882813
1227.44681235376	1200.59997558594
1228.11445915085	1209
1228.78202054357	1211.19995117188
1229.44949653961	1208.40002441406
1230.11688714659	1215.80004882813
1230.7841923722	1200.19995117188
1231.45141222407	1197.59997558594
1232.11854670988	1202.40002441406
1232.78559583726	1204
1233.45255961388	1203.80004882813
1234.1194380474	1205.59997558594
1234.78623114546	1206.40002441406
1235.45293891572	1203
1236.11956136583	1204.19995117188
1236.78609850345	1200.59997558594
1237.45255033623	1196.40002441406
1238.11891687182	1198.80004882813
1238.78519811788	1193.19995117188
1239.45139408205	1205.59997558594
1240.11750477198	1216
1240.78353019534	1211.59997558594
1241.44947035976	1200.40002441406
1242.11532527291	1206.40002441406
1242.78109494242	1203.80004882813
1243.44677937595	1197.19995117188
1244.11237858115	1194.19995117188
1244.77789256567	1182.59997558594
1245.44332133715	1181.19995117188
1246.10866490325	1193
1246.7739232716	1186.80004882813
1247.43909644987	1196.40002441406
1248.10418444569	1190.80004882813
1248.76918726671	1189.19995117188
1249.43410492059	1183.59997558594
1250.09893741496	1190.40002441406
1250.76368475747	1185.80004882813
1251.42834695576	1185.19995117188
1252.09292401749	1183.19995117188
1252.75741595029	1188.40002441406
1253.42182276182	1180
1254.08614445971	1191.40002441406
1254.75038105161	1196
1255.41453254515	1189.40002441406
1256.07859894799	1200.80004882813
1256.74258026777	1204.59997558594
1257.40647651213	1199.40002441406
1258.0702876887	1201.19995117188
1258.73401380514	1201.40002441406
1259.39765486908	1194.59997558594
1260.06121088817	1194.40002441406
1260.72468187004	1200
1261.38806782233	1181.59997558594
1262.05136875269	1193.19995117188
1262.71458466875	1192.19995117188
1263.37771557815	1194.59997558594
1264.04076148854	1194.80004882813
1264.70372240753	1185.59997558594
1265.3665983428	1188.40002441406
1266.02938930195	1181.80004882813
1266.69209529263	1182.19995117188
1267.35471632249	1187.59997558594
1268.01725239914	1195.80004882813
1268.67970353024	1195
1269.34206972342	1197
1270.00435098631	1189.40002441406
1270.66654732655	1183.59997558594
1271.32865875177	1188.80004882813
1271.9906852696	1188.80004882813
1272.65262688768	1189.80004882813
1273.31448361365	1192.40002441406
1273.97625545514	1194.19995117188
1274.63794241978	1188.40002441406
1275.2995445152	1183.19995117188
1275.96106174903	1182.40002441406
1276.62249412892	1187
1277.28384166248	1191.80004882813
1277.94510435735	1195
1278.60628222116	1187.80004882813
1279.26737526155	1190.40002441406
1279.92838348613	1186
1280.58930690255	1183.80004882813
1281.25014551842	1200
1281.91089934139	1191.80004882813
1282.57156837907	1192.40002441406
1283.2321526391	1178.40002441406
1283.89265212911	1179.80004882813
1284.55306685671	1182.40002441406
1285.21339682955	1186
1285.87364205525	1189.40002441406
1286.53380254142	1185.40002441406
1287.19387829571	1193.19995117188
1287.85386932573	1195.19995117188
1288.51377563911	1199.19995117188
1289.17359724348	1203.80004882813
1289.83333414646	1201.40002441406
1290.49298635567	1200.59997558594
1291.15255387874	1202.19995117188
1291.8120367233	1196.40002441406
1292.47143489696	1201.40002441406
1293.13074840736	1194.40002441406
1293.7899772621	1188.59997558594
1294.44912146882	1194.80004882813
1295.10818103513	1193.80004882813
1295.76715596866	1195.40002441406
1296.42604627704	1177
1297.08485196787	1178.59997558594
1297.74357304878	1170
1298.4022095274	1181.80004882813
1299.06076141134	1188.40002441406
1299.71922870821	1192.19995117188
1300.37761142565	1182.80004882813
1301.03590957126	1180.80004882813
1301.69412315268	1183
1302.3522521775	1197
1303.01029665336	1194.19995117188
1303.66825658787	1197.80004882813
1304.32613198865	1205.19995117188
1304.98392286332	1199.40002441406
1305.64162921948	1202.59997558594
1306.29925106476	1217
1306.95678840677	1205.40002441406
1307.61424125312	1203.40002441406
1308.27160961145	1215.80004882813
1308.92889348934	1207.80004882813
1309.58609289443	1205.19995117188
1310.24320783432	1205.80004882813
1310.90023831664	1207
1311.55718434898	1205.19995117188
1312.21404593897	1205
1312.87082309421	1211.80004882813
1313.52751582233	1210.80004882813
1314.18412413092	1218.80004882813
1314.84064802761	1219.19995117188
1315.49708752	1217.40002441406
1316.1534426157	1212
1316.80971332233	1213
1317.46589964749	1212.19995117188
1318.1220015988	1209.80004882813
1318.77801918386	1197
1319.43395241028	1197.19995117188
1320.08980128567	1196.59997558594
1320.74556581764	1202.59997558594
1321.4012460138	1195.40002441406
1322.05684188176	1199.19995117188
1322.71235342911	1191.40002441406
1323.36778066347	1196.59997558594
1324.02312359245	1200.80004882813
1324.67838222365	1194.19995117188
1325.33355656468	1200.59997558594
1325.98864662314	1193.59997558594
1326.64365240663	1189.80004882813
1327.29857392277	1194.59997558594
1327.95341117915	1190.40002441406
1328.60816418339	1197.80004882813
1329.26283294308	1185.19995117188
1329.91741746582	1190.59997558594
1330.57191775923	1193.19995117188
1331.2263338309	1188.59997558594
1331.88066568843	1191.19995117188
1332.53491333943	1190.40002441406
1333.1890767915	1191
1333.84315605224	1185
1334.49715112925	1193
1335.15106203013	1185.80004882813
1335.80488876249	1189.19995117188
1336.45863133391	1189.19995117188
1337.112289752	1190.19995117188
1337.76586402437	1198
1338.4193541586	1196.80004882813
1339.0727601623	1199
1339.72608204306	1192
1340.37931980849	1190.59997558594
1341.03247346617	1198.40002441406
1341.68554302372	1189.80004882813
1342.33852848871	1196.59997558594
1342.99142986876	1198
1343.64424717145	1206.19995117188
1344.29698040438	1204.80004882813
1344.94962957515	1202.59997558594
1345.60219469135	1210
1346.25467576058	1209.19995117188
1346.90707279042	1209.19995117188
1347.55938578848	1199.19995117188
1348.21161476235	1203.40002441406
1348.86375971962	1201.80004882813
1349.51582066787	1201
1350.16779761472	1216.59997558594
1350.81969056774	1216.40002441406
1351.47149953453	1206.40002441406
1352.12322452269	1214
1352.77486553979	1215
1353.42642259344	1220.40002441406
1354.07789569122	1223.59997558594
1354.72928484072	1226.19995117188
1355.38059004953	1224
1356.03181132525	1228
1356.68294867545	1234.80004882813
1357.33400210773	1229
1357.98497162968	1228.59997558594
1358.63585724889	1235.80004882813
1359.28665897294	1243.80004882813
1359.93737680942	1242.40002441406
1360.58801076591	1244.80004882813
1361.23856085001	1250
1361.88902706929	1239.19995117188
1362.53940943135	1247.19995117188
1363.18970794377	1255.80004882813
1363.83992261413	1260.80004882813
1364.49005345003	1241
1365.14010045904	1242.19995117188
1365.79006364874	1235.19995117188
1366.43994302673	1238.59997558594
1367.08973860058	1233.59997558594
1367.73945037788	1231.40002441406
1368.38907836621	1212
1369.03862257315	1200.80004882813
1369.68808300629	1214
1370.3374596732	1203.80004882813
1370.98675258148	1201.19995117188
1371.63596173868	1199.59997558594
1372.28508715241	1202.19995117188
1372.93412883024	1195.40002441406
1373.58308677974	1204
1374.2319610085	1193.40002441406
1374.8807515241	1187.59997558594
1375.52945833412	1188.19995117188
1376.17808144612	1186
1376.82662086771	1177
1377.47507660644	1177.80004882813
1378.12344866989	1169.80004882813
1378.77173706565	1162
1379.41994180129	1162.40002441406
1380.06806288439	1163.40002441406
1380.71610032252	1168
1381.36405412326	1165.19995117188
1382.01192429419	1165.59997558594
1382.65971084287	1182.19995117188
1383.30741377688	1180.80004882813
1383.95503310381	1167.59997558594
1384.60256883121	1166.80004882813
1385.25002096667	1174.19995117188
1385.89738951775	1175.19995117188
1386.54467449204	1171.59997558594
1387.19187589709	1162.59997558594
1387.8389937405	1167.59997558594
1388.48602802982	1170.59997558594
1389.13297877262	1165.59997558594
1389.77984597649	1175.40002441406
1390.42662964899	1159.40002441406
1391.07332979768	1162.80004882813
1391.71994643015	1161.59997558594
1392.36647955395	1165.59997558594
1393.01292917667	1159.19995117188
1393.65929530586	1162
1394.3055779491	1166.80004882813
1394.95177711395	1161.80004882813
1395.59789280799	1154.19995117188
1396.24392503877	1150.59997558594
1396.88987381387	1159.80004882813
1397.53573914086	1164.19995117188
1398.1815210273	1171
1398.82721948075	1159.40002441406
1399.47283450878	1160.80004882813
1400.11836611897	1165.40002441406
1400.76381431886	1155.80004882813
1401.40917911603	1165.80004882813
1402.05446051805	1166
1402.69965853247	1167.80004882813
1403.34477316686	1163.40002441406
1403.98980442878	1162.40002441406
1404.6347523258	1165.19995117188
1405.27961686548	1158
1405.92439805538	1162.19995117188
1406.56909590306	1171.80004882813
1407.21371041608	1162
1407.85824160202	1159
1408.50268946841	1158
1409.14705402284	1165.40002441406
1409.79133527285	1174
1410.43553322601	1173.40002441406
1411.07964788987	1160.80004882813
1411.723679272	1162.80004882813
1412.36762737996	1153
1413.01149222129	1154.59997558594
1413.65527380357	1147.40002441406
1414.29897213435	1140.19995117188
1414.94258722118	1150.19995117188
1415.58611907163	1156
1416.22956769325	1152.19995117188
1416.87293309359	1151.19995117188
1417.51621528021	1150.80004882813
1418.15941426067	1155
1418.80253004253	1141.19995117188
1419.44556263333	1167.59997558594
1420.08851204063	1155.40002441406
1420.731378272	1165.40002441406
1421.37416133497	1160.19995117188
1422.0168612371	1165.40002441406
1422.65947798596	1164
1423.30201158908	1174.59997558594
1423.94446205403	1165.59997558594
1424.58682938835	1173.40002441406
1425.2291135996	1156
1425.87131469532	1157.40002441406
1426.51343268308	1165.19995117188
1427.15546757042	1153.19995117188
1427.79741936488	1155.59997558594
1428.43928807403	1152.19995117188
1429.0810737054	1161
1429.72277626656	1164.59997558594
1430.36439576504	1157.59997558594
1431.00593220841	1166.19995117188
1431.64738560419	1162.59997558594
1432.28875595995	1169.59997558594
1432.93004328324	1174.59997558594
1433.57124758159	1172.40002441406
1434.21236886255	1164.59997558594
1434.85340713368	1155.40002441406
1435.49436240252	1160.40002441406
1436.13523467661	1148.59997558594
1436.77602396349	1157.19995117188
1437.41673027073	1158.80004882813
1438.05735360585	1156.59997558594
1438.69789397641	1157.19995117188
1439.33835138994	1166.59997558594
1439.978725854	1166.40002441406
1440.61901737612	1160
1441.25922596385	1161.59997558594
1441.89935162473	1160.19995117188
1442.53939436631	1161
1443.17935419612	1168.80004882813
1443.81923112171	1161.59997558594
1444.45902515061	1161.40002441406
1445.09873629038	1163.40002441406
1445.73836454854	1162.80004882813
1446.37790993265	1164.19995117188
1447.01737245024	1162
1447.65675210885	1170.59997558594
1448.29604891602	1157.40002441406
1448.93526287928	1161.80004882813
1449.57439400618	1163.40002441406
1450.21344230426	1159.19995117188
1450.85240778105	1160.80004882813
1451.49129044409	1167.59997558594
1452.13009030092	1163.19995117188
1452.76880735907	1156.80004882813
1453.40744162608	1160.40002441406
1454.04599310949	1160
1454.68446181683	1149.59997558594
1455.32284775564	1157.19995117188
1455.96115093345	1154.19995117188
1456.5993713578	1158.40002441406
1457.23750903623	1159.80004882813
1457.87556397626	1155.80004882813
1458.51353618543	1164.19995117188
1459.15142567127	1157.19995117188
1459.78923244132	1159.59997558594
1460.42695650311	1151.80004882813
1461.06459786417	1145.59997558594
1461.70215653203	1161.19995117188
1462.33963251423	1158.19995117188
1462.97702581829	1146.80004882813
1463.61433645175	1147
1464.25156442214	1148.80004882813
1464.88870973699	1154.59997558594
1465.52577240382	1154.19995117188
1466.16275243017	1150.19995117188
1466.79964982356	1158.40002441406
1467.43646459154	1155.19995117188
1468.07319674161	1151.40002441406
1468.70984628132	1160.80004882813
1469.34641321818	1156
1469.98289755974	1163.19995117188
1470.6192993135	1170
1471.25561848701	1167.40002441406
1471.89185508779	1154
1472.52800912336	1149.80004882813
1473.16408060124	1154.80004882813
1473.80006952897	1146.40002441406
1474.43597591407	1147.19995117188
1475.07179976406	1144.59997558594
1475.70754108647	1151
1476.34319988883	1144.40002441406
1476.97877617865	1153.19995117188
1477.61426996345	1141.19995117188
1478.24968125077	1147.59997558594
1478.88501004812	1143.40002441406
1479.52025636303	1140.40002441406
1480.15542020302	1148.59997558594
1480.79050157561	1147
1481.42550048832	1146.59997558594
1482.06041694867	1149
1482.69525096418	1137.80004882813
1483.33000254237	1142.19995117188
1483.96467169077	1142.40002441406
1484.59925841689	1137
1485.23376272825	1147.40002441406
1485.86818463237	1148.80004882813
1486.50252413677	1154
1487.13678124896	1150.80004882813
1487.77095597646	1143.80004882813
1488.4050483268	1155.40002441406
1489.03905830749	1155.80004882813
1489.67298592604	1141.80004882813
1490.30683118996	1138.40002441406
1490.9405941068	1145.80004882813
1491.57427468403	1149
1492.2078729292	1157.40002441406
1492.84138884981	1155.80004882813
1493.47482245338	1157.40002441406
1494.10817374742	1158.80004882813
1494.74144273944	1163.19995117188
1495.37462943696	1150.59997558594
1496.0077338475	1153.80004882813
1496.64075597856	1157.40002441406
1497.27369583765	1153.19995117188
1497.9065534323	1149.40002441406
1498.53932877001	1152.40002441406
1499.17202185829	1162.80004882813
1499.80463270465	1166.40002441406
1500.43716131661	1173.40002441406
1501.06960770167	1174.80004882813
1501.70197186735	1170.40002441406
1502.33425382116	1160.40002441406
1502.96645357059	1165.19995117188
1503.59857112317	1156.40002441406
1504.23060648641	1159.40002441406
1504.8625596678	1161.40002441406
1505.49443067486	1167.59997558594
1506.1262195151	1164
1506.75792619602	1170.80004882813
1507.38955072513	1166.59997558594
1508.02109310993	1172.80004882813
1508.65255335794	1178.19995117188
1509.28393147666	1176.59997558594
1509.91522747359	1181.19995117188
1510.54644135624	1169
1511.17757313212	1175.59997558594
1511.80862280872	1174.40002441406
1512.43959039356	1178.80004882813
1513.07047589413	1175.80004882813
1513.70127931795	1171
1514.33200067251	1163.40002441406
1514.96263996531	1161.19995117188
1515.59319720386	1174.40002441406
1516.22367239567	1171.40002441406
1516.85406554822	1165.19995117188
1517.48437666903	1165.59997558594
1518.1146057656	1165
1518.74475284542	1157
1519.374817916	1149.80004882813
1520.00480098483	1140.59997558594
1520.63470205942	1150.40002441406
1521.26452114726	1140.40002441406
1521.89425825586	1149
1522.52391339271	1143.19995117188
1523.15348656531	1144.40002441406
1523.78297778116	1148.59997558594
1524.41238704775	1149.59997558594
1525.04171437259	1152.80004882813
1525.67095976317	1144.59997558594
1526.30012322699	1142.40002441406
1526.92920477154	1146.40002441406
1527.55820440432	1138
1528.18712213283	1139.40002441406
1528.81595796455	1135.40002441406
1529.44471190699	1133
1530.07338396764	1140.40002441406
1530.70197415399	1149.40002441406
1531.33048247353	1142.19995117188
1531.95890893377	1146.19995117188
1532.58725354219	1138.19995117188
1533.21551630629	1137.19995117188
1533.84369723356	1132
1534.47179633148	1138.19995117188
1535.09981360757	1146.80004882813
1535.72774906929	1146.40002441406
1536.35560272415	1136.59997558594
1536.98337457963	1150.59997558594
1537.61106464323	1136.19995117188
1538.23867292243	1140.80004882813
1538.86619942473	1141
1539.49364415762	1135.80004882813
1540.12100712857	1135.80004882813
1540.74828834509	1136.80004882813
1541.37548781466	1137.19995117188
1542.00260554478	1131
1542.62964154291	1138.19995117188
1543.25659581655	1133.59997558594
1543.8834683732	1138.40002441406
1544.51025922034	1135.80004882813
1545.13696836544	1146.40002441406
1545.76359581601	1139.80004882813
1546.39014157952	1137.19995117188
1547.01660566345	1136.40002441406
1547.64298807531	1127.40002441406
1548.26928882255	1128.80004882813
1548.89550791269	1124.40002441406
1549.52164535318	1119.59997558594
1550.14770115153	1121.19995117188
1550.77367531521	1124.40002441406
1551.39956785171	1113.19995117188
1552.0253787685	1116.40002441406
1552.65110807307	1119.59997558594
1553.2767557729	1119.59997558594
1553.90232187548	1104.40002441406
1554.52780638828	1118
1555.15320931879	1111.59997558594
1555.77853067447	1107
1556.40377046282	1104.80004882813
1557.02892869132	1116
1557.65400536744	1114
1558.27900049866	1112.19995117188
1558.90391409247	1118
1559.52874615633	1129.59997558594
1560.15349669773	1123.59997558594
1560.77816572414	1126
1561.40275324305	1130
1562.02725926192	1129.19995117188
1562.65168378824	1132.80004882813
1563.27602682948	1127.80004882813
1563.90028839311	1126.59997558594
1564.52446848662	1123.40002441406
1565.14856711748	1130.19995117188
1565.77258429316	1137.19995117188
1566.39652002113	1135.19995117188
1567.02037430887	1126.40002441406
1567.64414716387	1125.40002441406
1568.26783859357	1126.80004882813
1568.89144860547	1137.19995117188
1569.51497720703	1128.80004882813
1570.13842440573	1133
1570.76179020904	1132.40002441406
1571.38507462442	1142
1572.00827765936	1141
1572.63139932132	1136.80004882813
1573.25443961777	1130.80004882813
1573.87739855618	1131
1574.50027614402	1136.19995117188
1575.12307238877	1136.19995117188
1575.74578729789	1129.40002441406
1576.36842087885	1129
1576.99097313912	1133.40002441406
1577.61344408616	1135.80004882813
1578.23583372745	1133.19995117188
1578.85814207046	1129
1579.48036912264	1134
1580.10251489147	1131.40002441406
1580.72457938441	1131.40002441406
1581.34656260893	1123.40002441406
1581.9684645725	1111
1582.59028528258	1122.59997558594
1583.21202474663	1119.19995117188
1583.83368297212	1110.59997558594
1584.45525996652	1110
1585.07675573728	1113.19995117188
1585.69817029188	1111.40002441406
1586.31950363778	1109
1586.94075578243	1105
1587.5619267333	1098.59997558594
1588.18301649786	1095.19995117188
1588.80402508357	1100.80004882813
1589.42495249788	1101.40002441406
1590.04579874826	1104.80004882813
1590.66656384217	1103.19995117188
1591.28724778707	1100.40002441406
1591.90785059042	1105.59997558594
1592.52837225968	1106.80004882813
1593.14881280232	1090.80004882813
1593.76917222578	1109.19995117188
1594.38945053753	1118.19995117188
1595.00964774502	1112.59997558594
1595.62976385573	1111.59997558594
1596.24979887709	1109.40002441406
1596.86975281657	1106
1597.48962568164	1110.59997558594
1598.10941747974	1109.19995117188
1598.72912821832	1116
1599.34875790486	1111.19995117188
1599.9683065468	1104.40002441406
1600.58777415159	1111
1601.2071607267	1109
1601.82646627958	1100.40002441406
1602.44569081769	1104.80004882813
1603.06483434846	1098.19995117188
1603.68389687937	1103.40002441406
1604.30287841786	1094.59997558594
1604.92177897139	1097
1605.54059854741	1093.40002441406
1606.15933715337	1093.59997558594
1606.77799479672	1096
1607.39657148492	1093.19995117188
1608.01506722542	1103.80004882813
1608.63348202566	1103.80004882813
1609.2518158931	1102.59997558594
1609.87006883519	1103.80004882813
1610.48824085939	1104.19995117188
1611.10633197312	1106
1611.72434218386	1101.80004882813
1612.34227149904	1095.80004882813
1612.96011992612	1091.40002441406
1613.57788747254	1095
1614.19557414575	1091.40002441406
1614.8131799532	1095.19995117188
1615.43070490234	1093
1616.04814900061	1092.80004882813
1616.66551225545	1094.80004882813
1617.28279467433	1092.80004882813
1617.89999626467	1091.19995117188
1618.51711703393	1092.80004882813
1619.13415698955	1093.19995117188
1619.75111613898	1095.59997558594
1620.36799448966	1095
1620.98479204903	1101.59997558594
1621.60150882455	1109
1622.21814482364	1107
1622.83470005376	1107.19995117188
1623.45117452235	1108.19995117188
1624.06756823685	1113
1624.6838812047	1103.40002441406
1625.30011343335	1106.80004882813
1625.91626493022	1106.40002441406
1626.53233570278	1109.40002441406
1627.14832575845	1106.40002441406
1627.76423510468	1109.59997558594
1628.38006374891	1098.80004882813
1628.99581169857	1097.59997558594
1629.61147896111	1098.19995117188
1630.22706554397	1106
1630.84257145457	1107.59997558594
1631.45799670038	1104.80004882813
1632.07334128881	1102.80004882813
1632.6886052273	1095.19995117188
1633.3037885233	1104.59997558594
1633.91889118425	1095.80004882813
1634.53391321757	1094.40002441406
1635.1488546307	1086
1635.76371543108	1091
1636.37849562616	1092.40002441406
1636.99319522335	1086.59997558594
1637.60781423009	1081.80004882813
1638.22235265383	1088.80004882813
1638.83681050198	1085.80004882813
1639.451187782	1082.19995117188
1640.0654845013	1085
1640.67970066734	1089.19995117188
1641.29383628752	1088
1641.9078913693	1086.80004882813
1642.5218659201	1085.40002441406
1643.13575994735	1087.80004882813
1643.74957345849	1091.80004882813
1644.36330646094	1085.59997558594
1644.97695896213	1100.59997558594
1645.59053096951	1093.19995117188
1646.20402249049	1097.59997558594
1646.8174335325	1101
1647.43076410298	1110.40002441406
1648.04401420935	1113.40002441406
1648.65718385905	1122
1649.2702730595	1114.19995117188
1649.88328181812	1117.80004882813
1650.49621014236	1118.80004882813
1651.10905803963	1116.80004882813
1651.72182551735	1110.80004882813
1652.33451258297	1113.80004882813
1652.9471192439	1102.40002441406
1653.55964550757	1100.40002441406
1654.1720913814	1094.19995117188
1654.78445687283	1091
1655.39674198926	1093.59997558594
1656.00894673814	1084.19995117188
1656.62107112688	1075.40002441406
1657.23311516291	1073
1657.84507885365	1075.19995117188
1658.45696220652	1075
1659.06876522895	1071.80004882813
1659.68048792835	1071.40002441406
1660.29213031217	1071
1660.90369238779	1076.59997558594
1661.51517416267	1073.19995117188
1662.12657564421	1070.59997558594
1662.73789683984	1062.19995117188
1663.34913775697	1062.40002441406
1663.96029840303	1049.80004882813
1664.57137878544	1044.80004882813
1665.18237891161	1046
1665.79329878897	1042.80004882813
1666.40413842493	1045.19995117188
1667.01489782691	1047.59997558594
1667.62557700233	1044.59997558594
1668.2361759586	1046.19995117188
1668.84669470315	1038.80004882813
1669.4571332434	1039.40002441406
1670.06749158675	1039.19995117188
1670.67776974062	1043
1671.28796771243	1037.19995117188
1671.8980855096	1039.59997558594
1672.50812313954	1038
1673.11808060967	1039.59997558594
1673.72795792739	1043.19995117188
1674.33775510013	1044
1674.9474721353	1031.19995117188
1675.55710904031	1033.80004882813
1676.16666582257	1031.80004882813
1676.7761424895	1037.59997558594
1677.38553904851	1039.19995117188
1677.99485550702	1036.40002441406
1678.60409187243	1036
1679.21324815215	1037.80004882813
1679.8223243536	1038.40002441406
1680.43132048419	1036.40002441406
1681.04023655132	1034.19995117188
1681.64907256241	1033
1682.25782852487	1035.59997558594
1682.86650444611	1038.40002441406
1683.47510033353	1036.40002441406
1684.08361619455	1039.40002441406
1684.69205203657	1040.40002441406
1685.300407867	1040
1685.90868369325	1033.80004882813
1686.51687952272	1026.59997558594
1687.12499536283	1036.80004882813
1687.73303122098	1033
1688.34098710457	1028
1688.94886302101	1035.80004882813
1689.55665897772	1039.59997558594
1690.16437498208	1035
1690.77201104152	1031.59997558594
1691.37956716342	1037
1691.9870433552	1029.80004882813
1692.59443962426	1026
1693.20175597801	1030.40002441406
1693.80899242384	1028.80004882813
1694.41614896916	1024.19995117188
1695.02322562138	1019.79998779297
1695.63022238789	1023.79998779297
1696.23713927609	1024.59997558594
1696.8439762934	1023.40002441406
1697.4507334472	1014.79998779297
1698.05741074491	1008
1698.66400819391	1014.40002441406
1699.27052580161	1011.40002441406
1699.87696357542	1008.79998779297
1700.48332152272	1008.40002441406
1701.08959965092	1011.40002441406
1701.69579796742	1009.79998779297
1702.30191647962	1012.59997558594
1702.90795519491	1018.40002441406
1703.51391412069	1013.79998779297
1704.11979326437	1019.20001220703
1704.72559263332	1014.59997558594
1705.33131223496	1018.59997558594
1705.93695207668	1017
1706.54251216588	1007.40002441406
1707.14799250994	1016.40002441406
1707.75339311628	1009
1708.35871399227	1009.40002441406
1708.96395514532	1005.59997558594
1709.56911658282	1007
