634.948122577771	1358
635.690341530823	1349.19995117188
636.43246851086	1372.40002441406
637.174503525845	1371.80004882813
637.916446583745	1370.80004882813
638.658297692538	1377.80004882813
639.400056860179	1380
640.141724094637	1375.40002441406
640.883299403885	1377.19995117188
641.62478279588	1379.40002441406
642.366174278594	1370.59997558594
643.107473859989	1370
643.848681548029	1381.19995117188
644.589797350679	1387.59997558594
645.330821275901	1387.40002441406
646.071753331665	1366
646.812593525922	1363.59997558594
647.553341866646	1359.19995117188
648.293998361798	1372.19995117188
649.03456301933	1352.80004882813
649.775035847216	1365.59997558594
650.515416853409	1361.19995117188
651.255706045874	1368.59997558594
651.995903432568	1370.80004882813
652.736009021453	1371.80004882813
653.476022820486	1374.80004882813
654.215944837629	1368
654.955775080842	1371.59997558594
655.695513558081	1364
656.435160277301	1379.40002441406
657.174715246465	1369.59997558594
657.914178473527	1362.59997558594
658.653549966449	1376.19995117188
659.392829733176	1383.80004882813
660.132017781678	1391
660.871114119901	1378.19995117188
661.610118755803	1384.59997558594
662.349031697343	1365.40002441406
663.087852952468	1376.59997558594
663.826582529139	1362.19995117188
664.565220435305	1367.19995117188
665.30376667892	1361.80004882813
666.04222126794	1356.59997558594
666.780584210316	1350.59997558594
667.518855514	1365
668.25703518694	1387.59997558594
668.995123237096	1383.19995117188
669.733119672413	1384.80004882813
670.471024500842	1374.19995117188
671.208837730333	1377.40002441406
671.946559368839	1388.40002441406
672.684189424308	1387.80004882813
673.421727904689	1384.40002441406
674.159174817929	1397.40002441406
674.896530171977	1388
675.633793974786	1385.80004882813
676.370966234295	1390.40002441406
677.108046958461	1401.19995117188
677.845036155219	1383.59997558594
678.581933832528	1374.80004882813
679.318739998323	1379
680.055454660558	1385.19995117188
680.792077827172	1382.80004882813
681.528609506116	1372.19995117188
682.265049705331	1384.80004882813
683.001398432759	1390.80004882813
683.737655696349	1382
684.47382150404	1379.80004882813
685.20989586378	1390.40002441406
685.945878783503	1381.19995117188
686.68177027116	1387
687.417570334688	1386.40002441406
688.153278982032	1371.19995117188
688.888896221129	1373.80004882813
689.624422059921	1362.59997558594
690.359856506349	1374.59997558594
691.095199568354	1373.19995117188
691.830451253874	1389.19995117188
692.565611570844	1381
693.300680527212	1410.40002441406
694.03565813091	1398.19995117188
694.770544389877	1406.40002441406
695.505339312053	1399.40002441406
696.240042905372	1404.80004882813
696.974655177772	1392.40002441406
697.70917613719	1392
698.443605791561	1383.19995117188
699.177944148826	1378.19995117188
699.912191216909	1377.19995117188
700.646347003755	1390.40002441406
701.380411517295	1392.19995117188
702.114384765465	1376.80004882813
702.848266756195	1400.19995117188
703.582057497421	1400.59997558594
704.315756997074	1405.80004882813
705.049365263089	1392.40002441406
705.782882303399	1390.80004882813
706.516308125936	1407.40002441406
707.249642738626	1392.19995117188
707.982886149403	1411.19995117188
708.716038366204	1413.80004882813
709.449099396949	1416.19995117188
710.182069249577	1408.80004882813
710.914947932009	1404
711.647735452181	1406.80004882813
712.380431818022	1421.40002441406
713.113037037454	1414.59997558594
713.845551118411	1410.59997558594
714.577974068818	1412.19995117188
715.310305896604	1409.19995117188
716.042546609694	1399.40002441406
716.774696216013	1416.40002441406
717.506754723493	1407.59997558594
718.238722140053	1407.40002441406
718.970598473624	1405.40002441406
719.702383732127	1411.80004882813
720.43407792349	1412
721.165681055634	1414.59997558594
721.897193136486	1409.80004882813
722.628614173966	1395.59997558594
723.359944175997	1408
724.091183150505	1392.59997558594
724.822331105412	1404.40002441406
725.553388048638	1393.40002441406
726.284353988106	1408.80004882813
727.015228931734	1405.80004882813
727.746012887449	1393
728.476705863162	1385
729.207307866803	1386.40002441406
729.937818906289	1378.80004882813
730.668238989535	1399.80004882813
731.398568124459	1399
732.128806318986	1404.19995117188
732.858953581034	1392.19995117188
733.589009918514	1404.80004882813
734.318975339348	1408.19995117188
735.048849851452	1405.19995117188
735.778633462744	1399.59997558594
736.508326181137	1394
737.237928014549	1382
737.967438970897	1376.80004882813
738.696859058095	1381.19995117188
739.426188284054	1399.19995117188
740.155426656692	1398
740.884574183922	1395
741.613630873659	1419.80004882813
742.342596733815	1402.80004882813
743.071471772302	1398.19995117188
743.800255997034	1412.40002441406
744.528949415921	1413.80004882813
745.257552036877	1415.59997558594
745.986063867811	1402.40002441406
746.714484916638	1420
747.442815191261	1411
748.171054699597	1404
748.899203449554	1394.59997558594
749.627261449039	1398.40002441406
750.355228705966	1393
751.083105228239	1382.40002441406
751.810891023765	1377.19995117188
752.538586100459	1385.59997558594
753.266190466218	1383
753.99370412896	1391.59997558594
754.721127096582	1396
755.448459377	1405.40002441406
756.175700978114	1411.19995117188
756.902851907828	1402
757.629912174055	1402.59997558594
758.356881784688	1394
759.083760747639	1381
759.810549070817	1387
760.537246762113	1394.80004882813
761.263853829442	1392
761.990370280698	1390
762.716796123791	1386.19995117188
763.443131366618	1398
764.169376017082	1385.40002441406
764.895530083085	1397.40002441406
765.621593572527	1414.80004882813
766.347566493312	1415.59997558594
767.073448853336	1432
767.799240660502	1436.80004882813
768.524941922707	1441
769.250552647854	1453
769.976072843836	1463
770.701502518551	1448.40002441406
771.426841679905	1460
772.152090335793	1456
772.877248494107	1442.59997558594
773.602316162747	1447.19995117188
774.327293349609	1459
775.052180062592	1449.59997558594
775.776976309589	1457.80004882813
776.501682098496	1451.59997558594
777.226297437206	1457
777.950822333616	1437
778.675256795621	1429.80004882813
779.399600831111	1420.59997558594
780.123854447983	1426
780.84801765413	1420.80004882813
781.572090457441	1426.59997558594
782.296072865811	1432.19995117188
783.019964887131	1432.19995117188
783.743766529297	1426.80004882813
784.467477800194	1429.59997558594
785.191098707719	1429
785.914629259756	1429.40002441406
786.638069464194	1411.80004882813
787.361419328932	1413.80004882813
788.084678861852	1411.40002441406
788.807848070845	1424.59997558594
789.530926963798	1429.59997558594
790.253915548602	1417
790.976813833144	1421.19995117188
791.699621825307	1408
792.422339532986	1410
793.144966964061	1406.59997558594
793.86750412642	1401.80004882813
794.589951027946	1396.80004882813
795.312307676536	1392.19995117188
796.03457408006	1395
796.756750246417	1396.19995117188
797.478836183477	1402.40002441406
798.200831899137	1409.19995117188
798.92273740127	1418
799.644552697769	1418.40002441406
800.36627779651	1423
801.087912705374	1416.59997558594
801.809457432251	1409.80004882813
802.530911985017	1416.59997558594
803.252276371558	1423.59997558594
803.973550599748	1418.40002441406
804.694734677472	1414
805.415828612611	1416.80004882813
806.136832413045	1421.19995117188
806.857746086646	1407.19995117188
807.578569641305	1411.40002441406
808.299303084892	1414.40002441406
809.019946425289	1404.59997558594
809.740499670372	1417.19995117188
810.460962828022	1410.80004882813
811.181335906114	1420.59997558594
811.901618912524	1410.40002441406
812.621811855131	1416.40002441406
813.341914741809	1407
814.061927580433	1397.19995117188
814.781850378881	1398
815.501683145025	1404.19995117188
816.221425886743	1384.80004882813
816.941078611903	1403.19995117188
817.660641328387	1405.80004882813
818.380114044065	1398.40002441406
819.099496766808	1396.80004882813
819.818789504492	1397.19995117188
820.53799226499	1388
821.257105056168	1397.40002441406
821.976127885904	1394.40002441406
822.695060762064	1393.80004882813
823.413903692525	1396
824.132656685151	1396.59997558594
824.851319747817	1414.19995117188
825.569892888388	1404
826.288376114739	1402.19995117188
827.006769434737	1406
827.725072856249	1403.19995117188
828.443286387142	1399.40002441406
829.161410035285	1393.19995117188
829.87944380855	1394.40002441406
830.597387714798	1384.59997558594
831.315241761898	1386.59997558594
832.033005957715	1387.59997558594
832.750680310119	1400.80004882813
833.468264826969	1383.40002441406
834.18575951614	1390.80004882813
834.903164385486	1394.19995117188
835.620479442878	1393.40002441406
836.337704696181	1388.40002441406
837.054840153255	1385.80004882813
837.771885821962	1391.80004882813
838.488841710172	1398.40002441406
839.20570782574	1403
839.922484176531	1394.80004882813
840.639170770409	1409.19995117188
841.355767615231	1414.40002441406
842.072274718864	1414
842.788692089164	1399.40002441406
843.505019733993	1416.19995117188
844.221257661209	1428.40002441406
844.937405878676	1429.40002441406
845.65346439425	1412.80004882813
846.369433215789	1413.40002441406
847.085312351156	1402.40002441406
847.801101808205	1388
848.516801594793	1393
849.232411718781	1382.80004882813
849.947932188021	1384.19995117188
850.663363010376	1391.40002441406
851.378704193698	1385.59997558594
852.093955745842	1400.40002441406
852.809117674669	1414.40002441406
853.524189988028	1406.80004882813
854.239172693778	1426.40002441406
854.954065799768	1403.59997558594
855.668869313857	1411.40002441406
856.383583243899	1406.59997558594
857.098207597743	1404.80004882813
857.812742383246	1394
858.527187608255	1390.19995117188
859.241543280628	1395.19995117188
859.955809408218	1384.59997558594
860.669985998868	1376.80004882813
861.384073060437	1395
862.098070600772	1392.40002441406
862.811978627724	1393.80004882813
863.52579714914	1405.40002441406
864.239526172873	1407.59997558594
864.953165706776	1408.40002441406
865.666715758687	1399
866.380176336464	1389.40002441406
867.093547447951	1402.19995117188
867.806829100996	1395.59997558594
868.520021303444	1381.80004882813
869.233124063149	1398
869.94613738795	1390.19995117188
870.659061285693	1399.40002441406
871.37189576423	1404.59997558594
872.084640831403	1411.19995117188
872.797296495057	1394.59997558594
873.509862763039	1391
874.22233964319	1402.80004882813
874.934727143353	1382.59997558594
875.647025271374	1403.59997558594
876.359234035097	1380
877.071353442361	1393.40002441406
877.783383501015	1390.40002441406
878.495324218895	1390.59997558594
879.207175603844	1376.59997558594
879.918937663705	1366
880.630610406318	1363.40002441406
881.342193839524	1368
882.053687971161	1369.40002441406
882.765092809069	1383
883.476408361091	1398.40002441406
884.187634635066	1395.19995117188
884.898771638828	1387.59997558594
885.609819380221	1392.19995117188
886.320777867076	1390
887.031647107236	1384.80004882813
887.742427108536	1388.59997558594
888.453117878816	1377
889.16371942591	1390
889.874231757652	1398.59997558594
890.584654881883	1393
891.294988806434	1400.80004882813
892.005233539141	1391.19995117188
892.715389087837	1382.40002441406
893.42545546036	1386
894.135432664543	1392.40002441406
894.845320708216	1392.59997558594
895.555119599216	1396.19995117188
896.264829345375	1395.40002441406
896.974449954526	1404
897.683981434496	1405.19995117188
898.393423793125	1392.40002441406
899.102777038235	1403.19995117188
899.812041177664	1390.59997558594
900.521216219239	1382
901.230302170793	1376.80004882813
901.939299040155	1372.59997558594
902.64820683515	1397.19995117188
903.357025563612	1388.80004882813
904.065755233368	1394.19995117188
904.774395852247	1400.19995117188
905.482947428076	1405.59997558594
906.191409968682	1408.19995117188
906.899783481897	1402.40002441406
907.608067975538	1386.19995117188
908.316263457443	1387.59997558594
909.02436993543	1390.80004882813
909.732387417327	1389.80004882813
910.440315910959	1398.59997558594
911.148155424154	1392.80004882813
911.855905964731	1395.40002441406
912.563567540521	1383
913.271140159339	1382
913.978623829017	1385.40002441406
914.686018557374	1384
915.393324352237	1393.40002441406
916.100541221421	1393
916.807669172752	1397.19995117188
917.514708214054	1404
918.221658353142	1395.59997558594
918.928519597843	1400
919.635291955976	1418
920.341975435358	1412.80004882813
921.048570043813	1408.40002441406
921.75507578916	1422
922.461492679212	1398.19995117188
923.167820721795	1421.80004882813
923.874059924726	1416.80004882813
924.58021029582	1409.40002441406
925.286271842893	1414.59997558594
925.992244573769	1415.80004882813
926.698128496262	1408
927.403923618184	1398.80004882813
928.109629947355	1403.40002441406
928.815247491593	1392.40002441406
929.520776258708	1398
930.226216256519	1404.19995117188
930.931567492841	1405.59997558594
931.636829975482	1400.40002441406
932.342003712263	1394.40002441406
933.047088710995	1389.19995117188
933.752084979491	1384.19995117188
934.456992525564	1384.19995117188
935.161811357024	1382.59997558594
935.866541481688	1396
936.571182907363	1390.80004882813
937.275735641861	1373.40002441406
937.980199692995	1362.80004882813
938.684575068572	1362.59997558594
939.388861776411	1363.19995117188
940.093059824311	1359
940.797169220085	1366.40002441406
941.501189971544	1374.19995117188
942.205122086495	1362.19995117188
942.908965572751	1359.80004882813
943.612720438111	1362.40002441406
944.316386690391	1360.80004882813
945.019964337391	1377.59997558594
945.723453386924	1371
946.426853846795	1366.40002441406
947.130165724808	1379.59997558594
947.83338902877	1370
948.536523766488	1369.59997558594
949.239569945764	1364.40002441406
949.942527574402	1362
950.64539666021	1369
951.348177210993	1362.59997558594
952.050869234548	1358.59997558594
952.753472738683	1369.19995117188
953.455987731199	1368.40002441406
954.158414219898	1354.59997558594
954.860752212587	1357.19995117188
955.563001717061	1367
956.265162741124	1363
956.967235292576	1354.59997558594
957.669219379224	1349.59997558594
958.371115008857	1360.59997558594
959.072922189283	1358.59997558594
959.774640928301	1354.59997558594
960.476271233708	1359.59997558594
961.177813113301	1371.59997558594
961.879266574882	1361.40002441406
962.580631626248	1366.40002441406
963.281908275194	1375.40002441406
963.98309652952	1360.40002441406
964.684196397022	1373.80004882813
965.3852078855	1358.59997558594
966.086131002745	1356.59997558594
966.786965756555	1357.80004882813
967.487712154726	1351.19995117188
968.188370205055	1370.80004882813
968.888939915331	1354.40002441406
969.589421293352	1363.80004882813
970.289814346909	1375.40002441406
970.990119083801	1374
971.690335511819	1369
972.39046363875	1378.19995117188
973.090503472398	1370
973.790455020545	1364.59997558594
974.490318290987	1367.59997558594
975.190093291516	1358.40002441406
975.889780029923	1351.80004882813
976.589378513998	1349.19995117188
977.288888751527	1350.80004882813
977.988310750308	1353
978.687644518122	1355.80004882813
979.386890062767	1360.40002441406
980.086047392025	1373.59997558594
980.785116513689	1368.80004882813
981.484097435542	1372
982.182990165377	1369.59997558594
982.88179471098	1361.80004882813
983.580511080137	1351
984.279139280632	1363.59997558594
984.977679320253	1364
985.67613120679	1361.59997558594
986.374494948027	1366.40002441406
987.072770551745	1365.80004882813
987.770958025731	1364.80004882813
988.469057377772	1363.59997558594
989.167068615649	1358
989.864991747145	1371.19995117188
990.562826780047	1360.59997558594
991.260573722134	1356.19995117188
991.958232581195	1352.59997558594
992.655803365003	1360
993.353286081346	1359.59997558594
994.050680738006	1355.80004882813
994.74798734276	1367.19995117188
995.44520590339	1363
996.142336427681	1362.40002441406
996.839378923407	1343
997.536333398348	1352.59997558594
998.233199860289	1344
998.929978317004	1333.80004882813
999.626668776274	1337.19995117188
1000.32327124587	1340
1001.01978573359	1338.19995117188
1001.71621224718	1350.59997558594
1002.41255079445	1362
1003.10880138315	1363.40002441406
1003.80496402107	1358.59997558594
1004.50103871599	1362
1005.19702547567	1357.19995117188
1005.8929243079	1349
1006.58873522045	1361.40002441406
1007.2844582211	1355.80004882813
1007.98009331761	1363
1008.67564051776	1359.59997558594
1009.37109982933	1354.59997558594
1010.06647126009	1354.80004882813
1010.7617548178	1346.80004882813
1011.45695051026	1335.80004882813
1012.15205834522	1338.40002441406
1012.84707833045	1341.59997558594
1013.54201047373	1337.19995117188
1014.23685478284	1334.19995117188
1014.93161126553	1340.59997558594
1015.62627992959	1347
1016.32086078277	1352.40002441406
1017.01535383285	1366.80004882813
1017.70975908761	1359.40002441406
1018.40407655479	1370.80004882813
1019.09830624219	1354
1019.79244815755	1362.59997558594
1020.48650230866	1350.40002441406
1021.18046870328	1343
1021.87434734917	1335
1022.56813825411	1339.40002441406
1023.26184142584	1346.40002441406
1023.95545687216	1350.40002441406
1024.64898460082	1339.19995117188
1025.34242461957	1357.19995117188
1026.0357769362	1351.80004882813
1026.72904155846	1339.59997558594
1027.42221849412	1345.80004882813
1028.11530775094	1340.19995117188
1028.80830933668	1344.59997558594
1029.50122325911	1330.80004882813
1030.19404952599	1331.19995117188
1030.88678814508	1335.19995117188
1031.57943912414	1339
1032.27200247093	1342.59997558594
1032.96447819323	1348.59997558594
1033.65686629878	1348.80004882813
1034.34916679534	1354.19995117188
1035.04137969068	1359.40002441406
1035.73350499256	1355.59997558594
1036.42554270874	1364.80004882813
1037.11749284697	1368.59997558594
1037.80935541501	1372.19995117188
1038.50113042062	1364.80004882813
1039.19281787156	1357
1039.88441777559	1354.80004882813
1040.57593014046	1342.59997558594
1041.26735497393	1367.19995117188
1041.95869228376	1359.59997558594
1042.6499420777	1356.19995117188
1043.3411043635	1351
1044.03217914893	1351.59997558594
1044.72316644174	1362.19995117188
1045.41406624968	1353.59997558594
1046.1048785805	1342.40002441406
1046.79560344197	1345.19995117188
1047.48624084182	1354.19995117188
1048.17679078783	1357.80004882813
1048.86725328774	1351.80004882813
1049.55762834929	1351
1050.24791598025	1359.59997558594
1050.93811618837	1351.59997558594
1051.62822898139	1349.80004882813
1052.31825436707	1336.40002441406
1053.00819235315	1342.59997558594
1053.6980429474	1340
1054.38780615755	1344.80004882813
1055.07748199136	1342.59997558594
1055.76707045658	1347.80004882813
1056.45657156095	1347
1057.14598531222	1347.19995117188
1057.83531171814	1338.59997558594
1058.52455078646	1337.59997558594
1059.21370252494	1350.80004882813
1059.90276694129	1346.40002441406
1060.5917440433	1339.59997558594
1061.28063383868	1344.40002441406
1061.9694363352	1339.19995117188
1062.65815154059	1337
1063.34677946261	1335.80004882813
1064.03532010899	1325.19995117188
1064.72377348748	1336
1065.41213960583	1338.19995117188
1066.10041847177	1337.80004882813
1066.78861009306	1337.80004882813
1067.47671447743	1334.80004882813
1068.16473163263	1323.19995117188
1068.85266156639	1320.59997558594
1069.54050428647	1326.80004882813
1070.2282598006	1318.59997558594
1070.91592811652	1325.19995117188
1071.60350924198	1329.80004882813
1072.29100318471	1336
1072.97840995245	1329.80004882813
1073.66572955295	1322.59997558594
1074.35296199394	1322.40002441406
1075.04010728316	1318
1075.72716542836	1316
1076.41413643726	1322.80004882813
1077.10102031761	1328
1077.78781707715	1324.40002441406
1078.4745267236	1319
1079.16114926471	1323.40002441406
1079.84768470822	1318.19995117188
1080.53413306185	1317.40002441406
1081.22049433336	1323.59997558594
1081.90676853046	1319.59997558594
1082.5929556609	1328.59997558594
1083.27905573241	1334.40002441406
1083.96506875272	1330
1084.65099472957	1339.40002441406
1085.3368336707	1336
1086.02258558383	1329.59997558594
1086.70825047669	1336.40002441406
1087.39382835703	1322.80004882813
1088.07931923257	1338.59997558594
1088.76472311104	1321.40002441406
1089.45004000018	1315.19995117188
1090.13526990771	1325.19995117188
1090.82041284137	1328.19995117188
1091.50546880889	1319
1092.19043781799	1336.40002441406
1092.87531987642	1331
1093.56011499188	1340
1094.24482317212	1327.59997558594
1094.92944442486	1333.80004882813
1095.61397875783	1332.40002441406
1096.29842617876	1326.40002441406
1096.98278669537	1327.80004882813
1097.6670603154	1323.80004882813
1098.35124704656	1327.80004882813
1099.03534689659	1319
1099.71935987322	1313.19995117188
1100.40328598416	1316.40002441406
1101.08712523713	1314.59997558594
1101.77087763988	1314.40002441406
1102.45454320012	1325.40002441406
1103.13812192557	1331.80004882813
1103.82161382396	1327.19995117188
1104.50501890301	1326.40002441406
1105.18833717045	1336.40002441406
1105.87156863399	1324.59997558594
1106.55471330137	1319.59997558594
1107.2377711803	1308.80004882813
1107.9207422785	1316.59997558594
1108.60362660369	1316
1109.2864241636	1312
1109.96913496594	1307.19995117188
1110.65175901844	1297.59997558594
1111.33429632882	1308
1112.01674690479	1309.59997558594
1112.69911075408	1311.80004882813
1113.38138788439	1319.80004882813
1114.06357830346	1323.19995117188
1114.745682019	1314.80004882813
1115.42769903872	1327.40002441406
1116.10962937035	1325.59997558594
1116.7914730216	1331.19995117188
1117.47323000018	1334
1118.15490031382	1343
1118.83648397022	1349.59997558594
1119.51798097712	1338.80004882813
1120.1993913422	1335.59997558594
1120.88071507321	1341.59997558594
1121.56195217784	1327.40002441406
1122.24310266381	1322
1122.92416653884	1333
1123.60514381064	1321.40002441406
1124.28603448692	1330.19995117188
1124.9668385754	1323.19995117188
1125.64755608378	1316
1126.32818701978	1316.80004882813
1127.00873139111	1313.80004882813
1127.68918920548	1330.40002441406
1128.3695604706	1346.59997558594
1129.04984519419	1339.80004882813
1129.73004338394	1337
1130.41015504758	1339.80004882813
1131.09018019281	1335.40002441406
1131.77011882734	1333.80004882813
1132.44997095888	1333.59997558594
1133.12973659514	1337.19995117188
1133.80941574381	1335.40002441406
1134.48900841263	1331
1135.16851460927	1325.40002441406
1135.84793434147	1321.59997558594
1136.52726761692	1308.80004882813
1137.20651444333	1322.40002441406
1137.8856748284	1306.59997558594
1138.56474877984	1317.80004882813
1139.24373630536	1307.80004882813
1139.92263741265	1310.19995117188
1140.60145210943	1306.80004882813
1141.28018040339	1304.19995117188
1141.95882230225	1304.19995117188
1142.6373778137	1319
1143.31584694545	1307
1143.99422970519	1309.19995117188
1144.67252610064	1316.19995117188
1145.35073613949	1324.59997558594
1146.02885982944	1312.40002441406
1146.7068971782	1320.19995117188
1147.38484819347	1314.80004882813
1148.06271288294	1303
1148.74049125432	1306.59997558594
1149.41818331531	1312.19995117188
1150.0957890736	1305.59997558594
1150.77330853689	1319
1151.45074171289	1314.80004882813
1152.12808860928	1318.59997558594
1152.80534923378	1312
1153.48252359407	1310.19995117188
1154.15961169786	1320.80004882813
1154.83661355283	1320.80004882813
1155.51352916669	1314.40002441406
1156.19035854713	1305.19995117188
1156.86710170185	1306.80004882813
1157.54375863855	1302
1158.22032936491	1290.19995117188
1158.89681388863	1300.80004882813
1159.57321221741	1296.19995117188
1160.24952435894	1289
1160.92575032092	1291.80004882813
1161.60189011103	1304.80004882813
1162.27794373697	1296
1162.95391120644	1301
1163.62979252712	1298.19995117188
1164.3055877067	1300.19995117188
1164.98129675288	1301
1165.65691967336	1295.59997558594
1166.33245647581	1303.40002441406
1167.00790716792	1302.80004882813
1167.6832717574	1309.59997558594
1168.35855025193	1294.80004882813
1169.0337426592	1291.80004882813
1169.70884898689	1298.40002441406
1170.3838692427	1299
1171.05880343431	1294.19995117188
1171.73365156941	1292.59997558594
1172.40841365569	1307.19995117188
1173.08308970083	1300.40002441406
1173.75767971253	1309
1174.43218369847	1306.19995117188
1175.10660166633	1316.80004882813
1175.7809336238	1324.19995117188
1176.45517957857	1325
1177.12933953832	1331.59997558594
1177.80341351073	1326.19995117188
1178.47740150349	1319.80004882813
1179.15130352429	1325.40002441406
1179.8251195808	1319.19995117188
1180.49884968071	1318.19995117188
1181.1724938317	1315.40002441406
1181.84605204145	1313.40002441406
1182.51952431766	1318.19995117188
1183.19291066799	1335.40002441406
1183.86621110013	1317.40002441406
1184.53942562176	1316
1185.21255424057	1321.40002441406
1185.88559696422	1307
1186.55855380041	1313.40002441406
1187.2314247568	1318.40002441406
1187.90420984109	1318
1188.57690906095	1308.19995117188
1189.24952242405	1310.40002441406
1189.92204993808	1308.59997558594
1190.59449161071	1315.40002441406
1191.26684744962	1323.59997558594
1191.93911746249	1321.40002441406
1192.61130165699	1325.40002441406
1193.28340004081	1330.40002441406
1193.95541262161	1323
1194.62733940707	1329.80004882813
1195.29918040487	1323.59997558594
1195.97093562269	1325.80004882813
1196.64260506819	1315.80004882813
1197.31418874905	1323.80004882813
1197.98568667295	1316.19995117188
1198.65709884755	1318
1199.32842528053	1321
1199.99966597957	1309.59997558594
1200.67082095234	1300.19995117188
1201.3418902065	1301.59997558594
1202.01287374974	1296.19995117188
1202.68377158971	1299.19995117188
1203.3545837341	1308.19995117188
1204.02531019057	1304
1204.6959509668	1301.80004882813
1205.36650607045	1309
1206.03697550919	1301.40002441406
1206.70735929069	1303.40002441406
1207.37765742263	1300.40002441406
1208.04786991266	1298.19995117188
1208.71799676846	1297
1209.38803799769	1283.59997558594
1210.05799360803	1286.59997558594
1210.72786360714	1287.19995117188
1211.39764800268	1298.80004882813
1212.06734680233	1289.80004882813
1212.73696001375	1296.59997558594
1213.4064876446	1290.19995117188
1214.07592970255	1295.19995117188
1214.74528619526	1304.59997558594
1215.4145571304	1307.80004882813
1216.08374251564	1304.80004882813
1216.75284235863	1280.40002441406
1217.42185666704	1290.19995117188
1218.09078544854	1283.80004882813
1218.75962871078	1280
1219.42838646143	1270.80004882813
1220.09705870816	1274.59997558594
1220.76564545861	1277.40002441406
1221.43414672046	1281.59997558594
1222.10256250136	1284.80004882813
1222.77089280898	1283.59997558594
1223.43913765098	1275
1224.107297035	1276.80004882813
1224.77537096873	1275.80004882813
1225.44335945981	1276.40002441406
1226.1112625159	1277.59997558594
1226.77908014467	1280
1227.44681235376	1293.40002441406
1228.11445915085	1287.80004882813
1228.78202054357	1282.80004882813
1229.44949653961	1278.19995117188
1230.11688714659	1283.59997558594
1230.7841923722	1274.19995117188
1231.45141222407	1267.80004882813
1232.11854670988	1275
1232.78559583726	1278.80004882813
1233.45255961388	1285
1234.1194380474	1287
1234.78623114546	1290
1235.45293891572	1297.40002441406
1236.11956136583	1285.59997558594
1236.78609850345	1281.40002441406
1237.45255033623	1282.59997558594
1238.11891687182	1274.40002441406
1238.78519811788	1273
1239.45139408205	1277.40002441406
1240.11750477198	1274.59997558594
1240.78353019534	1282.40002441406
1241.44947035976	1282.40002441406
1242.11532527291	1282.59997558594
1242.78109494242	1282.59997558594
1243.44677937595	1282.40002441406
1244.11237858115	1272.40002441406
1244.77789256567	1274.59997558594
1245.44332133715	1266.40002441406
1246.10866490325	1265.59997558594
1246.7739232716	1270
1247.43909644987	1272.59997558594
1248.10418444569	1275.19995117188
1248.76918726671	1273
1249.43410492059	1267.19995117188
1250.09893741496	1276
1250.76368475747	1275.19995117188
1251.42834695576	1281.19995117188
1252.09292401749	1273.59997558594
1252.75741595029	1271.80004882813
1253.42182276182	1274.80004882813
1254.08614445971	1258
1254.75038105161	1269.59997558594
1255.41453254515	1260.59997558594
1256.07859894799	1268.59997558594
1256.74258026777	1260.40002441406
1257.40647651213	1272.59997558594
1258.0702876887	1273.40002441406
1258.73401380514	1277.19995117188
1259.39765486908	1277
1260.06121088817	1273.19995117188
1260.72468187004	1279.80004882813
1261.38806782233	1275.80004882813
1262.05136875269	1271.40002441406
1262.71458466875	1276.80004882813
1263.37771557815	1266.59997558594
1264.04076148854	1268.59997558594
1264.70372240753	1273
1265.3665983428	1267.80004882813
1266.02938930195	1268.40002441406
1266.69209529263	1260.80004882813
1267.35471632249	1263.59997558594
1268.01725239914	1280.59997558594
1268.67970353024	1278.59997558594
1269.34206972342	1277
1270.00435098631	1265.19995117188
1270.66654732655	1259.59997558594
1271.32865875177	1263.40002441406
1271.9906852696	1270
1272.65262688768	1280
1273.31448361365	1278.80004882813
1273.97625545514	1275
1274.63794241978	1273.59997558594
1275.2995445152	1272.59997558594
1275.96106174903	1266.40002441406
1276.62249412892	1260
1277.28384166248	1255.80004882813
1277.94510435735	1261.59997558594
1278.60628222116	1262.19995117188
1279.26737526155	1263.19995117188
1279.92838348613	1256.80004882813
1280.58930690255	1265
1281.25014551842	1266.40002441406
1281.91089934139	1272.40002441406
1282.57156837907	1270.19995117188
1283.2321526391	1270.40002441406
1283.89265212911	1272
1284.55306685671	1260.80004882813
1285.21339682955	1267.80004882813
1285.87364205525	1260.40002441406
1286.53380254142	1269
1287.19387829571	1270.80004882813
1287.85386932573	1266.40002441406
1288.51377563911	1270.80004882813
1289.17359724348	1280.59997558594
1289.83333414646	1270
1290.49298635567	1276.59997558594
1291.15255387874	1269.40002441406
1291.8120367233	1280.80004882813
1292.47143489696	1276.40002441406
1293.13074840736	1270.40002441406
1293.7899772621	1265.80004882813
1294.44912146882	1276.40002441406
1295.10818103513	1282.59997558594
1295.76715596866	1271.59997558594
1296.42604627704	1264.19995117188
1297.08485196787	1256.19995117188
1297.74357304878	1247.19995117188
1298.4022095274	1250.19995117188
1299.06076141134	1258.40002441406
1299.71922870821	1256
1300.37761142565	1261.40002441406
1301.03590957126	1257
1301.69412315268	1255.59997558594
1302.3522521775	1264
1303.01029665336	1257.19995117188
1303.66825658787	1257
1304.32613198865	1251.40002441406
1304.98392286332	1256.80004882813
1305.64162921948	1261.59997558594
1306.29925106476	1258.80004882813
1306.95678840677	1268.80004882813
1307.61424125312	1271.19995117188
1308.27160961145	1267
1308.92889348934	1275
1309.58609289443	1285.59997558594
1310.24320783432	1280
1310.90023831664	1275.80004882813
1311.55718434898	1290.59997558594
1312.21404593897	1280.80004882813
1312.87082309421	1285.40002441406
1313.52751582233	1298
1314.18412413092	1291.59997558594
1314.84064802761	1286.40002441406
1315.49708752	1286.80004882813
1316.1534426157	1289.19995117188
1316.80971332233	1285.80004882813
1317.46589964749	1288.40002441406
1318.1220015988	1279.59997558594
1318.77801918386	1279
1319.43395241028	1273.59997558594
1320.08980128567	1269
1320.74556581764	1271
1321.4012460138	1267.40002441406
1322.05684188176	1267
1322.71235342911	1269.80004882813
1323.36778066347	1271.80004882813
1324.02312359245	1263.40002441406
1324.67838222365	1277.59997558594
1325.33355656468	1270.80004882813
1325.98864662314	1265
1326.64365240663	1272.40002441406
1327.29857392277	1270.59997558594
1327.95341117915	1273.59997558594
1328.60816418339	1263.80004882813
1329.26283294308	1257.80004882813
1329.91741746582	1248.80004882813
1330.57191775923	1260.19995117188
1331.2263338309	1263.59997558594
1331.88066568843	1253.19995117188
1332.53491333943	1263
1333.1890767915	1255
1333.84315605224	1256
1334.49715112925	1262
1335.15106203013	1252.80004882813
1335.80488876249	1253.19995117188
1336.45863133391	1249.59997558594
1337.112289752	1263.59997558594
1337.76586402437	1253
1338.4193541586	1243.40002441406
1339.0727601623	1255.19995117188
1339.72608204306	1248.80004882813
1340.37931980849	1241.80004882813
1341.03247346617	1245.80004882813
1341.68554302372	1247.80004882813
1342.33852848871	1256
1342.99142986876	1243.40002441406
1343.64424717145	1262.80004882813
1344.29698040438	1262.59997558594
1344.94962957515	1265.80004882813
1345.60219469135	1272.80004882813
1346.25467576058	1275.59997558594
1346.90707279042	1264.80004882813
1347.55938578848	1271.59997558594
1348.21161476235	1274.19995117188
1348.86375971962	1259
1349.51582066787	1263
1350.16779761472	1258
1350.81969056774	1267.19995117188
1351.47149953453	1275.59997558594
1352.12322452269	1274.40002441406
1352.77486553979	1280
1353.42642259344	1283.59997558594
1354.07789569122	1289.19995117188
1354.72928484072	1299.40002441406
1355.38059004953	1288.19995117188
1356.03181132525	1289.80004882813
1356.68294867545	1292.59997558594
1357.33400210773	1289.40002441406
1357.98497162968	1289.40002441406
1358.63585724889	1288.19995117188
1359.28665897294	1311.59997558594
1359.93737680942	1315.19995117188
1360.58801076591	1304
1361.23856085001	1303
1361.88902706929	1310.80004882813
1362.53940943135	1320.40002441406
1363.18970794377	1318.19995117188
1363.83992261413	1316.59997558594
1364.49005345003	1324
1365.14010045904	1313.80004882813
1365.79006364874	1318.19995117188
1366.43994302673	1306.40002441406
1367.08973860058	1305.40002441406
1367.73945037788	1302
1368.38907836621	1293
1369.03862257315	1277
1369.68808300629	1266.59997558594
1370.3374596732	1254.80004882813
1370.98675258148	1263
1371.63596173868	1255.19995117188
1372.28508715241	1250.40002441406
1372.93412883024	1248.40002441406
1373.58308677974	1249.19995117188
1374.2319610085	1243.80004882813
1374.8807515241	1257.19995117188
1375.52945833412	1252.19995117188
1376.17808144612	1250.59997558594
1376.82662086771	1243.40002441406
1377.47507660644	1238.19995117188
1378.12344866989	1240.40002441406
1378.77173706565	1233
1379.41994180129	1234.19995117188
1380.06806288439	1225.40002441406
1380.71610032252	1239
1381.36405412326	1244
1382.01192429419	1231.80004882813
1382.65971084287	1241.80004882813
1383.30741377688	1248
1383.95503310381	1236.59997558594
1384.60256883121	1227.40002441406
1385.25002096667	1228.80004882813
1385.89738951775	1217.59997558594
1386.54467449204	1221.80004882813
1387.19187589709	1220
1387.8389937405	1232.80004882813
1388.48602802982	1227.80004882813
1389.13297877262	1224
1389.77984597649	1221.80004882813
1390.42662964899	1228.19995117188
1391.07332979768	1224.19995117188
1391.71994643015	1232.19995117188
1392.36647955395	1218.80004882813
1393.01292917667	1214
1393.65929530586	1215.19995117188
1394.3055779491	1214.80004882813
1394.95177711395	1219
1395.59789280799	1208.19995117188
1396.24392503877	1209.40002441406
1396.88987381387	1211.19995117188
1397.53573914086	1207.40002441406
1398.1815210273	1217.59997558594
1398.82721948075	1209.80004882813
1399.47283450878	1216.19995117188
1400.11836611897	1215.40002441406
1400.76381431886	1218.59997558594
1401.40917911603	1214.19995117188
1402.05446051805	1220.40002441406
1402.69965853247	1223.59997558594
1403.34477316686	1223.59997558594
1403.98980442878	1222.80004882813
1404.6347523258	1213
1405.27961686548	1215.19995117188
1405.92439805538	1213.80004882813
1406.56909590306	1219.59997558594
1407.21371041608	1228.40002441406
1407.85824160202	1218
1408.50268946841	1225.59997558594
1409.14705402284	1235
1409.79133527285	1223.40002441406
1410.43553322601	1218.19995117188
1411.07964788987	1220.19995117188
1411.723679272	1218
1412.36762737996	1202.80004882813
1413.01149222129	1208.59997558594
1413.65527380357	1210.19995117188
1414.29897213435	1200.40002441406
1414.94258722118	1205.80004882813
1415.58611907163	1216.19995117188
1416.22956769325	1207.59997558594
1416.87293309359	1207.59997558594
1417.51621528021	1215
1418.15941426067	1214.80004882813
1418.80253004253	1215.59997558594
1419.44556263333	1218.40002441406
1420.08851204063	1213.40002441406
1420.731378272	1217.19995117188
1421.37416133497	1220.80004882813
1422.0168612371	1215.19995117188
1422.65947798596	1229.19995117188
1423.30201158908	1232.59997558594
1423.94446205403	1231.80004882813
1424.58682938835	1234.19995117188
1425.2291135996	1220.40002441406
1425.87131469532	1235
1426.51343268308	1216.59997558594
1427.15546757042	1231.80004882813
1427.79741936488	1221.19995117188
1428.43928807403	1222.59997558594
1429.0810737054	1223.59997558594
1429.72277626656	1228.59997558594
1430.36439576504	1219.80004882813
1431.00593220841	1218.19995117188
1431.64738560419	1222.59997558594
1432.28875595995	1236
1432.93004328324	1223.59997558594
1433.57124758159	1241.19995117188
1434.21236886255	1238.80004882813
1434.85340713368	1220.80004882813
1435.49436240252	1227.59997558594
1436.13523467661	1217.40002441406
1436.77602396349	1215.80004882813
1437.41673027073	1218.19995117188
1438.05735360585	1221.59997558594
1438.69789397641	1216.80004882813
1439.33835138994	1214.40002441406
1439.978725854	1219.19995117188
1440.61901737612	1218.19995117188
1441.25922596385	1213.59997558594
1441.89935162473	1212.40002441406
1442.53939436631	1217.59997558594
1443.17935419612	1223.59997558594
1443.81923112171	1221.40002441406
1444.45902515061	1219.19995117188
1445.09873629038	1214.80004882813
1445.73836454854	1217.19995117188
1446.37790993265	1221.80004882813
1447.01737245024	1232
1447.65675210885	1224.19995117188
1448.29604891602	1234.19995117188
1448.93526287928	1224.19995117188
1449.57439400618	1216.80004882813
1450.21344230426	1216.59997558594
1450.85240778105	1220.80004882813
1451.49129044409	1223.59997558594
1452.13009030092	1225
1452.76880735907	1209.19995117188
1453.40744162608	1228.80004882813
1454.04599310949	1221.80004882813
1454.68446181683	1216.80004882813
1455.32284775564	1210.80004882813
1455.96115093345	1216
1456.5993713578	1210.19995117188
1457.23750903623	1214.40002441406
1457.87556397626	1216.59997558594
1458.51353618543	1218.80004882813
1459.15142567127	1203.80004882813
1459.78923244132	1214.80004882813
1460.42695650311	1218
1461.06459786417	1214.59997558594
1461.70215653203	1221.59997558594
1462.33963251423	1217
1462.97702581829	1204.59997558594
1463.61433645175	1209.80004882813
1464.25156442214	1212.40002441406
1464.88870973699	1213.59997558594
1465.52577240382	1214.80004882813
1466.16275243017	1214
1466.79964982356	1212.59997558594
1467.43646459154	1211.40002441406
1468.07319674161	1212.40002441406
1468.70984628132	1222
1469.34641321818	1225.40002441406
1469.98289755974	1223
1470.6192993135	1218.80004882813
1471.25561848701	1211.40002441406
1471.89185508779	1205
1472.52800912336	1210.80004882813
1473.16408060124	1199.59997558594
1473.80006952897	1210.80004882813
1474.43597591407	1208
1475.07179976406	1208
1475.70754108647	1212
1476.34319988883	1207.80004882813
1476.97877617865	1204.59997558594
1477.61426996345	1194.19995117188
1478.24968125077	1197.40002441406
1478.88501004812	1205
1479.52025636303	1203.40002441406
1480.15542020302	1204.40002441406
1480.79050157561	1201.59997558594
1481.42550048832	1194.80004882813
1482.06041694867	1188
1482.69525096418	1189.19995117188
1483.33000254237	1196.80004882813
1483.96467169077	1194.40002441406
1484.59925841689	1196.80004882813
1485.23376272825	1192.80004882813
1485.86818463237	1209.19995117188
1486.50252413677	1206.40002441406
1487.13678124896	1202.40002441406
1487.77095597646	1213
1488.4050483268	1205.19995117188
1489.03905830749	1206.80004882813
1489.67298592604	1206.59997558594
1490.30683118996	1186.59997558594
1490.9405941068	1197.19995117188
1491.57427468403	1197.80004882813
1492.2078729292	1197.80004882813
1492.84138884981	1206.19995117188
1493.47482245338	1209
1494.10817374742	1209.59997558594
1494.74144273944	1208.59997558594
1495.37462943696	1209.80004882813
1496.0077338475	1201.80004882813
1496.64075597856	1209.40002441406
1497.27369583765	1209
1497.9065534323	1213.80004882813
1498.53932877001	1213
1499.17202185829	1218.59997558594
1499.80463270465	1225
1500.43716131661	1219.19995117188
1501.06960770167	1227.40002441406
1501.70197186735	1222.40002441406
1502.33425382116	1218.59997558594
1502.96645357059	1226.59997558594
1503.59857112317	1214.19995117188
1504.23060648641	1214.19995117188
1504.8625596678	1204.80004882813
1505.49443067486	1215.19995117188
1506.1262195151	1217.59997558594
1506.75792619602	1228.80004882813
1507.38955072513	1225.40002441406
1508.02109310993	1223.40002441406
1508.65255335794	1232.40002441406
1509.28393147666	1227.59997558594
1509.91522747359	1222.40002441406
1510.54644135624	1220.40002441406
1511.17757313212	1221.40002441406
1511.80862280872	1229.40002441406
1512.43959039356	1220.19995117188
1513.07047589413	1211.80004882813
1513.70127931795	1220.80004882813
1514.33200067251	1212
1514.96263996531	1204.19995117188
1515.59319720386	1210.59997558594
1516.22367239567	1221.59997558594
1516.85406554822	1218.40002441406
1517.48437666903	1213.40002441406
1518.1146057656	1201.80004882813
1518.74475284542	1201.59997558594
1519.374817916	1202.19995117188
1520.00480098483	1200.80004882813
1520.63470205942	1205
1521.26452114726	1197
1521.89425825586	1197.80004882813
1522.52391339271	1195.80004882813
1523.15348656531	1178.59997558594
1523.78297778116	1186
1524.41238704775	1200.19995117188
1525.04171437259	1206.19995117188
1525.67095976317	1204.59997558594
1526.30012322699	1206
1526.92920477154	1200.59997558594
1527.55820440432	1202.59997558594
1528.18712213283	1198
1528.81595796455	1200.80004882813
1529.44471190699	1200
1530.07338396764	1192.80004882813
1530.70197415399	1196.40002441406
1531.33048247353	1202.80004882813
1531.95890893377	1198.19995117188
1532.58725354219	1197.19995117188
1533.21551630629	1190.80004882813
1533.84369723356	1191.80004882813
1534.47179633148	1184.59997558594
1535.09981360757	1179.59997558594
1535.72774906929	1188.59997558594
1536.35560272415	1194.19995117188
1536.98337457963	1186.40002441406
1537.61106464323	1188.80004882813
1538.23867292243	1190.19995117188
1538.86619942473	1175.40002441406
1539.49364415762	1180.40002441406
1540.12100712857	1182.19995117188
1540.74828834509	1178.80004882813
1541.37548781466	1175.59997558594
1542.00260554478	1183.59997558594
1542.62964154291	1168.40002441406
1543.25659581655	1180.40002441406
1543.8834683732	1182.59997558594
1544.51025922034	1185.40002441406
1545.13696836544	1188.19995117188
1545.76359581601	1190
1546.39014157952	1186.19995117188
1547.01660566345	1193.19995117188
1547.64298807531	1176.80004882813
1548.26928882255	1175.19995117188
1548.89550791269	1171.59997558594
1549.52164535318	1169.40002441406
1550.14770115153	1165
1550.77367531521	1179.59997558594
1551.39956785171	1175.40002441406
1552.0253787685	1170
1552.65110807307	1160.59997558594
1553.2767557729	1161.80004882813
1553.90232187548	1166.59997558594
1554.52780638828	1159
1555.15320931879	1156.40002441406
1555.77853067447	1168.59997558594
1556.40377046282	1156.80004882813
1557.02892869132	1163.19995117188
1557.65400536744	1156.40002441406
1558.27900049866	1159
1558.90391409247	1166.19995117188
1559.52874615633	1164.40002441406
1560.15349669773	1180.59997558594
1560.77816572414	1171.19995117188
1561.40275324305	1178.19995117188
1562.02725926192	1178.40002441406
1562.65168378824	1179.59997558594
1563.27602682948	1176.80004882813
1563.90028839311	1187.40002441406
1564.52446848662	1185.59997558594
1565.14856711748	1178.40002441406
1565.77258429316	1180.80004882813
1566.39652002113	1186.19995117188
1567.02037430887	1188.80004882813
1567.64414716387	1180.40002441406
1568.26783859357	1187.59997558594
1568.89144860547	1190.40002441406
1569.51497720703	1188.59997558594
1570.13842440573	1174.80004882813
1570.76179020904	1183.40002441406
1571.38507462442	1177
1572.00827765936	1170.19995117188
1572.63139932132	1182
1573.25443961777	1187.59997558594
1573.87739855618	1179
1574.50027614402	1195.80004882813
1575.12307238877	1178
1575.74578729789	1178.59997558594
1576.36842087885	1182.80004882813
1576.99097313912	1181
1577.61344408616	1187.40002441406
1578.23583372745	1180.19995117188
1578.85814207046	1189.40002441406
1579.48036912264	1184.19995117188
1580.10251489147	1178
1580.72457938441	1175.80004882813
1581.34656260893	1169.19995117188
1581.9684645725	1171.80004882813
1582.59028528258	1163
1583.21202474663	1157
1583.83368297212	1159.40002441406
1584.45525996652	1147.59997558594
1585.07675573728	1150
1585.69817029188	1171.80004882813
1586.31950363778	1165
1586.94075578243	1151.80004882813
1587.5619267333	1152.59997558594
1588.18301649786	1153.40002441406
1588.80402508357	1143.80004882813
1589.42495249788	1149.19995117188
1590.04579874826	1154.19995117188
1590.66656384217	1147.19995117188
1591.28724778707	1142.40002441406
1591.90785059042	1144.59997558594
1592.52837225968	1144.80004882813
1593.14881280232	1151.19995117188
1593.76917222578	1151.80004882813
1594.38945053753	1145.59997558594
1595.00964774502	1157.40002441406
1595.62976385573	1148
1596.24979887709	1157.40002441406
1596.86975281657	1162.80004882813
1597.48962568164	1160.40002441406
1598.10941747974	1164.40002441406
1598.72912821832	1167.59997558594
1599.34875790486	1163.19995117188
1599.9683065468	1160
1600.58777415159	1163.59997558594
1601.2071607267	1144.40002441406
1601.82646627958	1138.80004882813
1602.44569081769	1140.59997558594
1603.06483434846	1139.19995117188
1603.68389687937	1148.80004882813
1604.30287841786	1144.80004882813
1604.92177897139	1142.80004882813
1605.54059854741	1140.40002441406
1606.15933715337	1134.80004882813
1606.77799479672	1149
1607.39657148492	1138.80004882813
1608.01506722542	1141.19995117188
1608.63348202566	1151
1609.2518158931	1145.40002441406
1609.87006883519	1143.80004882813
1610.48824085939	1146.40002441406
1611.10633197312	1143.40002441406
1611.72434218386	1143.59997558594
1612.34227149904	1142.19995117188
1612.96011992612	1138.19995117188
1613.57788747254	1142.19995117188
1614.19557414575	1135
1614.8131799532	1136
1615.43070490234	1139.80004882813
1616.04814900061	1141
1616.66551225545	1144.40002441406
1617.28279467433	1140
1617.89999626467	1138.40002441406
1618.51711703393	1135.59997558594
1619.13415698955	1141
1619.75111613898	1143.80004882813
1620.36799448966	1140.59997558594
1620.98479204903	1139.80004882813
1621.60150882455	1141
1622.21814482364	1148.80004882813
1622.83470005376	1161
1623.45117452235	1155.80004882813
1624.06756823685	1161.59997558594
1624.6838812047	1159.40002441406
1625.30011343335	1150.19995117188
1625.91626493022	1153.80004882813
1626.53233570278	1154
1627.14832575845	1150.40002441406
1627.76423510468	1138
1628.38006374891	1138.19995117188
1628.99581169857	1133.80004882813
1629.61147896111	1130.80004882813
1630.22706554397	1130
1630.84257145457	1138.59997558594
1631.45799670038	1129.59997558594
1632.07334128881	1135.40002441406
1632.6886052273	1136.59997558594
1633.3037885233	1135.40002441406
1633.91889118425	1139.80004882813
1634.53391321757	1140.40002441406
1635.1488546307	1128.80004882813
1635.76371543108	1137.80004882813
1636.37849562616	1135.80004882813
1636.99319522335	1133.19995117188
1637.60781423009	1130
1638.22235265383	1121.19995117188
1638.83681050198	1129.80004882813
1639.451187782	1122.19995117188
1640.0654845013	1138
1640.67970066734	1137.59997558594
1641.29383628752	1130
1641.9078913693	1130.80004882813
1642.5218659201	1133.40002441406
1643.13575994735	1132.40002441406
1643.74957345849	1129.59997558594
1644.36330646094	1122.19995117188
1644.97695896213	1130.80004882813
1645.59053096951	1127.19995117188
1646.20402249049	1126.59997558594
1646.8174335325	1135
1647.43076410298	1144.80004882813
1648.04401420935	1143.40002441406
1648.65718385905	1144.40002441406
1649.2702730595	1147.80004882813
1649.88328181812	1153.80004882813
1650.49621014236	1151
1651.10905803963	1145.59997558594
1651.72182551735	1145
1652.33451258297	1139.59997558594
1652.9471192439	1127.80004882813
1653.55964550757	1129.80004882813
1654.1720913814	1133.40002441406
1654.78445687283	1127.59997558594
1655.39674198926	1126
1656.00894673814	1116
1656.62107112688	1108
1657.23311516291	1111.40002441406
1657.84507885365	1100.19995117188
1658.45696220652	1104.80004882813
1659.06876522895	1109.40002441406
1659.68048792835	1107
1660.29213031217	1106.59997558594
1660.90369238779	1108.40002441406
1661.51517416267	1113.19995117188
1662.12657564421	1107.80004882813
1662.73789683984	1107.80004882813
1663.34913775697	1101.19995117188
1663.96029840303	1094.19995117188
1664.57137878544	1090.19995117188
1665.18237891161	1086.80004882813
1665.79329878897	1080.59997558594
1666.40413842493	1080.40002441406
1667.01489782691	1087.40002441406
1667.62557700233	1085.40002441406
1668.2361759586	1072
1668.84669470315	1072.80004882813
1669.4571332434	1079.19995117188
1670.06749158675	1074.40002441406
1670.67776974062	1080
1671.28796771243	1071.19995117188
1671.8980855096	1081.40002441406
1672.50812313954	1086.19995117188
1673.11808060967	1082.40002441406
1673.72795792739	1079
1674.33775510013	1082.19995117188
1674.9474721353	1084.40002441406
1675.55710904031	1078.40002441406
1676.16666582257	1076.59997558594
1676.7761424895	1068.80004882813
1677.38553904851	1072.80004882813
1677.99485550702	1068.19995117188
1678.60409187243	1077
1679.21324815215	1074
1679.8223243536	1076.40002441406
1680.43132048419	1079.40002441406
1681.04023655132	1074.80004882813
1681.64907256241	1075.19995117188
1682.25782852487	1072
1682.86650444611	1069.19995117188
1683.47510033353	1063.80004882813
1684.08361619455	1073.59997558594
1684.69205203657	1068
1685.300407867	1072.80004882813
1685.90868369325	1070.40002441406
1686.51687952272	1069.40002441406
1687.12499536283	1070.19995117188
1687.73303122098	1072.40002441406
1688.34098710457	1062.59997558594
1688.94886302101	1062
1689.55665897772	1063.40002441406
1690.16437498208	1065.59997558594
1690.77201104152	1072.80004882813
1691.37956716342	1071.19995117188
1691.9870433552	1065.19995117188
1692.59443962426	1055.59997558594
1693.20175597801	1056.19995117188
1693.80899242384	1054.59997558594
1694.41614896916	1058.40002441406
1695.02322562138	1062.59997558594
1695.63022238789	1061.40002441406
1696.23713927609	1058.19995117188
1696.8439762934	1053.40002441406
1697.4507334472	1048.59997558594
1698.05741074491	1044
1698.66400819391	1042.59997558594
1699.27052580161	1047
1699.87696357542	1044.80004882813
1700.48332152272	1048
1701.08959965092	1039.19995117188
1701.69579796742	1045.19995117188
1702.30191647962	1050.40002441406
1702.90795519491	1048.80004882813
1703.51391412069	1047.19995117188
1704.11979326437	1044.40002441406
1704.72559263332	1045.80004882813
1705.33131223496	1048.40002441406
1705.93695207668	1051
1706.54251216588	1055.19995117188
1707.14799250994	1048.80004882813
1707.75339311628	1055.40002441406
1708.35871399227	1050.19995117188
1708.96395514532	1047.40002441406
1709.56911658282	1043.59997558594
