634.948122577771	1237.59997558594
635.690341530823	1258
636.43246851086	1245.59997558594
637.174503525845	1258
637.916446583745	1260.19995117188
638.658297692538	1260.40002441406
639.400056860179	1265.19995117188
640.141724094637	1269.80004882813
640.883299403885	1260.40002441406
641.62478279588	1260.80004882813
642.366174278594	1266.80004882813
643.107473859989	1279.19995117188
643.848681548029	1257.59997558594
644.589797350679	1261.80004882813
645.330821275901	1260.19995117188
646.071753331665	1256
646.812593525922	1253.19995117188
647.553341866646	1253
648.293998361798	1243.80004882813
649.03456301933	1229
649.775035847216	1250
650.515416853409	1251.19995117188
651.255706045874	1271.80004882813
651.995903432568	1257.19995117188
652.736009021453	1266.59997558594
653.476022820486	1273.59997558594
654.215944837629	1269.80004882813
654.955775080842	1276.80004882813
655.695513558081	1270.40002441406
656.435160277301	1276.19995117188
657.174715246465	1283.40002441406
657.914178473527	1276.19995117188
658.653549966449	1277.40002441406
659.392829733176	1282.40002441406
660.132017781678	1283
660.871114119901	1277.59997558594
661.610118755803	1274
662.349031697343	1283.80004882813
663.087852952468	1286.40002441406
663.826582529139	1286
664.565220435305	1277
665.30376667892	1269
666.04222126794	1277.80004882813
666.780584210316	1271.40002441406
667.518855514	1273.80004882813
668.25703518694	1284.80004882813
668.995123237096	1269
669.733119672413	1275.80004882813
670.471024500842	1278.80004882813
671.208837730333	1266.59997558594
671.946559368839	1270.80004882813
672.684189424308	1275.40002441406
673.421727904689	1264.19995117188
674.159174817929	1293.59997558594
674.896530171977	1277.59997558594
675.633793974786	1268.59997558594
676.370966234295	1276.40002441406
677.108046958461	1284
677.845036155219	1286.59997558594
678.581933832528	1286.19995117188
679.318739998323	1290
680.055454660558	1298.59997558594
680.792077827172	1292.80004882813
681.528609506116	1297
682.265049705331	1293.59997558594
683.001398432759	1288.80004882813
683.737655696349	1288.80004882813
684.47382150404	1274.19995117188
685.20989586378	1272.19995117188
685.945878783503	1285.59997558594
686.68177027116	1284.40002441406
687.417570334688	1281.19995117188
688.153278982032	1275.40002441406
688.888896221129	1287.80004882813
689.624422059921	1285.80004882813
690.359856506349	1296.80004882813
691.095199568354	1302.40002441406
691.830451253874	1285.80004882813
692.565611570844	1283.40002441406
693.300680527212	1277.59997558594
694.03565813091	1278.19995117188
694.770544389877	1277.80004882813
695.505339312053	1275.59997558594
696.240042905372	1261.59997558594
696.974655177772	1269.40002441406
697.70917613719	1279
698.443605791561	1276.19995117188
699.177944148826	1268.59997558594
699.912191216909	1276.40002441406
700.646347003755	1263.59997558594
701.380411517295	1269.40002441406
702.114384765465	1277
702.848266756195	1286
703.582057497421	1278.80004882813
704.315756997074	1273.19995117188
705.049365263089	1280.59997558594
705.782882303399	1275.59997558594
706.516308125936	1275.40002441406
707.249642738626	1283.59997558594
707.982886149403	1296
708.716038366204	1282.80004882813
709.449099396949	1295.59997558594
710.182069249577	1289.80004882813
710.914947932009	1294.59997558594
711.647735452181	1288.59997558594
712.380431818022	1276.80004882813
713.113037037454	1276.40002441406
713.845551118411	1275.59997558594
714.577974068818	1282
715.310305896604	1278.19995117188
716.042546609694	1279.80004882813
716.774696216013	1273.59997558594
717.506754723493	1272
718.238722140053	1275
718.970598473624	1291.40002441406
719.702383732127	1289.59997558594
720.43407792349	1284.80004882813
721.165681055634	1295
721.897193136486	1293.80004882813
722.628614173966	1289.59997558594
723.359944175997	1287
724.091183150505	1288
724.822331105412	1292.19995117188
725.553388048638	1295.40002441406
726.284353988106	1281.19995117188
727.015228931734	1289.19995117188
727.746012887449	1280.40002441406
728.476705863162	1281.80004882813
729.207307866803	1279.40002441406
729.937818906289	1290.80004882813
730.668238989535	1290.40002441406
731.398568124459	1283.59997558594
732.128806318986	1276.40002441406
732.858953581034	1287.80004882813
733.589009918514	1274.19995117188
734.318975339348	1277.59997558594
735.048849851452	1281.59997558594
735.778633462744	1276.19995117188
736.508326181137	1274.19995117188
737.237928014549	1285.19995117188
737.967438970897	1278.19995117188
738.696859058095	1282.40002441406
739.426188284054	1269.19995117188
740.155426656692	1281.40002441406
740.884574183922	1294.40002441406
741.613630873659	1293.40002441406
742.342596733815	1292.59997558594
743.071471772302	1286.19995117188
743.800255997034	1287.19995117188
744.528949415921	1295
745.257552036877	1284.19995117188
745.986063867811	1287.40002441406
746.714484916638	1278.80004882813
747.442815191261	1268.59997558594
748.171054699597	1268
748.899203449554	1283.19995117188
749.627261449039	1281.80004882813
750.355228705966	1282.80004882813
751.083105228239	1285.40002441406
751.810891023765	1279.19995117188
752.538586100459	1278
753.266190466218	1273.80004882813
753.99370412896	1278.59997558594
754.721127096582	1279.59997558594
755.448459377	1290.19995117188
756.175700978114	1282.80004882813
756.902851907828	1294.80004882813
757.629912174055	1295.40002441406
758.356881784688	1309.40002441406
759.083760747639	1305
759.810549070817	1310.59997558594
760.537246762113	1304.40002441406
761.263853829442	1297.40002441406
761.990370280698	1301.40002441406
762.716796123791	1291.59997558594
763.443131366618	1285.40002441406
764.169376017082	1296
764.895530083085	1305
765.621593572527	1307.59997558594
766.347566493312	1310.19995117188
767.073448853336	1327.19995117188
767.799240660502	1336.40002441406
768.524941922707	1341.80004882813
769.250552647854	1329.80004882813
769.976072843836	1339.40002441406
770.701502518551	1336.80004882813
771.426841679905	1336
772.152090335793	1339
772.877248494107	1334.40002441406
773.602316162747	1345.40002441406
774.327293349609	1352.40002441406
775.052180062592	1353.40002441406
775.776976309589	1361
776.501682098496	1364.40002441406
777.226297437206	1356.19995117188
777.950822333616	1336
778.675256795621	1326.19995117188
779.399600831111	1334.59997558594
780.123854447983	1314.59997558594
780.84801765413	1319.80004882813
781.572090457441	1316.19995117188
782.296072865811	1306
783.019964887131	1302.80004882813
783.743766529297	1306.19995117188
784.467477800194	1295.59997558594
785.191098707719	1301
785.914629259756	1301
786.638069464194	1295.19995117188
787.361419328932	1294.80004882813
788.084678861852	1280.59997558594
788.807848070845	1282.40002441406
789.530926963798	1275.80004882813
790.253915548602	1287.40002441406
790.976813833144	1288.59997558594
791.699621825307	1277.19995117188
792.422339532986	1287.19995117188
793.144966964061	1269.59997558594
793.86750412642	1274.59997558594
794.589951027946	1272.59997558594
795.312307676536	1269.19995117188
796.03457408006	1284.59997558594
796.756750246417	1288.40002441406
797.478836183477	1288.59997558594
798.200831899137	1303.40002441406
798.92273740127	1300
799.644552697769	1303.19995117188
800.36627779651	1302.19995117188
801.087912705374	1299.80004882813
801.809457432251	1294.59997558594
802.530911985017	1294.19995117188
803.252276371558	1294.40002441406
803.973550599748	1293.59997558594
804.694734677472	1283.80004882813
805.415828612611	1295
806.136832413045	1303.59997558594
806.857746086646	1300.40002441406
807.578569641305	1306.80004882813
808.299303084892	1293
809.019946425289	1294.40002441406
809.740499670372	1291.80004882813
810.460962828022	1299.80004882813
811.181335906114	1308.80004882813
811.901618912524	1297.80004882813
812.621811855131	1306.40002441406
813.341914741809	1309
814.061927580433	1305.19995117188
814.781850378881	1302.80004882813
815.501683145025	1287
816.221425886743	1274
816.941078611903	1274.19995117188
817.660641328387	1267.80004882813
818.380114044065	1281.40002441406
819.099496766808	1295.80004882813
819.818789504492	1293
820.53799226499	1291
821.257105056168	1278
821.976127885904	1267.40002441406
822.695060762064	1279.59997558594
823.413903692525	1282.59997558594
824.132656685151	1275.59997558594
824.851319747817	1289.59997558594
825.569892888388	1283
826.288376114739	1294.40002441406
827.006769434737	1287.40002441406
827.725072856249	1281.40002441406
828.443286387142	1289.80004882813
829.161410035285	1281.19995117188
829.87944380855	1279.19995117188
830.597387714798	1280.59997558594
831.315241761898	1273.59997558594
832.033005957715	1275.19995117188
832.750680310119	1267
833.468264826969	1273.40002441406
834.18575951614	1265.40002441406
834.903164385486	1282.80004882813
835.620479442878	1283
836.337704696181	1272
837.054840153255	1274.80004882813
837.771885821962	1273
838.488841710172	1284.19995117188
839.20570782574	1274.59997558594
839.922484176531	1283.40002441406
840.639170770409	1281.19995117188
841.355767615231	1287.80004882813
842.072274718864	1294.40002441406
842.788692089164	1306.19995117188
843.505019733993	1297
844.221257661209	1300.19995117188
844.937405878676	1301.80004882813
845.65346439425	1299
846.369433215789	1298.40002441406
847.085312351156	1295.19995117188
847.801101808205	1291.19995117188
848.516801594793	1295.19995117188
849.232411718781	1295.40002441406
849.947932188021	1287.80004882813
850.663363010376	1294.40002441406
851.378704193698	1283.80004882813
852.093955745842	1275.19995117188
852.809117674669	1286.19995117188
853.524189988028	1286.80004882813
854.239172693778	1291
854.954065799768	1280
855.668869313857	1272.19995117188
856.383583243899	1274.80004882813
857.098207597743	1274.59997558594
857.812742383246	1281.59997558594
858.527187608255	1287.19995117188
859.241543280628	1295.80004882813
859.955809408218	1282.80004882813
860.669985998868	1283
861.384073060437	1282.59997558594
862.098070600772	1289.40002441406
862.811978627724	1285.19995117188
863.52579714914	1280
864.239526172873	1283.80004882813
864.953165706776	1286.19995117188
865.666715758687	1287
866.380176336464	1275.80004882813
867.093547447951	1277.80004882813
867.806829100996	1271.59997558594
868.520021303444	1267
869.233124063149	1272
869.94613738795	1272.59997558594
870.659061285693	1285.19995117188
871.37189576423	1289
872.084640831403	1292.59997558594
872.797296495057	1293.59997558594
873.509862763039	1300.80004882813
874.22233964319	1293.59997558594
874.934727143353	1279.59997558594
875.647025271374	1278.19995117188
876.359234035097	1285.59997558594
877.071353442361	1277.40002441406
877.783383501015	1288.19995117188
878.495324218895	1285.40002441406
879.207175603844	1284.19995117188
879.918937663705	1284.59997558594
880.630610406318	1291.40002441406
881.342193839524	1289.19995117188
882.053687971161	1278.40002441406
882.765092809069	1286.59997558594
883.476408361091	1278.40002441406
884.187634635066	1268.19995117188
884.898771638828	1273.59997558594
885.609819380221	1279.59997558594
886.320777867076	1281
887.031647107236	1284
887.742427108536	1287
888.453117878816	1279
889.16371942591	1284.59997558594
889.874231757652	1286.59997558594
890.584654881883	1285.80004882813
891.294988806434	1273.19995117188
892.005233539141	1274.80004882813
892.715389087837	1266.59997558594
893.42545546036	1268.40002441406
894.135432664543	1276.40002441406
894.845320708216	1275
895.555119599216	1283.59997558594
896.264829345375	1284.19995117188
896.974449954526	1289.19995117188
897.683981434496	1290.80004882813
898.393423793125	1295.40002441406
899.102777038235	1291.40002441406
899.812041177664	1292.80004882813
900.521216219239	1289.59997558594
901.230302170793	1292.19995117188
901.939299040155	1308
902.64820683515	1303.19995117188
903.357025563612	1289.80004882813
904.065755233368	1290.19995117188
904.774395852247	1291.19995117188
905.482947428076	1291.19995117188
906.191409968682	1284.40002441406
906.899783481897	1286.40002441406
907.608067975538	1282
908.316263457443	1290.59997558594
909.02436993543	1274.19995117188
909.732387417327	1277.40002441406
910.440315910959	1276.19995117188
911.148155424154	1277.59997558594
911.855905964731	1285.40002441406
912.563567540521	1283
913.271140159339	1283.59997558594
913.978623829017	1281.19995117188
914.686018557374	1285.40002441406
915.393324352237	1281.80004882813
916.100541221421	1283.80004882813
916.807669172752	1292.40002441406
917.514708214054	1289
918.221658353142	1286.59997558594
918.928519597843	1296
919.635291955976	1295.80004882813
920.341975435358	1302.19995117188
921.048570043813	1297.59997558594
921.75507578916	1294.40002441406
922.461492679212	1290.80004882813
923.167820721795	1287.40002441406
923.874059924726	1276.59997558594
924.58021029582	1284.19995117188
925.286271842893	1284.80004882813
925.992244573769	1286.19995117188
926.698128496262	1293.40002441406
927.403923618184	1281
928.109629947355	1276.40002441406
928.815247491593	1282.59997558594
929.520776258708	1285
930.226216256519	1289
930.931567492841	1286.40002441406
931.636829975482	1283.19995117188
932.342003712263	1282.59997558594
933.047088710995	1283.19995117188
933.752084979491	1287.40002441406
934.456992525564	1277.59997558594
935.161811357024	1287.40002441406
935.866541481688	1280.40002441406
936.571182907363	1274.40002441406
937.275735641861	1268
937.980199692995	1272.80004882813
938.684575068572	1273.40002441406
939.388861776411	1282.59997558594
940.093059824311	1275
940.797169220085	1278
941.501189971544	1265.19995117188
942.205122086495	1282.80004882813
942.908965572751	1276.40002441406
943.612720438111	1267
944.316386690391	1263.19995117188
945.019964337391	1262.59997558594
945.723453386924	1262.40002441406
946.426853846795	1264
947.130165724808	1275.19995117188
947.83338902877	1277.80004882813
948.536523766488	1275
949.239569945764	1272.80004882813
949.942527574402	1271.40002441406
950.64539666021	1268.80004882813
951.348177210993	1255.59997558594
952.050869234548	1254.40002441406
952.753472738683	1251.40002441406
953.455987731199	1256
954.158414219898	1245.80004882813
954.860752212587	1252.80004882813
955.563001717061	1253.59997558594
956.265162741124	1266.59997558594
956.967235292576	1266.59997558594
957.669219379224	1264.59997558594
958.371115008857	1266.40002441406
959.072922189283	1249.40002441406
959.774640928301	1268.59997558594
960.476271233708	1268
961.177813113301	1251.59997558594
961.879266574882	1268.40002441406
962.580631626248	1273.40002441406
963.281908275194	1275.19995117188
963.98309652952	1268.59997558594
964.684196397022	1265
965.3852078855	1275.80004882813
966.086131002745	1274.19995117188
966.786965756555	1258.59997558594
967.487712154726	1259
968.188370205055	1261.40002441406
968.888939915331	1247.40002441406
969.589421293352	1252
970.289814346909	1259.19995117188
970.990119083801	1261.40002441406
971.690335511819	1266.19995117188
972.39046363875	1260.40002441406
973.090503472398	1256.59997558594
973.790455020545	1266.40002441406
974.490318290987	1255
975.190093291516	1263
975.889780029923	1260
976.589378513998	1268.40002441406
977.288888751527	1262.80004882813
977.988310750308	1258.80004882813
978.687644518122	1264.80004882813
979.386890062767	1262
980.086047392025	1262.40002441406
980.785116513689	1254.40002441406
981.484097435542	1262.80004882813
982.182990165377	1259.19995117188
982.88179471098	1260.40002441406
983.580511080137	1255.80004882813
984.279139280632	1264.19995117188
984.977679320253	1256
985.67613120679	1257.19995117188
986.374494948027	1262
987.072770551745	1264.80004882813
987.770958025731	1261.40002441406
988.469057377772	1266.59997558594
989.167068615649	1267.19995117188
989.864991747145	1262.40002441406
990.562826780047	1258.80004882813
991.260573722134	1259.80004882813
991.958232581195	1261.59997558594
992.655803365003	1250.80004882813
993.353286081346	1252.80004882813
994.050680738006	1247
994.74798734276	1244.19995117188
995.44520590339	1260.80004882813
996.142336427681	1261
996.839378923407	1253.40002441406
997.536333398348	1248.59997558594
998.233199860289	1231.80004882813
998.929978317004	1245.80004882813
999.626668776274	1243.80004882813
1000.32327124587	1253
1001.01978573359	1251.19995117188
1001.71621224718	1252.19995117188
1002.41255079445	1251.19995117188
1003.10880138315	1248.19995117188
1003.80496402107	1260.80004882813
1004.50103871599	1257.40002441406
1005.19702547567	1257
1005.8929243079	1256.40002441406
1006.58873522045	1269.59997558594
1007.2844582211	1272.19995117188
1007.98009331761	1275.19995117188
1008.67564051776	1266.80004882813
1009.37109982933	1266.59997558594
1010.06647126009	1261.19995117188
1010.7617548178	1258
1011.45695051026	1264.80004882813
1012.15205834522	1274.80004882813
1012.84707833045	1271.80004882813
1013.54201047373	1271.19995117188
1014.23685478284	1258.80004882813
1014.93161126553	1258.19995117188
1015.62627992959	1249
1016.32086078277	1247.40002441406
1017.01535383285	1255.40002441406
1017.70975908761	1256
1018.40407655479	1261.40002441406
1019.09830624219	1267.59997558594
1019.79244815755	1267.40002441406
1020.48650230866	1261.19995117188
1021.18046870328	1257.40002441406
1021.87434734917	1260.80004882813
1022.56813825411	1255.59997558594
1023.26184142584	1260
1023.95545687216	1260.40002441406
1024.64898460082	1249.19995117188
1025.34242461957	1259
1026.0357769362	1261.19995117188
1026.72904155846	1254.19995117188
1027.42221849412	1241.40002441406
1028.11530775094	1244.40002441406
1028.80830933668	1250.80004882813
1029.50122325911	1247.19995117188
1030.19404952599	1238.19995117188
1030.88678814508	1250.59997558594
1031.57943912414	1261.19995117188
1032.27200247093	1263.80004882813
1032.96447819323	1266
1033.65686629878	1267
1034.34916679534	1274
1035.04137969068	1268.80004882813
1035.73350499256	1265.80004882813
1036.42554270874	1261.80004882813
1037.11749284697	1264.80004882813
1037.80935541501	1265
1038.50113042062	1267.59997558594
1039.19281787156	1260.40002441406
1039.88441777559	1256.40002441406
1040.57593014046	1250.80004882813
1041.26735497393	1256.19995117188
1041.95869228376	1249
1042.6499420777	1252.19995117188
1043.3411043635	1266.19995117188
1044.03217914893	1272
1044.72316644174	1273.40002441406
1045.41406624968	1268
1046.1048785805	1273
1046.79560344197	1259.80004882813
1047.48624084182	1251.40002441406
1048.17679078783	1258.19995117188
1048.86725328774	1243.59997558594
1049.55762834929	1246.59997558594
1050.24791598025	1243.59997558594
1050.93811618837	1242.40002441406
1051.62822898139	1240
1052.31825436707	1241.80004882813
1053.00819235315	1238
1053.6980429474	1248
1054.38780615755	1239.80004882813
1055.07748199136	1233.80004882813
1055.76707045658	1251.40002441406
1056.45657156095	1253.80004882813
1057.14598531222	1255.59997558594
1057.83531171814	1255
1058.52455078646	1244.59997558594
1059.21370252494	1239.80004882813
1059.90276694129	1249.80004882813
1060.5917440433	1246
1061.28063383868	1246
1061.9694363352	1244.80004882813
1062.65815154059	1248.19995117188
1063.34677946261	1246.40002441406
1064.03532010899	1238.59997558594
1064.72377348748	1242.40002441406
1065.41213960583	1243.19995117188
1066.10041847177	1237.40002441406
1066.78861009306	1242.19995117188
1067.47671447743	1241.59997558594
1068.16473163263	1234
1068.85266156639	1245.40002441406
1069.54050428647	1250.19995117188
1070.2282598006	1243.19995117188
1070.91592811652	1237.19995117188
1071.60350924198	1231.80004882813
1072.29100318471	1235.80004882813
1072.97840995245	1246.40002441406
1073.66572955295	1245.40002441406
1074.35296199394	1242.59997558594
1075.04010728316	1244.59997558594
1075.72716542836	1234.19995117188
1076.41413643726	1241.40002441406
1077.10102031761	1242.19995117188
1077.78781707715	1251
1078.4745267236	1241.19995117188
1079.16114926471	1234.80004882813
1079.84768470822	1241
1080.53413306185	1232.59997558594
1081.22049433336	1235
1081.90676853046	1241.40002441406
1082.5929556609	1247.19995117188
1083.27905573241	1235.80004882813
1083.96506875272	1233.40002441406
1084.65099472957	1237.19995117188
1085.3368336707	1248
1086.02258558383	1249
1086.70825047669	1246
1087.39382835703	1233.40002441406
1088.07931923257	1244.80004882813
1088.76472311104	1227.19995117188
1089.45004000018	1233
1090.13526990771	1234.19995117188
1090.82041284137	1234.19995117188
1091.50546880889	1229.80004882813
1092.19043781799	1227
1092.87531987642	1230
1093.56011499188	1238.19995117188
1094.24482317212	1240.80004882813
1094.92944442486	1241.19995117188
1095.61397875783	1246.80004882813
1096.29842617876	1244.59997558594
1096.98278669537	1225
1097.6670603154	1227
1098.35124704656	1220.40002441406
1099.03534689659	1233.80004882813
1099.71935987322	1239.59997558594
1100.40328598416	1232
1101.08712523713	1240.19995117188
1101.77087763988	1233.80004882813
1102.45454320012	1235.80004882813
1103.13812192557	1234.40002441406
1103.82161382396	1235.40002441406
1104.50501890301	1253.40002441406
1105.18833717045	1255
1105.87156863399	1251.59997558594
1106.55471330137	1245.59997558594
1107.2377711803	1244
1107.9207422785	1245.40002441406
1108.60362660369	1245.80004882813
1109.2864241636	1227.80004882813
1109.96913496594	1235.19995117188
1110.65175901844	1242
1111.33429632882	1244.59997558594
1112.01674690479	1239.19995117188
1112.69911075408	1240.59997558594
1113.38138788439	1242.80004882813
1114.06357830346	1238.80004882813
1114.745682019	1230.40002441406
1115.42769903872	1237
1116.10962937035	1237.80004882813
1116.7914730216	1243.40002441406
1117.47323000018	1235.59997558594
1118.15490031382	1251
1118.83648397022	1250
1119.51798097712	1254.59997558594
1120.1993913422	1247.40002441406
1120.88071507321	1241.40002441406
1121.56195217784	1247.59997558594
1122.24310266381	1255.59997558594
1122.92416653884	1263
1123.60514381064	1252.19995117188
1124.28603448692	1259.40002441406
1124.9668385754	1255.59997558594
1125.64755608378	1251.80004882813
1126.32818701978	1245.80004882813
1127.00873139111	1256.80004882813
1127.68918920548	1249.80004882813
1128.3695604706	1250.19995117188
1129.04984519419	1255.19995117188
1129.73004338394	1248.80004882813
1130.41015504758	1257
1131.09018019281	1253
1131.77011882734	1258.59997558594
1132.44997095888	1247
1133.12973659514	1240.80004882813
1133.80941574381	1227.59997558594
1134.48900841263	1228.59997558594
1135.16851460927	1228.19995117188
1135.84793434147	1229.40002441406
1136.52726761692	1237.40002441406
1137.20651444333	1230.19995117188
1137.8856748284	1233
1138.56474877984	1220.80004882813
1139.24373630536	1234.59997558594
1139.92263741265	1217.19995117188
1140.60145210943	1216.80004882813
1141.28018040339	1213.59997558594
1141.95882230225	1217
1142.6373778137	1220.59997558594
1143.31584694545	1227.19995117188
1143.99422970519	1230
1144.67252610064	1217.59997558594
1145.35073613949	1219.40002441406
1146.02885982944	1224.80004882813
1146.7068971782	1220.59997558594
1147.38484819347	1216
1148.06271288294	1210.80004882813
1148.74049125432	1219.19995117188
1149.41818331531	1221.40002441406
1150.0957890736	1222.59997558594
1150.77330853689	1225
1151.45074171289	1232.80004882813
1152.12808860928	1229.19995117188
1152.80534923378	1230.40002441406
1153.48252359407	1229.80004882813
1154.15961169786	1224.80004882813
1154.83661355283	1222.59997558594
1155.51352916669	1225.80004882813
1156.19035854713	1228.19995117188
1156.86710170185	1224.40002441406
1157.54375863855	1227.80004882813
1158.22032936491	1220.40002441406
1158.89681388863	1225.19995117188
1159.57321221741	1215.19995117188
1160.24952435894	1232
1160.92575032092	1227
1161.60189011103	1233.80004882813
1162.27794373697	1244.19995117188
1162.95391120644	1232.40002441406
1163.62979252712	1221
1164.3055877067	1229.59997558594
1164.98129675288	1222.59997558594
1165.65691967336	1227.40002441406
1166.33245647581	1231.59997558594
1167.00790716792	1225.19995117188
1167.6832717574	1221.40002441406
1168.35855025193	1218
1169.0337426592	1227.59997558594
1169.70884898689	1227.59997558594
1170.3838692427	1238
1171.05880343431	1237.59997558594
1171.73365156941	1237.19995117188
1172.40841365569	1237
1173.08308970083	1223.80004882813
1173.75767971253	1234
1174.43218369847	1235.59997558594
1175.10660166633	1240.80004882813
1175.7809336238	1230.59997558594
1176.45517957857	1238.19995117188
1177.12933953832	1243.19995117188
1177.80341351073	1244.59997558594
1178.47740150349	1246
1179.15130352429	1239.80004882813
1179.8251195808	1237.80004882813
1180.49884968071	1230.40002441406
1181.1724938317	1234
1181.84605204145	1248
1182.51952431766	1250.19995117188
1183.19291066799	1251.80004882813
1183.86621110013	1248.19995117188
1184.53942562176	1248.19995117188
1185.21255424057	1248.40002441406
1185.88559696422	1245.59997558594
1186.55855380041	1248.40002441406
1187.2314247568	1250.59997558594
1187.90420984109	1245.19995117188
1188.57690906095	1251
1189.24952242405	1254.19995117188
1189.92204993808	1261.80004882813
1190.59449161071	1261.40002441406
1191.26684744962	1253.40002441406
1191.93911746249	1257.59997558594
1192.61130165699	1269.80004882813
1193.28340004081	1266.19995117188
1193.95541262161	1269.19995117188
1194.62733940707	1268.59997558594
1195.29918040487	1266.59997558594
1195.97093562269	1254.80004882813
1196.64260506819	1263.80004882813
1197.31418874905	1260.19995117188
1197.98568667295	1252.80004882813
1198.65709884755	1239
1199.32842528053	1254
1199.99966597957	1254.59997558594
1200.67082095234	1240.59997558594
1201.3418902065	1228.40002441406
1202.01287374974	1225
1202.68377158971	1233.59997558594
1203.3545837341	1222
1204.02531019057	1215.40002441406
1204.6959509668	1218.19995117188
1205.36650607045	1218.80004882813
1206.03697550919	1222.40002441406
1206.70735929069	1218.80004882813
1207.37765742263	1215.59997558594
1208.04786991266	1218
1208.71799676846	1212.80004882813
1209.38803799769	1215.40002441406
1210.05799360803	1211
1210.72786360714	1208
1211.39764800268	1201.40002441406
1212.06734680233	1209.40002441406
1212.73696001375	1213.19995117188
1213.4064876446	1212.40002441406
1214.07592970255	1207
1214.74528619526	1210.40002441406
1215.4145571304	1212.19995117188
1216.08374251564	1219.40002441406
1216.75284235863	1215
1217.42185666704	1210
1218.09078544854	1214
1218.75962871078	1216
1219.42838646143	1211.40002441406
1220.09705870816	1220.19995117188
1220.76564545861	1226.80004882813
1221.43414672046	1222
1222.10256250136	1231.19995117188
1222.77089280898	1226.40002441406
1223.43913765098	1219.40002441406
1224.107297035	1210
1224.77537096873	1212.40002441406
1225.44335945981	1215.59997558594
1226.1112625159	1214.19995117188
1226.77908014467	1220.19995117188
1227.44681235376	1227
1228.11445915085	1208
1228.78202054357	1214
1229.44949653961	1212.40002441406
1230.11688714659	1215
1230.7841923722	1210.59997558594
1231.45141222407	1222.80004882813
1232.11854670988	1220.80004882813
1232.78559583726	1216.80004882813
1233.45255961388	1214.40002441406
1234.1194380474	1210.80004882813
1234.78623114546	1213.40002441406
1235.45293891572	1211.59997558594
1236.11956136583	1213.19995117188
1236.78609850345	1215.40002441406
1237.45255033623	1215
1238.11891687182	1218.40002441406
1238.78519811788	1215.19995117188
1239.45139408205	1214
1240.11750477198	1207.19995117188
1240.78353019534	1208.59997558594
1241.44947035976	1199.19995117188
1242.11532527291	1190.40002441406
1242.78109494242	1200
1243.44677937595	1198.59997558594
1244.11237858115	1199.40002441406
1244.77789256567	1200
1245.44332133715	1201.59997558594
1246.10866490325	1194.19995117188
1246.7739232716	1200.59997558594
1247.43909644987	1202.80004882813
1248.10418444569	1198.80004882813
1248.76918726671	1196
1249.43410492059	1189
1250.09893741496	1198
1250.76368475747	1200.19995117188
1251.42834695576	1199.80004882813
1252.09292401749	1196
1252.75741595029	1195.59997558594
1253.42182276182	1210.59997558594
1254.08614445971	1195.80004882813
1254.75038105161	1195.19995117188
1255.41453254515	1202
1256.07859894799	1202.80004882813
1256.74258026777	1203.19995117188
1257.40647651213	1195.59997558594
1258.0702876887	1192.59997558594
1258.73401380514	1201.19995117188
1259.39765486908	1201.40002441406
1260.06121088817	1198.80004882813
1260.72468187004	1198.59997558594
1261.38806782233	1202.59997558594
1262.05136875269	1204.80004882813
1262.71458466875	1209.80004882813
1263.37771557815	1211.59997558594
1264.04076148854	1213.59997558594
1264.70372240753	1210.59997558594
1265.3665983428	1221.80004882813
1266.02938930195	1213.19995117188
1266.69209529263	1213
1267.35471632249	1220.59997558594
1268.01725239914	1209.40002441406
1268.67970353024	1214.80004882813
1269.34206972342	1207
1270.00435098631	1198.40002441406
1270.66654732655	1200
1271.32865875177	1214.59997558594
1271.9906852696	1216.59997558594
1272.65262688768	1222.59997558594
1273.31448361365	1222.40002441406
1273.97625545514	1220
1274.63794241978	1217.59997558594
1275.2995445152	1215.40002441406
1275.96106174903	1218.59997558594
1276.62249412892	1216.59997558594
1277.28384166248	1219.80004882813
1277.94510435735	1218
1278.60628222116	1218.59997558594
1279.26737526155	1215.59997558594
1279.92838348613	1209.59997558594
1280.58930690255	1212.19995117188
1281.25014551842	1207
1281.91089934139	1208.19995117188
1282.57156837907	1211.80004882813
1283.2321526391	1208.19995117188
1283.89265212911	1208
1284.55306685671	1214
1285.21339682955	1206.59997558594
1285.87364205525	1207.80004882813
1286.53380254142	1204.59997558594
1287.19387829571	1213.80004882813
1287.85386932573	1209.40002441406
1288.51377563911	1209.80004882813
1289.17359724348	1205.80004882813
1289.83333414646	1204
1290.49298635567	1199
1291.15255387874	1196
1291.8120367233	1188.59997558594
1292.47143489696	1201.59997558594
1293.13074840736	1205.80004882813
1293.7899772621	1201.40002441406
1294.44912146882	1211.19995117188
1295.10818103513	1220.19995117188
1295.76715596866	1204.59997558594
1296.42604627704	1217.19995117188
1297.08485196787	1213.80004882813
1297.74357304878	1214.80004882813
1298.4022095274	1211.40002441406
1299.06076141134	1202
1299.71922870821	1205
1300.37761142565	1213.80004882813
1301.03590957126	1217
1301.69412315268	1214.19995117188
1302.3522521775	1213
1303.01029665336	1214.80004882813
1303.66825658787	1215.19995117188
1304.32613198865	1212
1304.98392286332	1216
1305.64162921948	1225.59997558594
1306.29925106476	1218.40002441406
1306.95678840677	1212
1307.61424125312	1218.80004882813
1308.27160961145	1222.40002441406
1308.92889348934	1231.40002441406
1309.58609289443	1228.19995117188
1310.24320783432	1232.19995117188
1310.90023831664	1238
1311.55718434898	1233
1312.21404593897	1241.19995117188
1312.87082309421	1239.80004882813
1313.52751582233	1230.19995117188
1314.18412413092	1232
1314.84064802761	1231.59997558594
1315.49708752	1229.19995117188
1316.1534426157	1227
1316.80971332233	1229.40002441406
1317.46589964749	1215
1318.1220015988	1218.19995117188
1318.77801918386	1220.80004882813
1319.43395241028	1217
1320.08980128567	1220
1320.74556581764	1235.40002441406
1321.4012460138	1224.19995117188
1322.05684188176	1219.59997558594
1322.71235342911	1218.59997558594
1323.36778066347	1214.80004882813
1324.02312359245	1218.40002441406
1324.67838222365	1210.40002441406
1325.33355656468	1206.59997558594
1325.98864662314	1212.80004882813
1326.64365240663	1213
1327.29857392277	1208
1327.95341117915	1210.40002441406
1328.60816418339	1214.40002441406
1329.26283294308	1206.19995117188
1329.91741746582	1208.80004882813
1330.57191775923	1198.40002441406
1331.2263338309	1206.80004882813
1331.88066568843	1205.19995117188
1332.53491333943	1202.80004882813
1333.1890767915	1202
1333.84315605224	1198.19995117188
1334.49715112925	1195
1335.15106203013	1200.19995117188
1335.80488876249	1216.19995117188
1336.45863133391	1212.80004882813
1337.112289752	1219.80004882813
1337.76586402437	1224.80004882813
1338.4193541586	1227.40002441406
1339.0727601623	1218.59997558594
1339.72608204306	1220.59997558594
1340.37931980849	1214.80004882813
1341.03247346617	1215.40002441406
1341.68554302372	1223.19995117188
1342.33852848871	1215.80004882813
1342.99142986876	1217.59997558594
1343.64424717145	1229.19995117188
1344.29698040438	1219.19995117188
1344.94962957515	1227.59997558594
1345.60219469135	1220.59997558594
1346.25467576058	1220.80004882813
1346.90707279042	1220.59997558594
1347.55938578848	1218.80004882813
1348.21161476235	1231.19995117188
1348.86375971962	1223.19995117188
1349.51582066787	1217.59997558594
1350.16779761472	1224.59997558594
1350.81969056774	1233.59997558594
1351.47149953453	1236
1352.12322452269	1237.40002441406
1352.77486553979	1242
1353.42642259344	1234.80004882813
1354.07789569122	1241.59997558594
1354.72928484072	1251
1355.38059004953	1260
1356.03181132525	1258
1356.68294867545	1264.40002441406
1357.33400210773	1261.80004882813
1357.98497162968	1265.80004882813
1358.63585724889	1270.19995117188
1359.28665897294	1275
1359.93737680942	1268.40002441406
1360.58801076591	1275.59997558594
1361.23856085001	1277.59997558594
1361.88902706929	1278.59997558594
1362.53940943135	1279
1363.18970794377	1286.40002441406
1363.83992261413	1268.40002441406
1364.49005345003	1271.59997558594
1365.14010045904	1273.40002441406
1365.79006364874	1270.59997558594
1366.43994302673	1252
1367.08973860058	1254.80004882813
1367.73945037788	1244.19995117188
1368.38907836621	1235.40002441406
1369.03862257315	1231
1369.68808300629	1220.40002441406
1370.3374596732	1224.40002441406
1370.98675258148	1227.59997558594
1371.63596173868	1215.80004882813
1372.28508715241	1212.40002441406
1372.93412883024	1216.80004882813
1373.58308677974	1214.40002441406
1374.2319610085	1212.40002441406
1374.8807515241	1222.40002441406
1375.52945833412	1216
1376.17808144612	1205.80004882813
1376.82662086771	1211.40002441406
1377.47507660644	1209.40002441406
1378.12344866989	1199
1378.77173706565	1199.59997558594
1379.41994180129	1201.80004882813
1380.06806288439	1200.40002441406
1380.71610032252	1206.40002441406
1381.36405412326	1202.59997558594
1382.01192429419	1206.19995117188
1382.65971084287	1210.19995117188
1383.30741377688	1200.40002441406
1383.95503310381	1195.19995117188
1384.60256883121	1189.19995117188
1385.25002096667	1189.59997558594
1385.89738951775	1188.19995117188
1386.54467449204	1184
1387.19187589709	1189.40002441406
1387.8389937405	1188.19995117188
1388.48602802982	1186.80004882813
1389.13297877262	1194.80004882813
1389.77984597649	1195.59997558594
1390.42662964899	1182.19995117188
1391.07332979768	1183.80004882813
1391.71994643015	1182.80004882813
1392.36647955395	1180.80004882813
1393.01292917667	1178.40002441406
1393.65929530586	1176.40002441406
1394.3055779491	1186.59997558594
1394.95177711395	1201.80004882813
1395.59789280799	1200
1396.24392503877	1191
1396.88987381387	1194
1397.53573914086	1189.19995117188
1398.1815210273	1176.80004882813
1398.82721948075	1172.80004882813
1399.47283450878	1172.19995117188
1400.11836611897	1170
1400.76381431886	1176.80004882813
1401.40917911603	1167
1402.05446051805	1169.19995117188
1402.69965853247	1171.19995117188
1403.34477316686	1167.40002441406
1403.98980442878	1168.40002441406
1404.6347523258	1165.19995117188
1405.27961686548	1164
1405.92439805538	1175.19995117188
1406.56909590306	1175.19995117188
1407.21371041608	1168.40002441406
1407.85824160202	1170
1408.50268946841	1175
1409.14705402284	1185.80004882813
1409.79133527285	1180.19995117188
1410.43553322601	1183.59997558594
1411.07964788987	1179.19995117188
1411.723679272	1176.19995117188
1412.36762737996	1171.80004882813
1413.01149222129	1175.59997558594
1413.65527380357	1166.40002441406
1414.29897213435	1170.59997558594
1414.94258722118	1166.59997558594
1415.58611907163	1173.19995117188
1416.22956769325	1163.80004882813
1416.87293309359	1180.19995117188
1417.51621528021	1175.19995117188
1418.15941426067	1184.80004882813
1418.80253004253	1174.40002441406
1419.44556263333	1175
1420.08851204063	1179.80004882813
1420.731378272	1172.80004882813
1421.37416133497	1176.19995117188
1422.0168612371	1189.19995117188
1422.65947798596	1178.19995117188
1423.30201158908	1182
1423.94446205403	1183.59997558594
1424.58682938835	1184.19995117188
1425.2291135996	1188.59997558594
1425.87131469532	1186.40002441406
1426.51343268308	1185.40002441406
1427.15546757042	1203.80004882813
1427.79741936488	1192.59997558594
1428.43928807403	1187.80004882813
1429.0810737054	1187.40002441406
1429.72277626656	1177.80004882813
1430.36439576504	1187.59997558594
1431.00593220841	1180.80004882813
1431.64738560419	1168.40002441406
1432.28875595995	1181
1432.93004328324	1181.59997558594
1433.57124758159	1173
1434.21236886255	1188.59997558594
1434.85340713368	1183.19995117188
1435.49436240252	1180.59997558594
1436.13523467661	1180.19995117188
1436.77602396349	1172.80004882813
1437.41673027073	1185.40002441406
1438.05735360585	1184.19995117188
1438.69789397641	1180.59997558594
1439.33835138994	1172.80004882813
1439.978725854	1167.80004882813
1440.61901737612	1163.59997558594
1441.25922596385	1156.40002441406
1441.89935162473	1162.59997558594
1442.53939436631	1166.80004882813
1443.17935419612	1164.59997558594
1443.81923112171	1164.19995117188
1444.45902515061	1165
1445.09873629038	1168.40002441406
1445.73836454854	1175.80004882813
1446.37790993265	1172.80004882813
1447.01737245024	1170.80004882813
1447.65675210885	1170
1448.29604891602	1180.40002441406
1448.93526287928	1166.80004882813
1449.57439400618	1168.59997558594
1450.21344230426	1169.80004882813
1450.85240778105	1170.19995117188
1451.49129044409	1170.59997558594
1452.13009030092	1172.59997558594
1452.76880735907	1166.59997558594
1453.40744162608	1171.19995117188
1454.04599310949	1176.59997558594
1454.68446181683	1167.80004882813
1455.32284775564	1173.59997558594
1455.96115093345	1176.59997558594
1456.5993713578	1172.19995117188
1457.23750903623	1172.80004882813
1457.87556397626	1177.80004882813
1458.51353618543	1166.59997558594
1459.15142567127	1170.80004882813
1459.78923244132	1162.80004882813
1460.42695650311	1173.19995117188
1461.06459786417	1164.80004882813
1461.70215653203	1174.19995117188
1462.33963251423	1170.80004882813
1462.97702581829	1173.59997558594
1463.61433645175	1177
1464.25156442214	1170.59997558594
1464.88870973699	1184.40002441406
1465.52577240382	1170.19995117188
1466.16275243017	1174.59997558594
1466.79964982356	1172.40002441406
1467.43646459154	1172.19995117188
1468.07319674161	1169.40002441406
1468.70984628132	1152.19995117188
1469.34641321818	1168
1469.98289755974	1163
1470.6192993135	1165
1471.25561848701	1165
1471.89185508779	1168.59997558594
1472.52800912336	1166.40002441406
1473.16408060124	1179
1473.80006952897	1169.80004882813
1474.43597591407	1168.19995117188
1475.07179976406	1164.19995117188
1475.70754108647	1168
1476.34319988883	1164.59997558594
1476.97877617865	1163.59997558594
1477.61426996345	1157.59997558594
1478.24968125077	1161.80004882813
1478.88501004812	1171
1479.52025636303	1158.80004882813
1480.15542020302	1168.80004882813
1480.79050157561	1169.80004882813
1481.42550048832	1165.59997558594
1482.06041694867	1164.59997558594
1482.69525096418	1161
1483.33000254237	1159.59997558594
1483.96467169077	1163.19995117188
1484.59925841689	1153.40002441406
1485.23376272825	1161
1485.86818463237	1156.19995117188
1486.50252413677	1161.19995117188
1487.13678124896	1166.19995117188
1487.77095597646	1165
1488.4050483268	1163.19995117188
1489.03905830749	1158.40002441406
1489.67298592604	1159.59997558594
1490.30683118996	1160
1490.9405941068	1170.80004882813
1491.57427468403	1158.59997558594
1492.2078729292	1171.80004882813
1492.84138884981	1171.40002441406
1493.47482245338	1180.59997558594
1494.10817374742	1175.40002441406
1494.74144273944	1176.80004882813
1495.37462943696	1181.19995117188
1496.0077338475	1162
1496.64075597856	1174.59997558594
1497.27369583765	1169
1497.9065534323	1179
1498.53932877001	1171.59997558594
1499.17202185829	1178.40002441406
1499.80463270465	1189.59997558594
1500.43716131661	1196
1501.06960770167	1182.40002441406
1501.70197186735	1189
1502.33425382116	1188.59997558594
1502.96645357059	1187.59997558594
1503.59857112317	1191.19995117188
1504.23060648641	1188.19995117188
1504.8625596678	1194.80004882813
1505.49443067486	1202.80004882813
1506.1262195151	1204
1506.75792619602	1203.40002441406
1507.38955072513	1212.19995117188
1508.02109310993	1209.59997558594
1508.65255335794	1207.80004882813
1509.28393147666	1207.80004882813
1509.91522747359	1202.80004882813
1510.54644135624	1202.80004882813
1511.17757313212	1206.80004882813
1511.80862280872	1186.19995117188
1512.43959039356	1202.59997558594
1513.07047589413	1194
1513.70127931795	1183.40002441406
1514.33200067251	1178.40002441406
1514.96263996531	1180
1515.59319720386	1174.80004882813
1516.22367239567	1168.40002441406
1516.85406554822	1171.19995117188
1517.48437666903	1170.40002441406
1518.1146057656	1164
1518.74475284542	1166.59997558594
1519.374817916	1167.59997558594
1520.00480098483	1176.40002441406
1520.63470205942	1171.80004882813
1521.26452114726	1170.59997558594
1521.89425825586	1179.40002441406
1522.52391339271	1176.80004882813
1523.15348656531	1171.19995117188
1523.78297778116	1164.59997558594
1524.41238704775	1167.19995117188
1525.04171437259	1171.40002441406
1525.67095976317	1159.19995117188
1526.30012322699	1172.80004882813
1526.92920477154	1173
1527.55820440432	1174.59997558594
1528.18712213283	1172.59997558594
1528.81595796455	1172.40002441406
1529.44471190699	1164.19995117188
1530.07338396764	1157.19995117188
1530.70197415399	1157
1531.33048247353	1155
1531.95890893377	1163.80004882813
1532.58725354219	1162.59997558594
1533.21551630629	1165.40002441406
1533.84369723356	1161.19995117188
1534.47179633148	1161
1535.09981360757	1164.59997558594
1535.72774906929	1159.80004882813
1536.35560272415	1152.40002441406
1536.98337457963	1158.80004882813
1537.61106464323	1155
1538.23867292243	1156
1538.86619942473	1152
1539.49364415762	1143.59997558594
1540.12100712857	1145
1540.74828834509	1150.59997558594
1541.37548781466	1151
1542.00260554478	1150.59997558594
1542.62964154291	1147.40002441406
1543.25659581655	1145
1543.8834683732	1145.19995117188
1544.51025922034	1149.59997558594
1545.13696836544	1154.80004882813
1545.76359581601	1156.59997558594
1546.39014157952	1153.19995117188
1547.01660566345	1160.19995117188
1547.64298807531	1152.19995117188
1548.26928882255	1153
1548.89550791269	1146.59997558594
1549.52164535318	1133.40002441406
1550.14770115153	1139
1550.77367531521	1126
1551.39956785171	1135.59997558594
1552.0253787685	1127.40002441406
1552.65110807307	1132.80004882813
1553.2767557729	1129.19995117188
1553.90232187548	1120.80004882813
1554.52780638828	1136.59997558594
1555.15320931879	1133
1555.77853067447	1134.40002441406
1556.40377046282	1132.40002441406
1557.02892869132	1130.19995117188
1557.65400536744	1137.59997558594
1558.27900049866	1131.59997558594
1558.90391409247	1135.40002441406
1559.52874615633	1139.40002441406
1560.15349669773	1142.80004882813
1560.77816572414	1138.59997558594
1561.40275324305	1140.80004882813
1562.02725926192	1134.59997558594
1562.65168378824	1138.80004882813
1563.27602682948	1134.40002441406
1563.90028839311	1139.40002441406
1564.52446848662	1138.80004882813
1565.14856711748	1132.59997558594
1565.77258429316	1133.40002441406
1566.39652002113	1130.40002441406
1567.02037430887	1131.40002441406
1567.64414716387	1131.80004882813
1568.26783859357	1132.80004882813
1568.89144860547	1138
1569.51497720703	1135.59997558594
1570.13842440573	1139.40002441406
1570.76179020904	1148.19995117188
1571.38507462442	1151.40002441406
1572.00827765936	1146.80004882813
1572.63139932132	1154.80004882813
1573.25443961777	1153.80004882813
1573.87739855618	1146.19995117188
1574.50027614402	1148.19995117188
1575.12307238877	1151.80004882813
1575.74578729789	1153.19995117188
1576.36842087885	1150.59997558594
1576.99097313912	1151
1577.61344408616	1156.80004882813
1578.23583372745	1151.59997558594
1578.85814207046	1145.40002441406
1579.48036912264	1156.40002441406
1580.10251489147	1153.59997558594
1580.72457938441	1147.40002441406
1581.34656260893	1138.80004882813
1581.9684645725	1140.19995117188
1582.59028528258	1137.80004882813
1583.21202474663	1136.59997558594
1583.83368297212	1136
1584.45525996652	1131.59997558594
1585.07675573728	1137.19995117188
1585.69817029188	1131.40002441406
1586.31950363778	1124
1586.94075578243	1127.80004882813
1587.5619267333	1122.59997558594
1588.18301649786	1118.80004882813
1588.80402508357	1117.80004882813
1589.42495249788	1125
1590.04579874826	1120.40002441406
1590.66656384217	1109
1591.28724778707	1113.59997558594
1591.90785059042	1112.19995117188
1592.52837225968	1115.19995117188
1593.14881280232	1118
1593.76917222578	1115
1594.38945053753	1122.59997558594
1595.00964774502	1120.59997558594
1595.62976385573	1125.40002441406
1596.24979887709	1112.80004882813
1596.86975281657	1117.80004882813
1597.48962568164	1126
1598.10941747974	1126.59997558594
1598.72912821832	1112.19995117188
1599.34875790486	1122
1599.9683065468	1126.40002441406
1600.58777415159	1121
1601.2071607267	1119.80004882813
1601.82646627958	1127.59997558594
1602.44569081769	1124.40002441406
1603.06483434846	1127.19995117188
1603.68389687937	1125.80004882813
1604.30287841786	1115.59997558594
1604.92177897139	1116.59997558594
1605.54059854741	1110.80004882813
1606.15933715337	1111.59997558594
1606.77799479672	1110.40002441406
1607.39657148492	1099.59997558594
1608.01506722542	1098.19995117188
1608.63348202566	1098.19995117188
1609.2518158931	1102.19995117188
1609.87006883519	1100.80004882813
1610.48824085939	1094.80004882813
1611.10633197312	1104
1611.72434218386	1103.59997558594
1612.34227149904	1100.59997558594
1612.96011992612	1104
1613.57788747254	1105.80004882813
1614.19557414575	1113.80004882813
1614.8131799532	1112.59997558594
1615.43070490234	1110.59997558594
1616.04814900061	1111.59997558594
1616.66551225545	1115.59997558594
1617.28279467433	1114.19995117188
1617.89999626467	1107.19995117188
1618.51711703393	1108.19995117188
1619.13415698955	1121.19995117188
1619.75111613898	1124.40002441406
1620.36799448966	1116.80004882813
1620.98479204903	1127.19995117188
1621.60150882455	1121.40002441406
1622.21814482364	1123.80004882813
1622.83470005376	1121.40002441406
1623.45117452235	1116.80004882813
1624.06756823685	1110.80004882813
1624.6838812047	1108
1625.30011343335	1112
1625.91626493022	1107.59997558594
1626.53233570278	1110.40002441406
1627.14832575845	1111.19995117188
1627.76423510468	1109.80004882813
1628.38006374891	1103.19995117188
1628.99581169857	1109.80004882813
1629.61147896111	1104.80004882813
1630.22706554397	1101.59997558594
1630.84257145457	1104.19995117188
1631.45799670038	1099.80004882813
1632.07334128881	1104.19995117188
1632.6886052273	1096.40002441406
1633.3037885233	1096.40002441406
1633.91889118425	1095.19995117188
1634.53391321757	1093.19995117188
1635.1488546307	1086.59997558594
1635.76371543108	1084.80004882813
1636.37849562616	1083.40002441406
1636.99319522335	1088
1637.60781423009	1086.80004882813
1638.22235265383	1085.19995117188
1638.83681050198	1088.19995117188
1639.451187782	1102.40002441406
1640.0654845013	1099.19995117188
1640.67970066734	1094.19995117188
1641.29383628752	1101.19995117188
1641.9078913693	1102.80004882813
1642.5218659201	1098.19995117188
1643.13575994735	1096.40002441406
1643.74957345849	1099.80004882813
1644.36330646094	1104.19995117188
1644.97695896213	1097.80004882813
1645.59053096951	1097
1646.20402249049	1097.59997558594
1646.8174335325	1103
1647.43076410298	1109
1648.04401420935	1110.59997558594
1648.65718385905	1112.19995117188
1649.2702730595	1115
1649.88328181812	1118.59997558594
1650.49621014236	1119.80004882813
1651.10905803963	1126.40002441406
1651.72182551735	1116.59997558594
1652.33451258297	1112
1652.9471192439	1117.40002441406
1653.55964550757	1113.80004882813
1654.1720913814	1111.80004882813
1654.78445687283	1106.19995117188
1655.39674198926	1101.59997558594
1656.00894673814	1103
1656.62107112688	1096.19995117188
1657.23311516291	1087.19995117188
1657.84507885365	1082.80004882813
1658.45696220652	1084.80004882813
1659.06876522895	1081.40002441406
1659.68048792835	1078.59997558594
1660.29213031217	1076
1660.90369238779	1065.80004882813
1661.51517416267	1062.59997558594
1662.12657564421	1061.80004882813
1662.73789683984	1061.40002441406
1663.34913775697	1052.59997558594
1663.96029840303	1052.40002441406
1664.57137878544	1053
1665.18237891161	1052.80004882813
1665.79329878897	1060
1666.40413842493	1055
1667.01489782691	1059.19995117188
1667.62557700233	1058.40002441406
1668.2361759586	1050.19995117188
1668.84669470315	1058.40002441406
1669.4571332434	1051.59997558594
1670.06749158675	1047.40002441406
1670.67776974062	1048.59997558594
1671.28796771243	1054.19995117188
1671.8980855096	1056.40002441406
1672.50812313954	1045.59997558594
1673.11808060967	1050.40002441406
1673.72795792739	1052.19995117188
1674.33775510013	1053.80004882813
1674.9474721353	1047.80004882813
1675.55710904031	1044.80004882813
1676.16666582257	1044.19995117188
1676.7761424895	1043.80004882813
1677.38553904851	1043
1677.99485550702	1033
1678.60409187243	1030
1679.21324815215	1036.19995117188
1679.8223243536	1036.80004882813
1680.43132048419	1040.40002441406
1681.04023655132	1042.40002441406
1681.64907256241	1038.59997558594
1682.25782852487	1040.59997558594
1682.86650444611	1038.19995117188
1683.47510033353	1032
1684.08361619455	1031.19995117188
1684.69205203657	1038
1685.300407867	1035.59997558594
1685.90868369325	1031.80004882813
1686.51687952272	1031.59997558594
1687.12499536283	1036.40002441406
1687.73303122098	1032.80004882813
1688.34098710457	1033.19995117188
1688.94886302101	1035.59997558594
1689.55665897772	1034.59997558594
1690.16437498208	1028.40002441406
1690.77201104152	1031
1691.37956716342	1027.19995117188
1691.9870433552	1025.59997558594
1692.59443962426	1020.20001220703
1693.20175597801	1024.59997558594
1693.80899242384	1021
1694.41614896916	1023.79998779297
1695.02322562138	1025
1695.63022238789	1026.40002441406
1696.23713927609	1018.79998779297
1696.8439762934	1023.59997558594
1697.4507334472	1027
1698.05741074491	1028.59997558594
1698.66400819391	1031
1699.27052580161	1027.40002441406
1699.87696357542	1030.40002441406
1700.48332152272	1024.80004882813
1701.08959965092	1031.59997558594
1701.69579796742	1024.40002441406
1702.30191647962	1030.80004882813
1702.90795519491	1024.19995117188
1703.51391412069	1026.59997558594
1704.11979326437	1020.59997558594
1704.72559263332	1030.59997558594
1705.33131223496	1023.59997558594
1705.93695207668	1026.19995117188
1706.54251216588	1030.19995117188
1707.14799250994	1030
1707.75339311628	1028
1708.35871399227	1032
1708.96395514532	1031.80004882813
1709.56911658282	1027.59997558594
