634.948122577771	1369.80004882813
635.690341530823	1364.19995117188
636.43246851086	1362.59997558594
637.174503525845	1366.80004882813
637.916446583745	1368.40002441406
638.658297692538	1376
639.400056860179	1385
640.141724094637	1386.59997558594
640.883299403885	1379
641.62478279588	1391.40002441406
642.366174278594	1379.80004882813
643.107473859989	1388.40002441406
643.848681548029	1396.59997558594
644.589797350679	1399.19995117188
645.330821275901	1386.19995117188
646.071753331665	1387.80004882813
646.812593525922	1387
647.553341866646	1399.19995117188
648.293998361798	1383.19995117188
649.03456301933	1376.40002441406
649.775035847216	1375.40002441406
650.515416853409	1370
651.255706045874	1373.59997558594
651.995903432568	1380.40002441406
652.736009021453	1376.40002441406
653.476022820486	1389.40002441406
654.215944837629	1393.40002441406
654.955775080842	1408.59997558594
655.695513558081	1410
656.435160277301	1403.80004882813
657.174715246465	1408.80004882813
657.914178473527	1424.59997558594
658.653549966449	1426.80004882813
659.392829733176	1410
660.132017781678	1423.59997558594
660.871114119901	1409.40002441406
661.610118755803	1415.59997558594
662.349031697343	1411.40002441406
663.087852952468	1416
663.826582529139	1413.40002441406
664.565220435305	1406.19995117188
665.30376667892	1396.59997558594
666.04222126794	1406
666.780584210316	1406.59997558594
667.518855514	1402.59997558594
668.25703518694	1410
668.995123237096	1401.80004882813
669.733119672413	1409.19995117188
670.471024500842	1413.80004882813
671.208837730333	1402.40002441406
671.946559368839	1406.40002441406
672.684189424308	1397.80004882813
673.421727904689	1398.40002441406
674.159174817929	1400.40002441406
674.896530171977	1405.59997558594
675.633793974786	1403.59997558594
676.370966234295	1407.59997558594
677.108046958461	1410.19995117188
677.845036155219	1412
678.581933832528	1410.59997558594
679.318739998323	1404.80004882813
680.055454660558	1423
680.792077827172	1435
681.528609506116	1433.19995117188
682.265049705331	1419
683.001398432759	1424
683.737655696349	1430.59997558594
684.47382150404	1403.80004882813
685.20989586378	1406.40002441406
685.945878783503	1408.40002441406
686.68177027116	1409.59997558594
687.417570334688	1404.59997558594
688.153278982032	1426.19995117188
688.888896221129	1418.80004882813
689.624422059921	1434.80004882813
690.359856506349	1431.59997558594
691.095199568354	1443.80004882813
691.830451253874	1429.80004882813
692.565611570844	1423.80004882813
693.300680527212	1422.40002441406
694.03565813091	1418.59997558594
694.770544389877	1418.80004882813
695.505339312053	1416.80004882813
696.240042905372	1407.19995117188
696.974655177772	1416.59997558594
697.70917613719	1417.80004882813
698.443605791561	1417.19995117188
699.177944148826	1411.80004882813
699.912191216909	1401.59997558594
700.646347003755	1401.80004882813
701.380411517295	1409.19995117188
702.114384765465	1413.40002441406
702.848266756195	1427
703.582057497421	1417.59997558594
704.315756997074	1421.19995117188
705.049365263089	1435
705.782882303399	1432.80004882813
706.516308125936	1426.40002441406
707.249642738626	1433
707.982886149403	1436.80004882813
708.716038366204	1439.59997558594
709.449099396949	1440.40002441406
710.182069249577	1441.80004882813
710.914947932009	1431
711.647735452181	1428
712.380431818022	1426
713.113037037454	1418.19995117188
713.845551118411	1404.40002441406
714.577974068818	1419.40002441406
715.310305896604	1411.59997558594
716.042546609694	1412.80004882813
716.774696216013	1423.59997558594
717.506754723493	1421
718.238722140053	1415.80004882813
718.970598473624	1416.40002441406
719.702383732127	1415.59997558594
720.43407792349	1423.40002441406
721.165681055634	1437.80004882813
721.897193136486	1435.80004882813
722.628614173966	1437.19995117188
723.359944175997	1445
724.091183150505	1438.40002441406
724.822331105412	1443
725.553388048638	1441.19995117188
726.284353988106	1448.59997558594
727.015228931734	1440.40002441406
727.746012887449	1444
728.476705863162	1438.40002441406
729.207307866803	1432
729.937818906289	1426.40002441406
730.668238989535	1426.80004882813
731.398568124459	1423.80004882813
732.128806318986	1423
732.858953581034	1425
733.589009918514	1423.19995117188
734.318975339348	1426.80004882813
735.048849851452	1420.40002441406
735.778633462744	1416.40002441406
736.508326181137	1408.19995117188
737.237928014549	1396.59997558594
737.967438970897	1394.40002441406
738.696859058095	1412.40002441406
739.426188284054	1409
740.155426656692	1407
740.884574183922	1415.40002441406
741.613630873659	1425.59997558594
742.342596733815	1431.19995117188
743.071471772302	1428.80004882813
743.800255997034	1433.19995117188
744.528949415921	1436.59997558594
745.257552036877	1438.80004882813
745.986063867811	1432.80004882813
746.714484916638	1418.19995117188
747.442815191261	1425.19995117188
748.171054699597	1428.40002441406
748.899203449554	1424.80004882813
749.627261449039	1423.80004882813
750.355228705966	1420.80004882813
751.083105228239	1428.59997558594
751.810891023765	1417.80004882813
752.538586100459	1433.19995117188
753.266190466218	1420.19995117188
753.99370412896	1428.19995117188
754.721127096582	1434.59997558594
755.448459377	1431.59997558594
756.175700978114	1437.59997558594
756.902851907828	1414.40002441406
757.629912174055	1422.40002441406
758.356881784688	1436
759.083760747639	1440
759.810549070817	1455.80004882813
760.537246762113	1461
761.263853829442	1456.59997558594
761.990370280698	1460
762.716796123791	1447.59997558594
763.443131366618	1456.59997558594
764.169376017082	1455.19995117188
764.895530083085	1458
765.621593572527	1458.40002441406
766.347566493312	1460
767.073448853336	1473.19995117188
767.799240660502	1491.80004882813
768.524941922707	1504.40002441406
769.250552647854	1509.59997558594
769.976072843836	1521.40002441406
770.701502518551	1521.59997558594
771.426841679905	1534.19995117188
772.152090335793	1523.59997558594
772.877248494107	1538.40002441406
773.602316162747	1524.59997558594
774.327293349609	1536
775.052180062592	1545.19995117188
775.776976309589	1552
776.501682098496	1540.19995117188
777.226297437206	1538
777.950822333616	1525
778.675256795621	1511.59997558594
779.399600831111	1502.40002441406
780.123854447983	1496.59997558594
780.84801765413	1489.19995117188
781.572090457441	1473.59997558594
782.296072865811	1468
783.019964887131	1467.59997558594
783.743766529297	1469.80004882813
784.467477800194	1453.59997558594
785.191098707719	1448.80004882813
785.914629259756	1448.59997558594
786.638069464194	1445.19995117188
787.361419328932	1446.80004882813
788.084678861852	1446.40002441406
788.807848070845	1447
789.530926963798	1451.59997558594
790.253915548602	1441.40002441406
790.976813833144	1447.59997558594
791.699621825307	1437.59997558594
792.422339532986	1442.19995117188
793.144966964061	1438.80004882813
793.86750412642	1430.40002441406
794.589951027946	1418
795.312307676536	1420.19995117188
796.03457408006	1415.59997558594
796.756750246417	1409.40002441406
797.478836183477	1419.40002441406
798.200831899137	1433.59997558594
798.92273740127	1438.19995117188
799.644552697769	1444.19995117188
800.36627779651	1453
801.087912705374	1441.19995117188
801.809457432251	1436
802.530911985017	1445.80004882813
803.252276371558	1423.80004882813
803.973550599748	1426.59997558594
804.694734677472	1432.40002441406
805.415828612611	1431.80004882813
806.136832413045	1426.80004882813
806.857746086646	1434
807.578569641305	1437.40002441406
808.299303084892	1420.40002441406
809.019946425289	1423.19995117188
809.740499670372	1425.80004882813
810.460962828022	1435.40002441406
811.181335906114	1431
811.901618912524	1444.19995117188
812.621811855131	1445.80004882813
813.341914741809	1457.40002441406
814.061927580433	1461
814.781850378881	1448.19995117188
815.501683145025	1430.19995117188
816.221425886743	1428.80004882813
816.941078611903	1434.80004882813
817.660641328387	1435.59997558594
818.380114044065	1434.19995117188
819.099496766808	1420.59997558594
819.818789504492	1434.59997558594
820.53799226499	1432.59997558594
821.257105056168	1418
821.976127885904	1413.19995117188
822.695060762064	1413
823.413903692525	1403.59997558594
824.132656685151	1408.59997558594
824.851319747817	1410.19995117188
825.569892888388	1415.80004882813
826.288376114739	1422.19995117188
827.006769434737	1429.19995117188
827.725072856249	1435.59997558594
828.443286387142	1440.59997558594
829.161410035285	1445
829.87944380855	1427.19995117188
830.597387714798	1425.40002441406
831.315241761898	1417.40002441406
832.033005957715	1415.40002441406
832.750680310119	1408.80004882813
833.468264826969	1418.80004882813
834.18575951614	1421.40002441406
834.903164385486	1431.59997558594
835.620479442878	1413.40002441406
836.337704696181	1419.59997558594
837.054840153255	1407.19995117188
837.771885821962	1410
838.488841710172	1425
839.20570782574	1420.80004882813
839.922484176531	1411.40002441406
840.639170770409	1431.40002441406
841.355767615231	1429.59997558594
842.072274718864	1433.59997558594
842.788692089164	1450.19995117188
843.505019733993	1459.59997558594
844.221257661209	1455.80004882813
844.937405878676	1457.40002441406
845.65346439425	1453
846.369433215789	1455.40002441406
847.085312351156	1445.80004882813
847.801101808205	1440
848.516801594793	1425.80004882813
849.232411718781	1416.59997558594
849.947932188021	1424.80004882813
850.663363010376	1426.40002441406
851.378704193698	1413
852.093955745842	1413.80004882813
852.809117674669	1433
853.524189988028	1425.80004882813
854.239172693778	1427
854.954065799768	1429.80004882813
855.668869313857	1422.19995117188
856.383583243899	1409.19995117188
857.098207597743	1412.59997558594
857.812742383246	1408.40002441406
858.527187608255	1409.59997558594
859.241543280628	1422.59997558594
859.955809408218	1415
860.669985998868	1414.40002441406
861.384073060437	1416.59997558594
862.098070600772	1429.40002441406
862.811978627724	1420.59997558594
863.52579714914	1413
864.239526172873	1415.80004882813
864.953165706776	1428.40002441406
865.666715758687	1418.19995117188
866.380176336464	1405.19995117188
867.093547447951	1400.59997558594
867.806829100996	1398.80004882813
868.520021303444	1403.80004882813
869.233124063149	1397.40002441406
869.94613738795	1408.19995117188
870.659061285693	1412
871.37189576423	1414.40002441406
872.084640831403	1430.19995117188
872.797296495057	1438.40002441406
873.509862763039	1444.80004882813
874.22233964319	1433.80004882813
874.934727143353	1417.40002441406
875.647025271374	1420.19995117188
876.359234035097	1414
877.071353442361	1395.80004882813
877.783383501015	1408.40002441406
878.495324218895	1403.40002441406
879.207175603844	1420.80004882813
879.918937663705	1428.59997558594
880.630610406318	1440.19995117188
881.342193839524	1435.80004882813
882.053687971161	1426.40002441406
882.765092809069	1416.80004882813
883.476408361091	1421.80004882813
884.187634635066	1429
884.898771638828	1417.19995117188
885.609819380221	1417.40002441406
886.320777867076	1420.40002441406
887.031647107236	1424.19995117188
887.742427108536	1429.19995117188
888.453117878816	1433.59997558594
889.16371942591	1432
889.874231757652	1425.80004882813
890.584654881883	1438.80004882813
891.294988806434	1430.80004882813
892.005233539141	1417.59997558594
892.715389087837	1407.19995117188
893.42545546036	1407.59997558594
894.135432664543	1392.19995117188
894.845320708216	1401.19995117188
895.555119599216	1409
896.264829345375	1406.40002441406
896.974449954526	1408.80004882813
897.683981434496	1419
898.393423793125	1408.59997558594
899.102777038235	1418.19995117188
899.812041177664	1425.40002441406
900.521216219239	1418.19995117188
901.230302170793	1430.80004882813
901.939299040155	1427.59997558594
902.64820683515	1435.40002441406
903.357025563612	1438.59997558594
904.065755233368	1428.59997558594
904.774395852247	1428.80004882813
905.482947428076	1423.80004882813
906.191409968682	1417.80004882813
906.899783481897	1414.59997558594
907.608067975538	1420
908.316263457443	1415
909.02436993543	1426
909.732387417327	1413
910.440315910959	1421.19995117188
911.148155424154	1412.40002441406
911.855905964731	1427.59997558594
912.563567540521	1421
913.271140159339	1411.19995117188
913.978623829017	1407.40002441406
914.686018557374	1399.59997558594
915.393324352237	1421.80004882813
916.100541221421	1414.19995117188
916.807669172752	1416.19995117188
917.514708214054	1420.19995117188
918.221658353142	1417.80004882813
918.928519597843	1421
919.635291955976	1418.19995117188
920.341975435358	1425.19995117188
921.048570043813	1432.59997558594
921.75507578916	1431.80004882813
922.461492679212	1427.80004882813
923.167820721795	1443.40002441406
923.874059924726	1420.80004882813
924.58021029582	1426.59997558594
925.286271842893	1418.59997558594
925.992244573769	1425.59997558594
926.698128496262	1424.80004882813
927.403923618184	1420
928.109629947355	1415
928.815247491593	1406.19995117188
929.520776258708	1428.80004882813
930.226216256519	1413.40002441406
930.931567492841	1434
931.636829975482	1423.40002441406
932.342003712263	1418.19995117188
933.047088710995	1410.80004882813
933.752084979491	1417.59997558594
934.456992525564	1412
935.161811357024	1419.59997558594
935.866541481688	1422.80004882813
936.571182907363	1405.19995117188
937.275735641861	1416.40002441406
937.980199692995	1410
938.684575068572	1411.59997558594
939.388861776411	1404
940.093059824311	1409.59997558594
940.797169220085	1424.40002441406
941.501189971544	1418.59997558594
942.205122086495	1421
942.908965572751	1417.19995117188
943.612720438111	1420.19995117188
944.316386690391	1413.80004882813
945.019964337391	1392
945.723453386924	1406
946.426853846795	1391.80004882813
947.130165724808	1392.80004882813
947.83338902877	1402
948.536523766488	1411.19995117188
949.239569945764	1407.19995117188
949.942527574402	1408.59997558594
950.64539666021	1407
951.348177210993	1390.59997558594
952.050869234548	1396.19995117188
952.753472738683	1384.19995117188
953.455987731199	1379.19995117188
954.158414219898	1376
954.860752212587	1385.59997558594
955.563001717061	1394.59997558594
956.265162741124	1379.19995117188
956.967235292576	1382
957.669219379224	1387.40002441406
958.371115008857	1366.19995117188
959.072922189283	1368.40002441406
959.774640928301	1371.59997558594
960.476271233708	1364
961.177813113301	1367.80004882813
961.879266574882	1374.19995117188
962.580631626248	1370.80004882813
963.281908275194	1397.59997558594
963.98309652952	1395.40002441406
964.684196397022	1395.40002441406
965.3852078855	1406.59997558594
966.086131002745	1395.40002441406
966.786965756555	1397
967.487712154726	1384.80004882813
968.188370205055	1382
968.888939915331	1375
969.589421293352	1371.40002441406
970.289814346909	1365
970.990119083801	1366.40002441406
971.690335511819	1385.59997558594
972.39046363875	1378.19995117188
973.090503472398	1379.40002441406
973.790455020545	1385.40002441406
974.490318290987	1386.19995117188
975.190093291516	1391.19995117188
975.889780029923	1381
976.589378513998	1378.80004882813
977.288888751527	1375
977.988310750308	1375.40002441406
978.687644518122	1376
979.386890062767	1366.80004882813
980.086047392025	1377.40002441406
980.785116513689	1380.19995117188
981.484097435542	1393.80004882813
982.182990165377	1383.80004882813
982.88179471098	1388.59997558594
983.580511080137	1384.80004882813
984.279139280632	1392.80004882813
984.977679320253	1387.40002441406
985.67613120679	1382
986.374494948027	1391.19995117188
987.072770551745	1387.19995117188
987.770958025731	1381.19995117188
988.469057377772	1377
989.167068615649	1383.80004882813
989.864991747145	1376.80004882813
990.562826780047	1373.80004882813
991.260573722134	1374.59997558594
991.958232581195	1386.40002441406
992.655803365003	1375.40002441406
993.353286081346	1384.19995117188
994.050680738006	1384.59997558594
994.74798734276	1395
995.44520590339	1391.80004882813
996.142336427681	1385.19995117188
996.839378923407	1376
997.536333398348	1396.19995117188
998.233199860289	1393
998.929978317004	1394
999.626668776274	1380.19995117188
1000.32327124587	1375.19995117188
1001.01978573359	1374
1001.71621224718	1385.59997558594
1002.41255079445	1387.40002441406
1003.10880138315	1385
1003.80496402107	1377.40002441406
1004.50103871599	1371
1005.19702547567	1380.40002441406
1005.8929243079	1394.59997558594
1006.58873522045	1389.80004882813
1007.2844582211	1393
1007.98009331761	1391.59997558594
1008.67564051776	1393.19995117188
1009.37109982933	1377.40002441406
1010.06647126009	1391.80004882813
1010.7617548178	1381.80004882813
1011.45695051026	1381.59997558594
1012.15205834522	1398.80004882813
1012.84707833045	1411.80004882813
1013.54201047373	1407.19995117188
1014.23685478284	1407.40002441406
1014.93161126553	1399
1015.62627992959	1390
1016.32086078277	1387.80004882813
1017.01535383285	1392
1017.70975908761	1383.19995117188
1018.40407655479	1388.59997558594
1019.09830624219	1385.19995117188
1019.79244815755	1380.59997558594
1020.48650230866	1391.80004882813
1021.18046870328	1391.59997558594
1021.87434734917	1383.80004882813
1022.56813825411	1387.19995117188
1023.26184142584	1397.19995117188
1023.95545687216	1391
1024.64898460082	1372.59997558594
1025.34242461957	1365.80004882813
1026.0357769362	1375.80004882813
1026.72904155846	1385.19995117188
1027.42221849412	1373.80004882813
1028.11530775094	1371.80004882813
1028.80830933668	1376.80004882813
1029.50122325911	1364.19995117188
1030.19404952599	1373.19995117188
1030.88678814508	1381.40002441406
1031.57943912414	1385
1032.27200247093	1383
1032.96447819323	1387.19995117188
1033.65686629878	1393.19995117188
1034.34916679534	1386.19995117188
1035.04137969068	1387.59997558594
1035.73350499256	1382.80004882813
1036.42554270874	1394
1037.11749284697	1407.40002441406
1037.80935541501	1392.19995117188
1038.50113042062	1389.80004882813
1039.19281787156	1386.19995117188
1039.88441777559	1394.59997558594
1040.57593014046	1377.19995117188
1041.26735497393	1372.40002441406
1041.95869228376	1375.80004882813
1042.6499420777	1378
1043.3411043635	1369.59997558594
1044.03217914893	1382.40002441406
1044.72316644174	1384.19995117188
1045.41406624968	1386
1046.1048785805	1385
1046.79560344197	1387
1047.48624084182	1378.40002441406
1048.17679078783	1379.80004882813
1048.86725328774	1380.59997558594
1049.55762834929	1378.19995117188
1050.24791598025	1372
1050.93811618837	1369
1051.62822898139	1371.59997558594
1052.31825436707	1369.40002441406
1053.00819235315	1363.19995117188
1053.6980429474	1361.40002441406
1054.38780615755	1370.59997558594
1055.07748199136	1360.80004882813
1055.76707045658	1375.59997558594
1056.45657156095	1359.80004882813
1057.14598531222	1371.80004882813
1057.83531171814	1360.80004882813
1058.52455078646	1367.59997558594
1059.21370252494	1357.40002441406
1059.90276694129	1364.59997558594
1060.5917440433	1360.19995117188
1061.28063383868	1360.19995117188
1061.9694363352	1360.40002441406
1062.65815154059	1367.59997558594
1063.34677946261	1362.80004882813
1064.03532010899	1369.80004882813
1064.72377348748	1367.40002441406
1065.41213960583	1377.40002441406
1066.10041847177	1366.80004882813
1066.78861009306	1356.59997558594
1067.47671447743	1357
1068.16473163263	1352.80004882813
1068.85266156639	1360.40002441406
1069.54050428647	1367.40002441406
1070.2282598006	1368.80004882813
1070.91592811652	1361
1071.60350924198	1369.19995117188
1072.29100318471	1356.40002441406
1072.97840995245	1369.59997558594
1073.66572955295	1365
1074.35296199394	1366
1075.04010728316	1367.19995117188
1075.72716542836	1369.40002441406
1076.41413643726	1350.80004882813
1077.10102031761	1346
1077.78781707715	1351.59997558594
1078.4745267236	1352.19995117188
1079.16114926471	1355.80004882813
1079.84768470822	1344.80004882813
1080.53413306185	1349.40002441406
1081.22049433336	1360.40002441406
1081.90676853046	1354.59997558594
1082.5929556609	1368
1083.27905573241	1352.59997558594
1083.96506875272	1355
1084.65099472957	1357.59997558594
1085.3368336707	1368
1086.02258558383	1355.59997558594
1086.70825047669	1358.19995117188
1087.39382835703	1365.19995117188
1088.07931923257	1356
1088.76472311104	1350.40002441406
1089.45004000018	1345.40002441406
1090.13526990771	1338.19995117188
1090.82041284137	1348.59997558594
1091.50546880889	1346.80004882813
1092.19043781799	1347.80004882813
1092.87531987642	1354.40002441406
1093.56011499188	1333.80004882813
1094.24482317212	1340.59997558594
1094.92944442486	1355.80004882813
1095.61397875783	1361
1096.29842617876	1358.59997558594
1096.98278669537	1341
1097.6670603154	1344.59997558594
1098.35124704656	1342.40002441406
1099.03534689659	1344.80004882813
1099.71935987322	1352.40002441406
1100.40328598416	1343
1101.08712523713	1347.59997558594
1101.77087763988	1345.80004882813
1102.45454320012	1346.80004882813
1103.13812192557	1341
1103.82161382396	1354.19995117188
1104.50501890301	1353.40002441406
1105.18833717045	1365.80004882813
1105.87156863399	1363
1106.55471330137	1370.40002441406
1107.2377711803	1371.19995117188
1107.9207422785	1359
1108.60362660369	1363.40002441406
1109.2864241636	1361.80004882813
1109.96913496594	1356.59997558594
1110.65175901844	1362.80004882813
1111.33429632882	1360.40002441406
1112.01674690479	1360.40002441406
1112.69911075408	1357.80004882813
1113.38138788439	1364.40002441406
1114.06357830346	1366
1114.745682019	1364.59997558594
1115.42769903872	1361.19995117188
1116.10962937035	1371
1116.7914730216	1363.19995117188
1117.47323000018	1360.40002441406
1118.15490031382	1364.19995117188
1118.83648397022	1366.59997558594
1119.51798097712	1372.40002441406
1120.1993913422	1365.80004882813
1120.88071507321	1352.59997558594
1121.56195217784	1353.19995117188
1122.24310266381	1340.59997558594
1122.92416653884	1347
1123.60514381064	1349
1124.28603448692	1365.80004882813
1124.9668385754	1370.19995117188
1125.64755608378	1359.59997558594
1126.32818701978	1368.80004882813
1127.00873139111	1353.80004882813
1127.68918920548	1361.19995117188
1128.3695604706	1358.40002441406
1129.04984519419	1358
1129.73004338394	1358.80004882813
1130.41015504758	1355.40002441406
1131.09018019281	1364.40002441406
1131.77011882734	1352.40002441406
1132.44997095888	1360.59997558594
1133.12973659514	1356.19995117188
1133.80941574381	1362.80004882813
1134.48900841263	1351.40002441406
1135.16851460927	1361.40002441406
1135.84793434147	1350.19995117188
1136.52726761692	1355.19995117188
1137.20651444333	1368.80004882813
1137.8856748284	1364
1138.56474877984	1358.80004882813
1139.24373630536	1351.59997558594
1139.92263741265	1339.19995117188
1140.60145210943	1344.19995117188
1141.28018040339	1345.40002441406
1141.95882230225	1335.19995117188
1142.6373778137	1327.40002441406
1143.31584694545	1330.80004882813
1143.99422970519	1318.19995117188
1144.67252610064	1334.59997558594
1145.35073613949	1327.40002441406
1146.02885982944	1334.40002441406
1146.7068971782	1321
1147.38484819347	1319
1148.06271288294	1308.19995117188
1148.74049125432	1316.19995117188
1149.41818331531	1311.59997558594
1150.0957890736	1309.19995117188
1150.77330853689	1322
1151.45074171289	1324.40002441406
1152.12808860928	1328.40002441406
1152.80534923378	1336.19995117188
1153.48252359407	1333.80004882813
1154.15961169786	1332.40002441406
1154.83661355283	1318.19995117188
1155.51352916669	1325.40002441406
1156.19035854713	1329.40002441406
1156.86710170185	1326.80004882813
1157.54375863855	1320.40002441406
1158.22032936491	1325.40002441406
1158.89681388863	1334.59997558594
1159.57321221741	1335
1160.24952435894	1324.80004882813
1160.92575032092	1329.80004882813
1161.60189011103	1334.59997558594
1162.27794373697	1345.40002441406
1162.95391120644	1345
1163.62979252712	1350
1164.3055877067	1346.40002441406
1164.98129675288	1339.19995117188
1165.65691967336	1341.40002441406
1166.33245647581	1340.80004882813
1167.00790716792	1332.59997558594
1167.6832717574	1325.59997558594
1168.35855025193	1318.59997558594
1169.0337426592	1329.40002441406
1169.70884898689	1334.40002441406
1170.3838692427	1336
1171.05880343431	1342.80004882813
1171.73365156941	1356.19995117188
1172.40841365569	1355.59997558594
1173.08308970083	1351.19995117188
1173.75767971253	1352
1174.43218369847	1343.19995117188
1175.10660166633	1365.59997558594
1175.7809336238	1362.19995117188
1176.45517957857	1363.80004882813
1177.12933953832	1355
1177.80341351073	1371.19995117188
1178.47740150349	1355
1179.15130352429	1358.19995117188
1179.8251195808	1359.59997558594
1180.49884968071	1353.40002441406
1181.1724938317	1358
1181.84605204145	1357.80004882813
1182.51952431766	1358.59997558594
1183.19291066799	1354.40002441406
1183.86621110013	1355
1184.53942562176	1357.19995117188
1185.21255424057	1362
1185.88559696422	1365.40002441406
1186.55855380041	1358.59997558594
1187.2314247568	1353
1187.90420984109	1345.19995117188
1188.57690906095	1365.59997558594
1189.24952242405	1360.19995117188
1189.92204993808	1365
1190.59449161071	1366.80004882813
1191.26684744962	1368.80004882813
1191.93911746249	1369.80004882813
1192.61130165699	1376.59997558594
1193.28340004081	1383.80004882813
1193.95541262161	1379.40002441406
1194.62733940707	1369.19995117188
1195.29918040487	1372.80004882813
1195.97093562269	1370.19995117188
1196.64260506819	1364
1197.31418874905	1361.40002441406
1197.98568667295	1370.19995117188
1198.65709884755	1359.19995117188
1199.32842528053	1361.59997558594
1199.99966597957	1368.59997558594
1200.67082095234	1365
1201.3418902065	1359.80004882813
1202.01287374974	1339
1202.68377158971	1329.80004882813
1203.3545837341	1321
1204.02531019057	1327.59997558594
1204.6959509668	1320.19995117188
1205.36650607045	1322.59997558594
1206.03697550919	1323.19995117188
1206.70735929069	1323.19995117188
1207.37765742263	1326.80004882813
1208.04786991266	1328
1208.71799676846	1322.40002441406
1209.38803799769	1317.59997558594
1210.05799360803	1321.59997558594
1210.72786360714	1310.59997558594
1211.39764800268	1321.80004882813
1212.06734680233	1312.80004882813
1212.73696001375	1312.80004882813
1213.4064876446	1315.19995117188
1214.07592970255	1327.80004882813
1214.74528619526	1320.59997558594
1215.4145571304	1325.40002441406
1216.08374251564	1317.19995117188
1216.75284235863	1307.80004882813
1217.42185666704	1317.19995117188
1218.09078544854	1319
1218.75962871078	1299.19995117188
1219.42838646143	1308
1220.09705870816	1298.80004882813
1220.76564545861	1313.19995117188
1221.43414672046	1323.59997558594
1222.10256250136	1327.40002441406
1222.77089280898	1323.19995117188
1223.43913765098	1318
1224.107297035	1318.59997558594
1224.77537096873	1315
1225.44335945981	1312
1226.1112625159	1308.59997558594
1226.77908014467	1311
1227.44681235376	1310
1228.11445915085	1308.19995117188
1228.78202054357	1315.80004882813
1229.44949653961	1300.19995117188
1230.11688714659	1316.80004882813
1230.7841923722	1316
1231.45141222407	1306
1232.11854670988	1305.40002441406
1232.78559583726	1306.19995117188
1233.45255961388	1311.19995117188
1234.1194380474	1311.80004882813
1234.78623114546	1310.40002441406
1235.45293891572	1315.40002441406
1236.11956136583	1316.19995117188
1236.78609850345	1312.40002441406
1237.45255033623	1316
1238.11891687182	1307.40002441406
1238.78519811788	1304.59997558594
1239.45139408205	1305.19995117188
1240.11750477198	1303
1240.78353019534	1296
1241.44947035976	1294.59997558594
1242.11532527291	1296
1242.78109494242	1297.59997558594
1243.44677937595	1297
1244.11237858115	1292
1244.77789256567	1293.19995117188
1245.44332133715	1288.19995117188
1246.10866490325	1283.80004882813
1246.7739232716	1295.19995117188
1247.43909644987	1297
1248.10418444569	1289.19995117188
1248.76918726671	1290.19995117188
1249.43410492059	1289.19995117188
1250.09893741496	1284.59997558594
1250.76368475747	1266.59997558594
1251.42834695576	1290
1252.09292401749	1284.19995117188
1252.75741595029	1293.59997558594
1253.42182276182	1286.80004882813
1254.08614445971	1287.19995117188
1254.75038105161	1282.40002441406
1255.41453254515	1269
1256.07859894799	1278.59997558594
1256.74258026777	1281.19995117188
1257.40647651213	1269
1258.0702876887	1278.80004882813
1258.73401380514	1281.80004882813
1259.39765486908	1277.59997558594
1260.06121088817	1288
1260.72468187004	1279.59997558594
1261.38806782233	1281.59997558594
1262.05136875269	1296.19995117188
1262.71458466875	1294.40002441406
1263.37771557815	1297.59997558594
1264.04076148854	1294
1264.70372240753	1305.59997558594
1265.3665983428	1300.40002441406
1266.02938930195	1304.59997558594
1266.69209529263	1315.80004882813
1267.35471632249	1292.80004882813
1268.01725239914	1300.40002441406
1268.67970353024	1294.59997558594
1269.34206972342	1282.19995117188
1270.00435098631	1284.40002441406
1270.66654732655	1296.19995117188
1271.32865875177	1292.19995117188
1271.9906852696	1304.19995117188
1272.65262688768	1300
1273.31448361365	1311.40002441406
1273.97625545514	1311.19995117188
1274.63794241978	1312.59997558594
1275.2995445152	1314.19995117188
1275.96106174903	1314.40002441406
1276.62249412892	1307.19995117188
1277.28384166248	1310.19995117188
1277.94510435735	1313
1278.60628222116	1303.80004882813
1279.26737526155	1300.19995117188
1279.92838348613	1305.59997558594
1280.58930690255	1296.80004882813
1281.25014551842	1301.59997558594
1281.91089934139	1300.19995117188
1282.57156837907	1288.80004882813
1283.2321526391	1287.80004882813
1283.89265212911	1299.19995117188
1284.55306685671	1303.40002441406
1285.21339682955	1311.19995117188
1285.87364205525	1300.59997558594
1286.53380254142	1307.19995117188
1287.19387829571	1297.59997558594
1287.85386932573	1304.80004882813
1288.51377563911	1313
1289.17359724348	1303.59997558594
1289.83333414646	1287.19995117188
1290.49298635567	1289.59997558594
1291.15255387874	1287.80004882813
1291.8120367233	1295.19995117188
1292.47143489696	1290
1293.13074840736	1298
1293.7899772621	1292.59997558594
1294.44912146882	1290.40002441406
1295.10818103513	1310.40002441406
1295.76715596866	1313.80004882813
1296.42604627704	1311.40002441406
1297.08485196787	1324.80004882813
1297.74357304878	1321.40002441406
1298.4022095274	1311.19995117188
1299.06076141134	1307.40002441406
1299.71922870821	1306.59997558594
1300.37761142565	1309.59997558594
1301.03590957126	1323.59997558594
1301.69412315268	1317.19995117188
1302.3522521775	1309.59997558594
1303.01029665336	1315.19995117188
1303.66825658787	1306.19995117188
1304.32613198865	1303
1304.98392286332	1298.19995117188
1305.64162921948	1305.19995117188
1306.29925106476	1313.59997558594
1306.95678840677	1313.80004882813
1307.61424125312	1313.19995117188
1308.27160961145	1312.59997558594
1308.92889348934	1320.80004882813
1309.58609289443	1319.19995117188
1310.24320783432	1334.40002441406
1310.90023831664	1329
1311.55718434898	1332.40002441406
1312.21404593897	1333.40002441406
1312.87082309421	1341
1313.52751582233	1328
1314.18412413092	1328
1314.84064802761	1329
1315.49708752	1323.40002441406
1316.1534426157	1337.80004882813
1316.80971332233	1345
1317.46589964749	1324.40002441406
1318.1220015988	1318.59997558594
1318.77801918386	1327.59997558594
1319.43395241028	1317.19995117188
1320.08980128567	1325
1320.74556581764	1323
1321.4012460138	1319
1322.05684188176	1319.40002441406
1322.71235342911	1315.19995117188
1323.36778066347	1305.40002441406
1324.02312359245	1304.59997558594
1324.67838222365	1304.59997558594
1325.33355656468	1305.19995117188
1325.98864662314	1293.19995117188
1326.64365240663	1301.80004882813
1327.29857392277	1306.19995117188
1327.95341117915	1299
1328.60816418339	1298
1329.26283294308	1290.19995117188
1329.91741746582	1293.59997558594
1330.57191775923	1305.59997558594
1331.2263338309	1299.80004882813
1331.88066568843	1303.80004882813
1332.53491333943	1298.80004882813
1333.1890767915	1305.19995117188
1333.84315605224	1293.59997558594
1334.49715112925	1287.40002441406
1335.15106203013	1299.19995117188
1335.80488876249	1285
1336.45863133391	1313
1337.112289752	1310.80004882813
1337.76586402437	1311.59997558594
1338.4193541586	1303
1339.0727601623	1306.59997558594
1339.72608204306	1308.59997558594
1340.37931980849	1308.19995117188
1341.03247346617	1302.40002441406
1341.68554302372	1301.59997558594
1342.33852848871	1301.40002441406
1342.99142986876	1308.59997558594
1343.64424717145	1309.59997558594
1344.29698040438	1316.59997558594
1344.94962957515	1315
1345.60219469135	1307.59997558594
1346.25467576058	1312.59997558594
1346.90707279042	1296.40002441406
1347.55938578848	1304.19995117188
1348.21161476235	1311.40002441406
1348.86375971962	1317
1349.51582066787	1312
1350.16779761472	1322.80004882813
1350.81969056774	1324.40002441406
1351.47149953453	1334.59997558594
1352.12322452269	1341.19995117188
1352.77486553979	1345.19995117188
1353.42642259344	1347.19995117188
1354.07789569122	1334.59997558594
1354.72928484072	1356.59997558594
1355.38059004953	1357.59997558594
1356.03181132525	1366.40002441406
1356.68294867545	1374.80004882813
1357.33400210773	1380.59997558594
1357.98497162968	1374.80004882813
1358.63585724889	1376.19995117188
1359.28665897294	1371.59997558594
1359.93737680942	1380.40002441406
1360.58801076591	1390.19995117188
1361.23856085001	1391.59997558594
1361.88902706929	1392.40002441406
1362.53940943135	1394.19995117188
1363.18970794377	1390.59997558594
1363.83992261413	1390.59997558594
1364.49005345003	1387.19995117188
1365.14010045904	1394.40002441406
1365.79006364874	1391.19995117188
1366.43994302673	1383.59997558594
1367.08973860058	1376.80004882813
1367.73945037788	1358.80004882813
1368.38907836621	1350.59997558594
1369.03862257315	1354.80004882813
1369.68808300629	1333
1370.3374596732	1314.19995117188
1370.98675258148	1299.40002441406
1371.63596173868	1297.80004882813
1372.28508715241	1294.59997558594
1372.93412883024	1294.19995117188
1373.58308677974	1281.40002441406
1374.2319610085	1282
1374.8807515241	1294.19995117188
1375.52945833412	1287.40002441406
1376.17808144612	1287
1376.82662086771	1280.19995117188
1377.47507660644	1278.80004882813
1378.12344866989	1276.59997558594
1378.77173706565	1276.19995117188
1379.41994180129	1285.80004882813
1380.06806288439	1289.19995117188
1380.71610032252	1275.80004882813
1381.36405412326	1274.40002441406
1382.01192429419	1283.59997558594
1382.65971084287	1277.19995117188
1383.30741377688	1271.40002441406
1383.95503310381	1273.40002441406
1384.60256883121	1267.40002441406
1385.25002096667	1274.80004882813
1385.89738951775	1280.59997558594
1386.54467449204	1281
1387.19187589709	1282.59997558594
1387.8389937405	1283.59997558594
1388.48602802982	1276.59997558594
1389.13297877262	1266.59997558594
1389.77984597649	1263.40002441406
1390.42662964899	1272.19995117188
1391.07332979768	1270.19995117188
1391.71994643015	1258.40002441406
1392.36647955395	1253.59997558594
1393.01292917667	1256.59997558594
1393.65929530586	1251.19995117188
1394.3055779491	1254
1394.95177711395	1255.59997558594
1395.59789280799	1247.59997558594
1396.24392503877	1258.80004882813
1396.88987381387	1268
1397.53573914086	1257.59997558594
1398.1815210273	1245.19995117188
1398.82721948075	1249.19995117188
1399.47283450878	1245.59997558594
1400.11836611897	1256.19995117188
1400.76381431886	1248.80004882813
1401.40917911603	1250.59997558594
1402.05446051805	1238.80004882813
1402.69965853247	1235.59997558594
1403.34477316686	1230.19995117188
1403.98980442878	1231.80004882813
1404.6347523258	1228.80004882813
1405.27961686548	1226.19995117188
1405.92439805538	1240.80004882813
1406.56909590306	1226.80004882813
1407.21371041608	1233.19995117188
1407.85824160202	1228.80004882813
1408.50268946841	1234.80004882813
1409.14705402284	1237.40002441406
1409.79133527285	1236.40002441406
1410.43553322601	1247.80004882813
1411.07964788987	1241.40002441406
1411.723679272	1242
1412.36762737996	1230.19995117188
1413.01149222129	1219
1413.65527380357	1218.80004882813
1414.29897213435	1231.80004882813
1414.94258722118	1233.59997558594
1415.58611907163	1229.59997558594
1416.22956769325	1229.59997558594
1416.87293309359	1240.19995117188
1417.51621528021	1240.80004882813
1418.15941426067	1245.40002441406
1418.80253004253	1253
1419.44556263333	1261
1420.08851204063	1255.19995117188
1420.731378272	1252.80004882813
1421.37416133497	1248.59997558594
1422.0168612371	1248.19995117188
1422.65947798596	1242.40002441406
1423.30201158908	1241.59997558594
1423.94446205403	1231.59997558594
1424.58682938835	1245
1425.2291135996	1250.40002441406
1425.87131469532	1250
1426.51343268308	1250.40002441406
1427.15546757042	1265
1427.79741936488	1270.80004882813
1428.43928807403	1278
1429.0810737054	1273.19995117188
1429.72277626656	1268
1430.36439576504	1266.59997558594
1431.00593220841	1265.80004882813
1431.64738560419	1264.19995117188
1432.28875595995	1258
1432.93004328324	1259.80004882813
1433.57124758159	1254.19995117188
1434.21236886255	1264
1434.85340713368	1263
1435.49436240252	1249.40002441406
1436.13523467661	1246
1436.77602396349	1251.19995117188
1437.41673027073	1252.80004882813
1438.05735360585	1250.40002441406
1438.69789397641	1250.19995117188
1439.33835138994	1241.40002441406
1439.978725854	1240.19995117188
1440.61901737612	1233
1441.25922596385	1238
1441.89935162473	1238
1442.53939436631	1240.59997558594
1443.17935419612	1245
1443.81923112171	1242.19995117188
1444.45902515061	1236.19995117188
1445.09873629038	1248.19995117188
1445.73836454854	1239.59997558594
1446.37790993265	1249.80004882813
1447.01737245024	1249
1447.65675210885	1254.59997558594
1448.29604891602	1253
1448.93526287928	1250.19995117188
1449.57439400618	1239.80004882813
1450.21344230426	1240.80004882813
1450.85240778105	1241.40002441406
1451.49129044409	1241
1452.13009030092	1246.19995117188
1452.76880735907	1239.40002441406
1453.40744162608	1244.40002441406
1454.04599310949	1233.40002441406
1454.68446181683	1237
1455.32284775564	1240.59997558594
1455.96115093345	1243.40002441406
1456.5993713578	1260.40002441406
1457.23750903623	1241.80004882813
1457.87556397626	1243.40002441406
1458.51353618543	1237.80004882813
1459.15142567127	1236.80004882813
1459.78923244132	1234
1460.42695650311	1234.19995117188
1461.06459786417	1236.40002441406
1461.70215653203	1244.19995117188
1462.33963251423	1235
1462.97702581829	1249.40002441406
1463.61433645175	1248.80004882813
1464.25156442214	1257
1464.88870973699	1253.80004882813
1465.52577240382	1251.59997558594
1466.16275243017	1244.40002441406
1466.79964982356	1241
1467.43646459154	1240
1468.07319674161	1236.19995117188
1468.70984628132	1231.19995117188
1469.34641321818	1233.40002441406
1469.98289755974	1236.19995117188
1470.6192993135	1242.59997558594
1471.25561848701	1244.40002441406
1471.89185508779	1235
1472.52800912336	1233.80004882813
1473.16408060124	1241.40002441406
1473.80006952897	1234.40002441406
1474.43597591407	1244.59997558594
1475.07179976406	1247.40002441406
1475.70754108647	1249.80004882813
1476.34319988883	1244.19995117188
1476.97877617865	1243.19995117188
1477.61426996345	1244.40002441406
1478.24968125077	1241.40002441406
1478.88501004812	1239
1479.52025636303	1234.40002441406
1480.15542020302	1238.40002441406
1480.79050157561	1229.19995117188
1481.42550048832	1227.80004882813
1482.06041694867	1232.59997558594
1482.69525096418	1229.19995117188
1483.33000254237	1230
1483.96467169077	1231.59997558594
1484.59925841689	1229.80004882813
1485.23376272825	1226.19995117188
1485.86818463237	1233.40002441406
1486.50252413677	1236
1487.13678124896	1232.80004882813
1487.77095597646	1226.59997558594
1488.4050483268	1230.40002441406
1489.03905830749	1221
1489.67298592604	1231.40002441406
1490.30683118996	1229.59997558594
1490.9405941068	1241.19995117188
1491.57427468403	1239.59997558594
1492.2078729292	1244.80004882813
1492.84138884981	1246
1493.47482245338	1255
1494.10817374742	1257.19995117188
1494.74144273944	1250.80004882813
1495.37462943696	1252.80004882813
1496.0077338475	1249.80004882813
1496.64075597856	1257.80004882813
1497.27369583765	1238.19995117188
1497.9065534323	1244.59997558594
1498.53932877001	1253.40002441406
1499.17202185829	1259.19995117188
1499.80463270465	1269.80004882813
1500.43716131661	1278.19995117188
1501.06960770167	1288.40002441406
1501.70197186735	1270.59997558594
1502.33425382116	1292.59997558594
1502.96645357059	1284.80004882813
1503.59857112317	1273.19995117188
1504.23060648641	1273.59997558594
1504.8625596678	1285.40002441406
1505.49443067486	1293.19995117188
1506.1262195151	1296.19995117188
1506.75792619602	1294.19995117188
1507.38955072513	1294.80004882813
1508.02109310993	1301.40002441406
1508.65255335794	1294.59997558594
1509.28393147666	1301.80004882813
1509.91522747359	1299.40002441406
1510.54644135624	1301.40002441406
1511.17757313212	1310
1511.80862280872	1304.40002441406
1512.43959039356	1289.19995117188
1513.07047589413	1287
1513.70127931795	1284.80004882813
1514.33200067251	1271.40002441406
1514.96263996531	1267
1515.59319720386	1266.40002441406
1516.22367239567	1258.40002441406
1516.85406554822	1253.59997558594
1517.48437666903	1255.59997558594
1518.1146057656	1245.80004882813
1518.74475284542	1253.59997558594
1519.374817916	1246.40002441406
1520.00480098483	1254.59997558594
1520.63470205942	1242.40002441406
1521.26452114726	1247
1521.89425825586	1255.40002441406
1522.52391339271	1247
1523.15348656531	1248.40002441406
1523.78297778116	1231.40002441406
1524.41238704775	1244.40002441406
1525.04171437259	1245.59997558594
1525.67095976317	1235
1526.30012322699	1234.40002441406
1526.92920477154	1232
1527.55820440432	1243.59997558594
1528.18712213283	1242.40002441406
1528.81595796455	1237.40002441406
1529.44471190699	1231.40002441406
1530.07338396764	1223.80004882813
1530.70197415399	1221.19995117188
1531.33048247353	1220.59997558594
1531.95890893377	1214.19995117188
1532.58725354219	1210
1533.21551630629	1217.19995117188
1533.84369723356	1229.80004882813
1534.47179633148	1225.40002441406
1535.09981360757	1223.40002441406
1535.72774906929	1224.80004882813
1536.35560272415	1217.40002441406
1536.98337457963	1217
1537.61106464323	1210.19995117188
1538.23867292243	1215
1538.86619942473	1212.40002441406
1539.49364415762	1215.19995117188
1540.12100712857	1221.19995117188
1540.74828834509	1220.19995117188
1541.37548781466	1226.40002441406
1542.00260554478	1223.19995117188
1542.62964154291	1219.59997558594
1543.25659581655	1223.40002441406
1543.8834683732	1224
1544.51025922034	1215.40002441406
1545.13696836544	1215.80004882813
1545.76359581601	1220.80004882813
1546.39014157952	1220.59997558594
1547.01660566345	1216.80004882813
1547.64298807531	1232.19995117188
1548.26928882255	1224.40002441406
1548.89550791269	1222.40002441406
1549.52164535318	1209.59997558594
1550.14770115153	1210.80004882813
1550.77367531521	1214.40002441406
1551.39956785171	1228.59997558594
1552.0253787685	1211.19995117188
1552.65110807307	1211.40002441406
1553.2767557729	1209.59997558594
1553.90232187548	1194.40002441406
1554.52780638828	1196.40002441406
1555.15320931879	1195.80004882813
1555.77853067447	1193.80004882813
1556.40377046282	1190.40002441406
1557.02892869132	1179.59997558594
1557.65400536744	1189
1558.27900049866	1184.40002441406
1558.90391409247	1185.19995117188
1559.52874615633	1182
1560.15349669773	1192.19995117188
1560.77816572414	1185.59997558594
1561.40275324305	1198
1562.02725926192	1196
1562.65168378824	1197
1563.27602682948	1203.59997558594
1563.90028839311	1204.40002441406
1564.52446848662	1209.80004882813
1565.14856711748	1210.59997558594
1565.77258429316	1215.40002441406
1566.39652002113	1218.59997558594
1567.02037430887	1213.59997558594
1567.64414716387	1212
1568.26783859357	1197
1568.89144860547	1207.59997558594
1569.51497720703	1211.40002441406
1570.13842440573	1212
1570.76179020904	1212.59997558594
1571.38507462442	1217.19995117188
1572.00827765936	1222.40002441406
1572.63139932132	1218.80004882813
1573.25443961777	1220.80004882813
1573.87739855618	1210.19995117188
1574.50027614402	1213.80004882813
1575.12307238877	1214.80004882813
1575.74578729789	1218.40002441406
1576.36842087885	1222.80004882813
1576.99097313912	1221.80004882813
1577.61344408616	1217
1578.23583372745	1228
1578.85814207046	1237
1579.48036912264	1222.80004882813
1580.10251489147	1220.59997558594
1580.72457938441	1216.40002441406
1581.34656260893	1203.19995117188
1581.9684645725	1203.59997558594
1582.59028528258	1205.80004882813
1583.21202474663	1197
1583.83368297212	1192
1584.45525996652	1197.40002441406
1585.07675573728	1200.40002441406
1585.69817029188	1196.80004882813
1586.31950363778	1203.59997558594
1586.94075578243	1189.40002441406
1587.5619267333	1186.40002441406
1588.18301649786	1185.59997558594
1588.80402508357	1179.40002441406
1589.42495249788	1180.40002441406
1590.04579874826	1186
1590.66656384217	1182.80004882813
1591.28724778707	1182
1591.90785059042	1175
1592.52837225968	1176.19995117188
1593.14881280232	1176.40002441406
1593.76917222578	1169.19995117188
1594.38945053753	1181
1595.00964774502	1177.59997558594
1595.62976385573	1177.40002441406
1596.24979887709	1172
1596.86975281657	1177
1597.48962568164	1186.40002441406
1598.10941747974	1184.59997558594
1598.72912821832	1194.40002441406
1599.34875790486	1183.19995117188
1599.9683065468	1186.40002441406
1600.58777415159	1186.19995117188
1601.2071607267	1185.80004882813
1601.82646627958	1189
1602.44569081769	1182
1603.06483434846	1184.80004882813
1603.68389687937	1184.80004882813
1604.30287841786	1181
1604.92177897139	1178.19995117188
1605.54059854741	1168.59997558594
1606.15933715337	1162.40002441406
1606.77799479672	1159
1607.39657148492	1159.80004882813
1608.01506722542	1164.19995117188
1608.63348202566	1164
1609.2518158931	1166.59997558594
1609.87006883519	1162.40002441406
1610.48824085939	1165.40002441406
1611.10633197312	1157.19995117188
1611.72434218386	1162.80004882813
1612.34227149904	1157.59997558594
1612.96011992612	1162.40002441406
1613.57788747254	1157.19995117188
1614.19557414575	1153.80004882813
1614.8131799532	1160
1615.43070490234	1159.80004882813
1616.04814900061	1149.59997558594
1616.66551225545	1163.80004882813
1617.28279467433	1160.40002441406
1617.89999626467	1159.19995117188
1618.51711703393	1163.40002441406
1619.13415698955	1168.19995117188
1619.75111613898	1174.59997558594
1620.36799448966	1165.59997558594
1620.98479204903	1177.80004882813
1621.60150882455	1171.40002441406
1622.21814482364	1183.59997558594
1622.83470005376	1178.80004882813
1623.45117452235	1185.59997558594
1624.06756823685	1167.40002441406
1624.6838812047	1177.59997558594
1625.30011343335	1176.80004882813
1625.91626493022	1175.19995117188
1626.53233570278	1182
1627.14832575845	1178
1627.76423510468	1164.40002441406
1628.38006374891	1165.19995117188
1628.99581169857	1169
1629.61147896111	1165.19995117188
1630.22706554397	1163
1630.84257145457	1164.40002441406
1631.45799670038	1159.59997558594
1632.07334128881	1167.19995117188
1632.6886052273	1163.80004882813
1633.3037885233	1147.80004882813
1633.91889118425	1145.80004882813
1634.53391321757	1152
1635.1488546307	1159.80004882813
1635.76371543108	1149
1636.37849562616	1133.59997558594
1636.99319522335	1133.19995117188
1637.60781423009	1141.40002441406
1638.22235265383	1141
1638.83681050198	1158
1639.451187782	1153.80004882813
1640.0654845013	1167.40002441406
1640.67970066734	1165.40002441406
1641.29383628752	1169.40002441406
1641.9078913693	1158.19995117188
1642.5218659201	1156.59997558594
1643.13575994735	1159.80004882813
1643.74957345849	1156.19995117188
1644.36330646094	1160.40002441406
1644.97695896213	1162.19995117188
1645.59053096951	1168.19995117188
1646.20402249049	1163.80004882813
1646.8174335325	1167.19995117188
1647.43076410298	1171.40002441406
1648.04401420935	1176.19995117188
1648.65718385905	1173.80004882813
1649.2702730595	1183
1649.88328181812	1189.80004882813
1650.49621014236	1189.40002441406
1651.10905803963	1190.80004882813
1651.72182551735	1186.19995117188
1652.33451258297	1180.19995117188
1652.9471192439	1174.80004882813
1653.55964550757	1182
1654.1720913814	1174.80004882813
1654.78445687283	1161.19995117188
1655.39674198926	1167.40002441406
1656.00894673814	1162.59997558594
1656.62107112688	1162.80004882813
1657.23311516291	1165.59997558594
1657.84507885365	1147.80004882813
1658.45696220652	1148.80004882813
1659.06876522895	1145
1659.68048792835	1142.19995117188
1660.29213031217	1128
1660.90369238779	1127.19995117188
1661.51517416267	1127.80004882813
1662.12657564421	1119.40002441406
1662.73789683984	1115.59997558594
1663.34913775697	1112.40002441406
1663.96029840303	1102.19995117188
1664.57137878544	1103.80004882813
1665.18237891161	1109
1665.79329878897	1119.59997558594
1666.40413842493	1116.40002441406
1667.01489782691	1121.40002441406
1667.62557700233	1116.80004882813
1668.2361759586	1103.59997558594
1668.84669470315	1104
1669.4571332434	1105.59997558594
1670.06749158675	1097.80004882813
1670.67776974062	1102.80004882813
1671.28796771243	1108
1671.8980855096	1098.80004882813
1672.50812313954	1091.40002441406
1673.11808060967	1102.59997558594
1673.72795792739	1101.19995117188
1674.33775510013	1094.19995117188
1674.9474721353	1096
1675.55710904031	1094.19995117188
1676.16666582257	1090.59997558594
1676.7761424895	1094.40002441406
1677.38553904851	1083.40002441406
1677.99485550702	1080.40002441406
1678.60409187243	1088.59997558594
1679.21324815215	1077.59997558594
1679.8223243536	1081.59997558594
1680.43132048419	1078.19995117188
1681.04023655132	1081.80004882813
1681.64907256241	1074.19995117188
1682.25782852487	1081
1682.86650444611	1076.80004882813
1683.47510033353	1072.59997558594
1684.08361619455	1074.19995117188
1684.69205203657	1067
1685.300407867	1076
1685.90868369325	1073.59997558594
1686.51687952272	1074.80004882813
1687.12499536283	1077.80004882813
1687.73303122098	1081
1688.34098710457	1074.19995117188
1688.94886302101	1074.40002441406
1689.55665897772	1058.80004882813
1690.16437498208	1060.19995117188
1690.77201104152	1054.80004882813
1691.37956716342	1058.40002441406
1691.9870433552	1057
1692.59443962426	1053.80004882813
1693.20175597801	1051.80004882813
1693.80899242384	1054
1694.41614896916	1055.59997558594
1695.02322562138	1064.59997558594
1695.63022238789	1065.19995117188
1696.23713927609	1054.19995117188
1696.8439762934	1052.19995117188
1697.4507334472	1054.40002441406
1698.05741074491	1069.40002441406
1698.66400819391	1068.19995117188
1699.27052580161	1064.59997558594
1699.87696357542	1063
1700.48332152272	1073.40002441406
1701.08959965092	1063.19995117188
1701.69579796742	1068.80004882813
1702.30191647962	1059
1702.90795519491	1067.59997558594
1703.51391412069	1059
1704.11979326437	1061.40002441406
1704.72559263332	1056.80004882813
1705.33131223496	1056.80004882813
1705.93695207668	1061.80004882813
1706.54251216588	1054.80004882813
1707.14799250994	1056.40002441406
1707.75339311628	1064.19995117188
1708.35871399227	1060
1708.96395514532	1060
1709.56911658282	1062.40002441406
