634.948122577771	1285.19995117188
635.690341530823	1288.59997558594
636.43246851086	1286.19995117188
637.174503525845	1291.40002441406
637.916446583745	1285.19995117188
638.658297692538	1280.80004882813
639.400056860179	1285.19995117188
640.141724094637	1294.19995117188
640.883299403885	1288.80004882813
641.62478279588	1287.19995117188
642.366174278594	1287.80004882813
643.107473859989	1279
643.848681548029	1285.19995117188
644.589797350679	1275.40002441406
645.330821275901	1279.59997558594
646.071753331665	1296.19995117188
646.812593525922	1299.19995117188
647.553341866646	1291.40002441406
648.293998361798	1293.40002441406
649.03456301933	1287.59997558594
649.775035847216	1282.40002441406
650.515416853409	1274.59997558594
651.255706045874	1285
651.995903432568	1298
652.736009021453	1291.40002441406
653.476022820486	1286.59997558594
654.215944837629	1278.80004882813
654.955775080842	1285.59997558594
655.695513558081	1303.40002441406
656.435160277301	1305.40002441406
657.174715246465	1309.80004882813
657.914178473527	1296.40002441406
658.653549966449	1298
659.392829733176	1307.40002441406
660.132017781678	1295.80004882813
660.871114119901	1303.59997558594
661.610118755803	1290.40002441406
662.349031697343	1301.40002441406
663.087852952468	1307.19995117188
663.826582529139	1307.40002441406
664.565220435305	1297.19995117188
665.30376667892	1290.40002441406
666.04222126794	1282
666.780584210316	1296.19995117188
667.518855514	1298.59997558594
668.25703518694	1291.40002441406
668.995123237096	1297
669.733119672413	1296.59997558594
670.471024500842	1299.59997558594
671.208837730333	1310.80004882813
671.946559368839	1293.19995117188
672.684189424308	1294
673.421727904689	1298
674.159174817929	1295.40002441406
674.896530171977	1302.80004882813
675.633793974786	1307.19995117188
676.370966234295	1308.59997558594
677.108046958461	1311
677.845036155219	1319.19995117188
678.581933832528	1319
679.318739998323	1314.80004882813
680.055454660558	1303.19995117188
680.792077827172	1308
681.528609506116	1312
682.265049705331	1306.80004882813
683.001398432759	1303.80004882813
683.737655696349	1302.19995117188
684.47382150404	1315.19995117188
685.20989586378	1319.80004882813
685.945878783503	1310
686.68177027116	1308.19995117188
687.417570334688	1304.80004882813
688.153278982032	1317
688.888896221129	1300.19995117188
689.624422059921	1288.19995117188
690.359856506349	1296.80004882813
691.095199568354	1297.19995117188
691.830451253874	1306.59997558594
692.565611570844	1313
693.300680527212	1309.80004882813
694.03565813091	1300.40002441406
694.770544389877	1296.19995117188
695.505339312053	1297.59997558594
696.240042905372	1303
696.974655177772	1294.19995117188
697.70917613719	1298.59997558594
698.443605791561	1310.19995117188
699.177944148826	1301.80004882813
699.912191216909	1297.59997558594
700.646347003755	1296.19995117188
701.380411517295	1302.40002441406
702.114384765465	1299.80004882813
702.848266756195	1309.80004882813
703.582057497421	1304.80004882813
704.315756997074	1311.40002441406
705.049365263089	1309.80004882813
705.782882303399	1298.40002441406
706.516308125936	1288.40002441406
707.249642738626	1288.40002441406
707.982886149403	1289.19995117188
708.716038366204	1308
709.449099396949	1300.80004882813
710.182069249577	1306.59997558594
710.914947932009	1312
711.647735452181	1297.80004882813
712.380431818022	1308.19995117188
713.113037037454	1296.80004882813
713.845551118411	1289.80004882813
714.577974068818	1301.80004882813
715.310305896604	1313
716.042546609694	1306.80004882813
716.774696216013	1313
717.506754723493	1314.80004882813
718.238722140053	1304.19995117188
718.970598473624	1317.80004882813
719.702383732127	1316.19995117188
720.43407792349	1319.19995117188
721.165681055634	1320
721.897193136486	1310.19995117188
722.628614173966	1304.40002441406
723.359944175997	1317.40002441406
724.091183150505	1326
724.822331105412	1319
725.553388048638	1318.59997558594
726.284353988106	1319.80004882813
727.015228931734	1324
727.746012887449	1312.40002441406
728.476705863162	1316.40002441406
729.207307866803	1302.40002441406
729.937818906289	1288.80004882813
730.668238989535	1300.19995117188
731.398568124459	1305.19995117188
732.128806318986	1290.19995117188
732.858953581034	1296.59997558594
733.589009918514	1292.19995117188
734.318975339348	1293.80004882813
735.048849851452	1296
735.778633462744	1295.40002441406
736.508326181137	1311.80004882813
737.237928014549	1309.19995117188
737.967438970897	1307.19995117188
738.696859058095	1309.19995117188
739.426188284054	1298.80004882813
740.155426656692	1297
740.884574183922	1307.40002441406
741.613630873659	1319.40002441406
742.342596733815	1316.80004882813
743.071471772302	1305.19995117188
743.800255997034	1309
744.528949415921	1299.80004882813
745.257552036877	1307.80004882813
745.986063867811	1306.59997558594
746.714484916638	1309.80004882813
747.442815191261	1316.80004882813
748.171054699597	1318
748.899203449554	1317.19995117188
749.627261449039	1316
750.355228705966	1317.80004882813
751.083105228239	1307.59997558594
751.810891023765	1307.59997558594
752.538586100459	1320.19995117188
753.266190466218	1321.19995117188
753.99370412896	1312.19995117188
754.721127096582	1314.19995117188
755.448459377	1305.19995117188
756.175700978114	1305.19995117188
756.902851907828	1306.59997558594
757.629912174055	1310.19995117188
758.356881784688	1314.40002441406
759.083760747639	1313
759.810549070817	1316.40002441406
760.537246762113	1317.59997558594
761.263853829442	1313
761.990370280698	1318
762.716796123791	1329.19995117188
763.443131366618	1332.19995117188
764.169376017082	1331.59997558594
764.895530083085	1331.40002441406
765.621593572527	1344.59997558594
766.347566493312	1333.19995117188
767.073448853336	1337
767.799240660502	1349
768.524941922707	1350.40002441406
769.250552647854	1356.59997558594
769.976072843836	1348.19995117188
770.701502518551	1347.40002441406
771.426841679905	1347.59997558594
772.152090335793	1353
772.877248494107	1362.19995117188
773.602316162747	1370.19995117188
774.327293349609	1358.80004882813
775.052180062592	1362.80004882813
775.776976309589	1347.19995117188
776.501682098496	1357.80004882813
777.226297437206	1356.80004882813
777.950822333616	1352
778.675256795621	1350.19995117188
779.399600831111	1340.40002441406
780.123854447983	1345.19995117188
780.84801765413	1345.59997558594
781.572090457441	1331.80004882813
782.296072865811	1323.59997558594
783.019964887131	1334
783.743766529297	1321.59997558594
784.467477800194	1324.19995117188
785.191098707719	1311.59997558594
785.914629259756	1310.80004882813
786.638069464194	1314.59997558594
787.361419328932	1293.40002441406
788.084678861852	1314.19995117188
788.807848070845	1325.80004882813
789.530926963798	1333
790.253915548602	1323.80004882813
790.976813833144	1319.80004882813
791.699621825307	1323.40002441406
792.422339532986	1308.40002441406
793.144966964061	1309.59997558594
793.86750412642	1304.19995117188
794.589951027946	1298
795.312307676536	1312.80004882813
796.03457408006	1310.59997558594
796.756750246417	1301.19995117188
797.478836183477	1314
798.200831899137	1311
798.92273740127	1311
799.644552697769	1313
800.36627779651	1311.19995117188
801.087912705374	1315
801.809457432251	1319.40002441406
802.530911985017	1322.40002441406
803.252276371558	1324
803.973550599748	1319.19995117188
804.694734677472	1307.80004882813
805.415828612611	1317
806.136832413045	1301.80004882813
806.857746086646	1311.80004882813
807.578569641305	1311
808.299303084892	1303
809.019946425289	1308
809.740499670372	1316.40002441406
810.460962828022	1306.19995117188
811.181335906114	1299.80004882813
811.901618912524	1323.80004882813
812.621811855131	1318.19995117188
813.341914741809	1306.19995117188
814.061927580433	1316.59997558594
814.781850378881	1318.40002441406
815.501683145025	1319.59997558594
816.221425886743	1314
816.941078611903	1319.80004882813
817.660641328387	1312.59997558594
818.380114044065	1311
819.099496766808	1328.40002441406
819.818789504492	1316.59997558594
820.53799226499	1309.59997558594
821.257105056168	1315
821.976127885904	1310.59997558594
822.695060762064	1316.59997558594
823.413903692525	1305.80004882813
824.132656685151	1302.80004882813
824.851319747817	1296.19995117188
825.569892888388	1303.19995117188
826.288376114739	1308.59997558594
827.006769434737	1314.80004882813
827.725072856249	1311
828.443286387142	1317.80004882813
829.161410035285	1315.40002441406
829.87944380855	1312
830.597387714798	1309.19995117188
831.315241761898	1315.80004882813
832.033005957715	1310
832.750680310119	1310.80004882813
833.468264826969	1310.80004882813
834.18575951614	1294.59997558594
834.903164385486	1298.80004882813
835.620479442878	1291.80004882813
836.337704696181	1301.40002441406
837.054840153255	1310.40002441406
837.771885821962	1322.59997558594
838.488841710172	1310.40002441406
839.20570782574	1297.19995117188
839.922484176531	1303.40002441406
840.639170770409	1308.19995117188
841.355767615231	1310.19995117188
842.072274718864	1311.40002441406
842.788692089164	1319.19995117188
843.505019733993	1316.40002441406
844.221257661209	1314.80004882813
844.937405878676	1300.59997558594
845.65346439425	1300.19995117188
846.369433215789	1311.59997558594
847.085312351156	1309.40002441406
847.801101808205	1308.19995117188
848.516801594793	1317.40002441406
849.232411718781	1318.80004882813
849.947932188021	1317.19995117188
850.663363010376	1312.80004882813
851.378704193698	1316
852.093955745842	1308
852.809117674669	1305.40002441406
853.524189988028	1298.80004882813
854.239172693778	1300
854.954065799768	1297.40002441406
855.668869313857	1300.80004882813
856.383583243899	1294.59997558594
857.098207597743	1309.19995117188
857.812742383246	1317.19995117188
858.527187608255	1315.19995117188
859.241543280628	1303.40002441406
859.955809408218	1296.80004882813
860.669985998868	1301.80004882813
861.384073060437	1301.80004882813
862.098070600772	1309.40002441406
862.811978627724	1287.80004882813
863.52579714914	1284
864.239526172873	1292.40002441406
864.953165706776	1291
865.666715758687	1294.40002441406
866.380176336464	1293.19995117188
867.093547447951	1287
867.806829100996	1294.40002441406
868.520021303444	1285.59997558594
869.233124063149	1288.40002441406
869.94613738795	1292.59997558594
870.659061285693	1291.59997558594
871.37189576423	1299.40002441406
872.084640831403	1314.40002441406
872.797296495057	1298.80004882813
873.509862763039	1300.40002441406
874.22233964319	1303.80004882813
874.934727143353	1307.19995117188
875.647025271374	1315.80004882813
876.359234035097	1310.80004882813
877.071353442361	1305
877.783383501015	1306
878.495324218895	1292.80004882813
879.207175603844	1300.40002441406
879.918937663705	1298.80004882813
880.630610406318	1295
881.342193839524	1289
882.053687971161	1287.59997558594
882.765092809069	1288.40002441406
883.476408361091	1291.19995117188
884.187634635066	1280.40002441406
884.898771638828	1288
885.609819380221	1286.59997558594
886.320777867076	1300.80004882813
887.031647107236	1299.40002441406
887.742427108536	1294
888.453117878816	1294.59997558594
889.16371942591	1300
889.874231757652	1298.40002441406
890.584654881883	1303.80004882813
891.294988806434	1317.19995117188
892.005233539141	1319.80004882813
892.715389087837	1296.59997558594
893.42545546036	1303.59997558594
894.135432664543	1298.19995117188
894.845320708216	1295.19995117188
895.555119599216	1283.59997558594
896.264829345375	1280.19995117188
896.974449954526	1284.19995117188
897.683981434496	1280.80004882813
898.393423793125	1276.59997558594
899.102777038235	1274.19995117188
899.812041177664	1271.80004882813
900.521216219239	1276.80004882813
901.230302170793	1284.80004882813
901.939299040155	1294.80004882813
902.64820683515	1279.40002441406
903.357025563612	1289.59997558594
904.065755233368	1288.19995117188
904.774395852247	1299.40002441406
905.482947428076	1295.59997558594
906.191409968682	1301.80004882813
906.899783481897	1293
907.608067975538	1288.59997558594
908.316263457443	1296.59997558594
909.02436993543	1289
909.732387417327	1282.59997558594
910.440315910959	1277.19995117188
911.148155424154	1281
911.855905964731	1276
912.563567540521	1271
913.271140159339	1280.59997558594
913.978623829017	1280.40002441406
914.686018557374	1289.40002441406
915.393324352237	1288
916.100541221421	1293
916.807669172752	1299.40002441406
917.514708214054	1305.59997558594
918.221658353142	1305.40002441406
918.928519597843	1302.19995117188
919.635291955976	1297.80004882813
920.341975435358	1296.59997558594
921.048570043813	1302
921.75507578916	1290.40002441406
922.461492679212	1291.40002441406
923.167820721795	1302.80004882813
923.874059924726	1312.59997558594
924.58021029582	1298.19995117188
925.286271842893	1296.80004882813
925.992244573769	1295.59997558594
926.698128496262	1288.59997558594
927.403923618184	1294.40002441406
928.109629947355	1282.59997558594
928.815247491593	1289.80004882813
929.520776258708	1280.59997558594
930.226216256519	1288.59997558594
930.931567492841	1300.59997558594
931.636829975482	1287.19995117188
932.342003712263	1284.19995117188
933.047088710995	1294.19995117188
933.752084979491	1290
934.456992525564	1283
935.161811357024	1287
935.866541481688	1283.80004882813
936.571182907363	1281.40002441406
937.275735641861	1277.19995117188
937.980199692995	1278.80004882813
938.684575068572	1272.40002441406
939.388861776411	1266
940.093059824311	1277.59997558594
940.797169220085	1278.40002441406
941.501189971544	1281.40002441406
942.205122086495	1273.19995117188
942.908965572751	1282.80004882813
943.612720438111	1274
944.316386690391	1283.59997558594
945.019964337391	1287.59997558594
945.723453386924	1277.40002441406
946.426853846795	1271.19995117188
947.130165724808	1277.59997558594
947.83338902877	1264.59997558594
948.536523766488	1264.19995117188
949.239569945764	1272.59997558594
949.942527574402	1278
950.64539666021	1278.80004882813
951.348177210993	1275
952.050869234548	1262
952.753472738683	1268.59997558594
953.455987731199	1277.59997558594
954.158414219898	1277.80004882813
954.860752212587	1272.80004882813
955.563001717061	1268.80004882813
956.265162741124	1278.19995117188
956.967235292576	1270.80004882813
957.669219379224	1270
958.371115008857	1284.80004882813
959.072922189283	1273.19995117188
959.774640928301	1271
960.476271233708	1275.40002441406
961.177813113301	1266.59997558594
961.879266574882	1265
962.580631626248	1266.80004882813
963.281908275194	1270.19995117188
963.98309652952	1284.40002441406
964.684196397022	1279.59997558594
965.3852078855	1286.40002441406
966.086131002745	1286.19995117188
966.786965756555	1289.80004882813
967.487712154726	1302.80004882813
968.188370205055	1300.80004882813
968.888939915331	1292.40002441406
969.589421293352	1286.80004882813
970.289814346909	1274.80004882813
970.990119083801	1264
971.690335511819	1257.40002441406
972.39046363875	1262.19995117188
973.090503472398	1259.19995117188
973.790455020545	1263.80004882813
974.490318290987	1258.19995117188
975.190093291516	1269.40002441406
975.889780029923	1252.80004882813
976.589378513998	1250.40002441406
977.288888751527	1261
977.988310750308	1268.80004882813
978.687644518122	1268.59997558594
979.386890062767	1272
980.086047392025	1272.59997558594
980.785116513689	1264
981.484097435542	1265.59997558594
982.182990165377	1257.40002441406
982.88179471098	1251.80004882813
983.580511080137	1262.19995117188
984.279139280632	1251.40002441406
984.977679320253	1271
985.67613120679	1257.80004882813
986.374494948027	1256.59997558594
987.072770551745	1264.40002441406
987.770958025731	1254
988.469057377772	1257.19995117188
989.167068615649	1247.40002441406
989.864991747145	1254
990.562826780047	1250.19995117188
991.260573722134	1238.19995117188
991.958232581195	1243.59997558594
992.655803365003	1259
993.353286081346	1251
994.050680738006	1248
994.74798734276	1266.40002441406
995.44520590339	1260.40002441406
996.142336427681	1257.19995117188
996.839378923407	1270
997.536333398348	1261.19995117188
998.233199860289	1267
998.929978317004	1266.59997558594
999.626668776274	1265.80004882813
1000.32327124587	1253.59997558594
1001.01978573359	1255
1001.71621224718	1251.40002441406
1002.41255079445	1246.40002441406
1003.10880138315	1253.40002441406
1003.80496402107	1255.40002441406
1004.50103871599	1249
1005.19702547567	1266.19995117188
1005.8929243079	1254.80004882813
1006.58873522045	1267.19995117188
1007.2844582211	1277.80004882813
1007.98009331761	1271.40002441406
1008.67564051776	1279.59997558594
1009.37109982933	1273.40002441406
1010.06647126009	1271.59997558594
1010.7617548178	1276
1011.45695051026	1273.40002441406
1012.15205834522	1271
1012.84707833045	1273.40002441406
1013.54201047373	1268.40002441406
1014.23685478284	1273.80004882813
1014.93161126553	1278.40002441406
1015.62627992959	1268.19995117188
1016.32086078277	1258.19995117188
1017.01535383285	1272.59997558594
1017.70975908761	1267.40002441406
1018.40407655479	1266.59997558594
1019.09830624219	1270
1019.79244815755	1278.40002441406
1020.48650230866	1270.19995117188
1021.18046870328	1261.59997558594
1021.87434734917	1272.80004882813
1022.56813825411	1258
1023.26184142584	1253
1023.95545687216	1259.59997558594
1024.64898460082	1253.40002441406
1025.34242461957	1248.59997558594
1026.0357769362	1239
1026.72904155846	1241.40002441406
1027.42221849412	1247.80004882813
1028.11530775094	1245.40002441406
1028.80830933668	1251.19995117188
1029.50122325911	1233.40002441406
1030.19404952599	1245
1030.88678814508	1261.59997558594
1031.57943912414	1250.40002441406
1032.27200247093	1258.59997558594
1032.96447819323	1253.59997558594
1033.65686629878	1261.19995117188
1034.34916679534	1256.40002441406
1035.04137969068	1255
1035.73350499256	1262.59997558594
1036.42554270874	1259.59997558594
1037.11749284697	1261
1037.80935541501	1256.19995117188
1038.50113042062	1262.59997558594
1039.19281787156	1263.80004882813
1039.88441777559	1262.80004882813
1040.57593014046	1252.40002441406
1041.26735497393	1255.59997558594
1041.95869228376	1257.19995117188
1042.6499420777	1249.40002441406
1043.3411043635	1254.19995117188
1044.03217914893	1247.59997558594
1044.72316644174	1248.59997558594
1045.41406624968	1244.40002441406
1046.1048785805	1241.59997558594
1046.79560344197	1247.19995117188
1047.48624084182	1251.19995117188
1048.17679078783	1238.40002441406
1048.86725328774	1242.19995117188
1049.55762834929	1243
1050.24791598025	1248.19995117188
1050.93811618837	1237.40002441406
1051.62822898139	1240.19995117188
1052.31825436707	1240
1053.00819235315	1230.19995117188
1053.6980429474	1229
1054.38780615755	1233.40002441406
1055.07748199136	1241
1055.76707045658	1237
1056.45657156095	1243.19995117188
1057.14598531222	1258.40002441406
1057.83531171814	1253.19995117188
1058.52455078646	1257.40002441406
1059.21370252494	1261
1059.90276694129	1249.19995117188
1060.5917440433	1237.80004882813
1061.28063383868	1244.19995117188
1061.9694363352	1239.19995117188
1062.65815154059	1244.40002441406
1063.34677946261	1237.19995117188
1064.03532010899	1241.80004882813
1064.72377348748	1246.19995117188
1065.41213960583	1238.40002441406
1066.10041847177	1254.40002441406
1066.78861009306	1257.59997558594
1067.47671447743	1257.59997558594
1068.16473163263	1253
1068.85266156639	1254.59997558594
1069.54050428647	1250.40002441406
1070.2282598006	1240.59997558594
1070.91592811652	1238.80004882813
1071.60350924198	1236.59997558594
1072.29100318471	1235.59997558594
1072.97840995245	1227.80004882813
1073.66572955295	1234.19995117188
1074.35296199394	1231
1075.04010728316	1227.80004882813
1075.72716542836	1225.19995117188
1076.41413643726	1224.40002441406
1077.10102031761	1223.19995117188
1077.78781707715	1224.80004882813
1078.4745267236	1230.59997558594
1079.16114926471	1230.19995117188
1079.84768470822	1246.80004882813
1080.53413306185	1240.40002441406
1081.22049433336	1236.80004882813
1081.90676853046	1243.19995117188
1082.5929556609	1244.59997558594
1083.27905573241	1239.59997558594
1083.96506875272	1234.80004882813
1084.65099472957	1236.40002441406
1085.3368336707	1245.19995117188
1086.02258558383	1246.40002441406
1086.70825047669	1242.80004882813
1087.39382835703	1242.80004882813
1088.07931923257	1237.80004882813
1088.76472311104	1231
1089.45004000018	1241.19995117188
1090.13526990771	1238.80004882813
1090.82041284137	1232.59997558594
1091.50546880889	1224
1092.19043781799	1220.59997558594
1092.87531987642	1217
1093.56011499188	1231.80004882813
1094.24482317212	1232.40002441406
1094.92944442486	1240
1095.61397875783	1235
1096.29842617876	1236.80004882813
1096.98278669537	1238.40002441406
1097.6670603154	1233.19995117188
1098.35124704656	1229.59997558594
1099.03534689659	1233.19995117188
1099.71935987322	1233
1100.40328598416	1237
1101.08712523713	1237.40002441406
1101.77087763988	1231.19995117188
1102.45454320012	1227.80004882813
1103.13812192557	1223.40002441406
1103.82161382396	1222.80004882813
1104.50501890301	1217.40002441406
1105.18833717045	1219.80004882813
1105.87156863399	1214.80004882813
1106.55471330137	1220.40002441406
1107.2377711803	1226.80004882813
1107.9207422785	1218.40002441406
1108.60362660369	1219.40002441406
1109.2864241636	1218.80004882813
1109.96913496594	1216.40002441406
1110.65175901844	1221
1111.33429632882	1212.19995117188
1112.01674690479	1224.59997558594
1112.69911075408	1228.19995117188
1113.38138788439	1223.80004882813
1114.06357830346	1230.40002441406
1114.745682019	1234.80004882813
1115.42769903872	1232
1116.10962937035	1239.59997558594
1116.7914730216	1235.19995117188
1117.47323000018	1237.40002441406
1118.15490031382	1223.40002441406
1118.83648397022	1223.59997558594
1119.51798097712	1229
1120.1993913422	1227.19995117188
1120.88071507321	1243.59997558594
1121.56195217784	1235
1122.24310266381	1238.80004882813
1122.92416653884	1235.40002441406
1123.60514381064	1231
1124.28603448692	1227.19995117188
1124.9668385754	1234.80004882813
1125.64755608378	1235.40002441406
1126.32818701978	1226
1127.00873139111	1236.19995117188
1127.68918920548	1235
1128.3695604706	1227.80004882813
1129.04984519419	1228.59997558594
1129.73004338394	1225.80004882813
1130.41015504758	1224.19995117188
1131.09018019281	1229.59997558594
1131.77011882734	1228.80004882813
1132.44997095888	1241.40002441406
1133.12973659514	1228.80004882813
1133.80941574381	1225.80004882813
1134.48900841263	1221.59997558594
1135.16851460927	1227.59997558594
1135.84793434147	1222.59997558594
1136.52726761692	1217.80004882813
1137.20651444333	1223
1137.8856748284	1226.40002441406
1138.56474877984	1224.40002441406
1139.24373630536	1209
1139.92263741265	1203
1140.60145210943	1210.19995117188
1141.28018040339	1215.59997558594
1141.95882230225	1227.59997558594
1142.6373778137	1232.80004882813
1143.31584694545	1229.80004882813
1143.99422970519	1227.80004882813
1144.67252610064	1218.80004882813
1145.35073613949	1225.19995117188
1146.02885982944	1206.40002441406
1146.7068971782	1210.19995117188
1147.38484819347	1209.19995117188
1148.06271288294	1198
1148.74049125432	1206
1149.41818331531	1207.19995117188
1150.0957890736	1202.59997558594
1150.77330853689	1214.19995117188
1151.45074171289	1213.59997558594
1152.12808860928	1213
1152.80534923378	1209.40002441406
1153.48252359407	1212.80004882813
1154.15961169786	1213.59997558594
1154.83661355283	1202.59997558594
1155.51352916669	1208.19995117188
1156.19035854713	1210.19995117188
1156.86710170185	1199.40002441406
1157.54375863855	1204.19995117188
1158.22032936491	1200.40002441406
1158.89681388863	1203
1159.57321221741	1209.40002441406
1160.24952435894	1203.59997558594
1160.92575032092	1208.80004882813
1161.60189011103	1208.19995117188
1162.27794373697	1215
1162.95391120644	1200.80004882813
1163.62979252712	1220.59997558594
1164.3055877067	1220.40002441406
1164.98129675288	1220.59997558594
1165.65691967336	1234.40002441406
1166.33245647581	1230.40002441406
1167.00790716792	1229.80004882813
1167.6832717574	1234.59997558594
1168.35855025193	1217.19995117188
1169.0337426592	1207.59997558594
1169.70884898689	1217
1170.3838692427	1216.80004882813
1171.05880343431	1218.80004882813
1171.73365156941	1221
1172.40841365569	1229.40002441406
1173.08308970083	1225.40002441406
1173.75767971253	1219.40002441406
1174.43218369847	1236.59997558594
1175.10660166633	1227.19995117188
1175.7809336238	1233.19995117188
1176.45517957857	1230.19995117188
1177.12933953832	1223.19995117188
1177.80341351073	1219.40002441406
1178.47740150349	1223.40002441406
1179.15130352429	1228
1179.8251195808	1213.59997558594
1180.49884968071	1220.59997558594
1181.1724938317	1229.80004882813
1181.84605204145	1226.19995117188
1182.51952431766	1238.59997558594
1183.19291066799	1234.59997558594
1183.86621110013	1242.80004882813
1184.53942562176	1228
1185.21255424057	1237.80004882813
1185.88559696422	1236.19995117188
1186.55855380041	1243.19995117188
1187.2314247568	1234.19995117188
1187.90420984109	1228.19995117188
1188.57690906095	1221.40002441406
1189.24952242405	1225.19995117188
1189.92204993808	1226.80004882813
1190.59449161071	1214.80004882813
1191.26684744962	1217.59997558594
1191.93911746249	1219
1192.61130165699	1218.19995117188
1193.28340004081	1220.40002441406
1193.95541262161	1225
1194.62733940707	1217.80004882813
1195.29918040487	1218.40002441406
1195.97093562269	1217
1196.64260506819	1220.40002441406
1197.31418874905	1219.80004882813
1197.98568667295	1221.80004882813
1198.65709884755	1223.59997558594
1199.32842528053	1223
1199.99966597957	1221
1200.67082095234	1228.19995117188
1201.3418902065	1223.19995117188
1202.01287374974	1219
1202.68377158971	1200.80004882813
1203.3545837341	1201.40002441406
1204.02531019057	1205
1204.6959509668	1216.19995117188
1205.36650607045	1200.59997558594
1206.03697550919	1206.59997558594
1206.70735929069	1209.59997558594
1207.37765742263	1208.19995117188
1208.04786991266	1210
1208.71799676846	1205.59997558594
1209.38803799769	1205.59997558594
1210.05799360803	1197.40002441406
1210.72786360714	1204.40002441406
1211.39764800268	1202
1212.06734680233	1204.59997558594
1212.73696001375	1209.59997558594
1213.4064876446	1206.80004882813
1214.07592970255	1212
1214.74528619526	1207.59997558594
1215.4145571304	1211.19995117188
1216.08374251564	1207.80004882813
1216.75284235863	1203.59997558594
1217.42185666704	1202.59997558594
1218.09078544854	1197.40002441406
1218.75962871078	1194
1219.42838646143	1189.80004882813
1220.09705870816	1191.19995117188
1220.76564545861	1196.19995117188
1221.43414672046	1189.59997558594
1222.10256250136	1188
1222.77089280898	1194
1223.43913765098	1188.80004882813
1224.107297035	1194
1224.77537096873	1194
1225.44335945981	1199.19995117188
1226.1112625159	1208.80004882813
1226.77908014467	1204.40002441406
1227.44681235376	1198
1228.11445915085	1198.40002441406
1228.78202054357	1196.80004882813
1229.44949653961	1189
1230.11688714659	1201
1230.7841923722	1208.40002441406
1231.45141222407	1188.40002441406
1232.11854670988	1200.59997558594
1232.78559583726	1187.40002441406
1233.45255961388	1184.40002441406
1234.1194380474	1190.19995117188
1234.78623114546	1200.40002441406
1235.45293891572	1183.80004882813
1236.11956136583	1186.80004882813
1236.78609850345	1186.40002441406
1237.45255033623	1185.59997558594
1238.11891687182	1179
1238.78519811788	1182
1239.45139408205	1183
1240.11750477198	1177
1240.78353019534	1189.80004882813
1241.44947035976	1184.59997558594
1242.11532527291	1183.59997558594
1242.78109494242	1188.80004882813
1243.44677937595	1189.80004882813
1244.11237858115	1196.80004882813
1244.77789256567	1191.80004882813
1245.44332133715	1191.19995117188
1246.10866490325	1189.59997558594
1246.7739232716	1184.19995117188
1247.43909644987	1182.59997558594
1248.10418444569	1188
1248.76918726671	1190.80004882813
1249.43410492059	1190
1250.09893741496	1178.40002441406
1250.76368475747	1187
1251.42834695576	1197.19995117188
1252.09292401749	1191
1252.75741595029	1188.59997558594
1253.42182276182	1191
1254.08614445971	1192.19995117188
1254.75038105161	1192.59997558594
1255.41453254515	1185.59997558594
1256.07859894799	1193.40002441406
1256.74258026777	1197.40002441406
1257.40647651213	1196.80004882813
1258.0702876887	1196.19995117188
1258.73401380514	1195
1259.39765486908	1196.80004882813
1260.06121088817	1186.19995117188
1260.72468187004	1191
1261.38806782233	1192.19995117188
1262.05136875269	1192.59997558594
1262.71458466875	1197.40002441406
1263.37771557815	1188.80004882813
1264.04076148854	1187.59997558594
1264.70372240753	1192.59997558594
1265.3665983428	1188.80004882813
1266.02938930195	1186.80004882813
1266.69209529263	1179.80004882813
1267.35471632249	1175.59997558594
1268.01725239914	1179.59997558594
1268.67970353024	1179.19995117188
1269.34206972342	1186.80004882813
1270.00435098631	1174.40002441406
1270.66654732655	1172
1271.32865875177	1181.59997558594
1271.9906852696	1179
1272.65262688768	1175.80004882813
1273.31448361365	1182
1273.97625545514	1188.19995117188
1274.63794241978	1191.59997558594
1275.2995445152	1195.19995117188
1275.96106174903	1188.19995117188
1276.62249412892	1196.59997558594
1277.28384166248	1190.59997558594
1277.94510435735	1192.80004882813
1278.60628222116	1185
1279.26737526155	1190.80004882813
1279.92838348613	1197.19995117188
1280.58930690255	1189
1281.25014551842	1190.80004882813
1281.91089934139	1181
1282.57156837907	1180.19995117188
1283.2321526391	1173
1283.89265212911	1167.40002441406
1284.55306685671	1176
1285.21339682955	1170.80004882813
1285.87364205525	1174.59997558594
1286.53380254142	1174.59997558594
1287.19387829571	1167.80004882813
1287.85386932573	1174.40002441406
1288.51377563911	1187.19995117188
1289.17359724348	1183
1289.83333414646	1180.59997558594
1290.49298635567	1178.19995117188
1291.15255387874	1182
1291.8120367233	1183
1292.47143489696	1178.40002441406
1293.13074840736	1190.59997558594
1293.7899772621	1186.19995117188
1294.44912146882	1188.80004882813
1295.10818103513	1182.40002441406
1295.76715596866	1196.19995117188
1296.42604627704	1190.19995117188
1297.08485196787	1186
1297.74357304878	1186.80004882813
1298.4022095274	1181.40002441406
1299.06076141134	1193.40002441406
1299.71922870821	1187.80004882813
1300.37761142565	1192.19995117188
1301.03590957126	1184.19995117188
1301.69412315268	1190.59997558594
1302.3522521775	1185
1303.01029665336	1190.59997558594
1303.66825658787	1182.40002441406
1304.32613198865	1195.40002441406
1304.98392286332	1205
1305.64162921948	1195.40002441406
1306.29925106476	1189.19995117188
1306.95678840677	1197.59997558594
1307.61424125312	1180.80004882813
1308.27160961145	1178.80004882813
1308.92889348934	1182.80004882813
1309.58609289443	1195
1310.24320783432	1192
1310.90023831664	1193.40002441406
1311.55718434898	1193.40002441406
1312.21404593897	1192.40002441406
1312.87082309421	1193.59997558594
1313.52751582233	1190.40002441406
1314.18412413092	1192
1314.84064802761	1185.40002441406
1315.49708752	1192.80004882813
1316.1534426157	1196.59997558594
1316.80971332233	1196.40002441406
1317.46589964749	1196.59997558594
1318.1220015988	1192
1318.77801918386	1181.59997558594
1319.43395241028	1180.59997558594
1320.08980128567	1174.19995117188
1320.74556581764	1186
1321.4012460138	1179
1322.05684188176	1189.40002441406
1322.71235342911	1176.40002441406
1323.36778066347	1181.80004882813
1324.02312359245	1171
1324.67838222365	1173.40002441406
1325.33355656468	1171
1325.98864662314	1172.19995117188
1326.64365240663	1176.19995117188
1327.29857392277	1172.59997558594
1327.95341117915	1166
1328.60816418339	1176
1329.26283294308	1159.40002441406
1329.91741746582	1169.40002441406
1330.57191775923	1175.80004882813
1331.2263338309	1186
1331.88066568843	1178.40002441406
1332.53491333943	1183
1333.1890767915	1188.80004882813
1333.84315605224	1200.59997558594
1334.49715112925	1185.40002441406
1335.15106203013	1184.40002441406
1335.80488876249	1179.59997558594
1336.45863133391	1186.59997558594
1337.112289752	1176
1337.76586402437	1172.59997558594
1338.4193541586	1171.19995117188
1339.0727601623	1176.19995117188
1339.72608204306	1176
1340.37931980849	1176
1341.03247346617	1172.40002441406
1341.68554302372	1182.80004882813
1342.33852848871	1175.59997558594
1342.99142986876	1170.40002441406
1343.64424717145	1177
1344.29698040438	1171.40002441406
1344.94962957515	1185.80004882813
1345.60219469135	1183.80004882813
1346.25467576058	1184
1346.90707279042	1177
1347.55938578848	1182.40002441406
1348.21161476235	1180
1348.86375971962	1173.40002441406
1349.51582066787	1178.40002441406
1350.16779761472	1173
1350.81969056774	1189
1351.47149953453	1180.40002441406
1352.12322452269	1180.59997558594
1352.77486553979	1195
1353.42642259344	1209.59997558594
1354.07789569122	1199.59997558594
1354.72928484072	1203.19995117188
1355.38059004953	1196.19995117188
1356.03181132525	1206
1356.68294867545	1204
1357.33400210773	1200.19995117188
1357.98497162968	1207.40002441406
1358.63585724889	1207.40002441406
1359.28665897294	1214
1359.93737680942	1215.80004882813
1360.58801076591	1226
1361.23856085001	1220.59997558594
1361.88902706929	1225.19995117188
1362.53940943135	1223
1363.18970794377	1222
1363.83992261413	1214.19995117188
1364.49005345003	1222.40002441406
1365.14010045904	1218.80004882813
1365.79006364874	1218.80004882813
1366.43994302673	1208.19995117188
1367.08973860058	1206.19995117188
1367.73945037788	1211.19995117188
1368.38907836621	1201.40002441406
1369.03862257315	1212.19995117188
1369.68808300629	1199.59997558594
1370.3374596732	1197.40002441406
1370.98675258148	1191.40002441406
1371.63596173868	1194.19995117188
1372.28508715241	1190.59997558594
1372.93412883024	1181.19995117188
1373.58308677974	1177.59997558594
1374.2319610085	1182
1374.8807515241	1185.40002441406
1375.52945833412	1183
1376.17808144612	1170.80004882813
1376.82662086771	1174.59997558594
1377.47507660644	1170.59997558594
1378.12344866989	1176.59997558594
1378.77173706565	1168.80004882813
1379.41994180129	1169.40002441406
1380.06806288439	1175.19995117188
1380.71610032252	1172.40002441406
1381.36405412326	1176.40002441406
1382.01192429419	1169.40002441406
1382.65971084287	1168.59997558594
1383.30741377688	1169.40002441406
1383.95503310381	1171.80004882813
1384.60256883121	1172.19995117188
1385.25002096667	1170.59997558594
1385.89738951775	1174
1386.54467449204	1168.40002441406
1387.19187589709	1172
1387.8389937405	1167.80004882813
1388.48602802982	1164.19995117188
1389.13297877262	1171.40002441406
1389.77984597649	1175
1390.42662964899	1171.19995117188
1391.07332979768	1172.19995117188
1391.71994643015	1166.19995117188
1392.36647955395	1168.19995117188
1393.01292917667	1175.19995117188
1393.65929530586	1166.19995117188
1394.3055779491	1163
1394.95177711395	1178.19995117188
1395.59789280799	1169.59997558594
1396.24392503877	1169.80004882813
1396.88987381387	1164.80004882813
1397.53573914086	1158.59997558594
1398.1815210273	1152.40002441406
1398.82721948075	1147
1399.47283450878	1154
1400.11836611897	1146.19995117188
1400.76381431886	1151
1401.40917911603	1135.80004882813
1402.05446051805	1141.19995117188
1402.69965853247	1143.80004882813
1403.34477316686	1135.40002441406
1403.98980442878	1133.40002441406
1404.6347523258	1133.59997558594
1405.27961686548	1124.40002441406
1405.92439805538	1131.59997558594
1406.56909590306	1132.80004882813
1407.21371041608	1137
1407.85824160202	1140.19995117188
1408.50268946841	1153
1409.14705402284	1140.40002441406
1409.79133527285	1146.19995117188
1410.43553322601	1155.40002441406
1411.07964788987	1150
1411.723679272	1145.40002441406
1412.36762737996	1152.59997558594
1413.01149222129	1143.80004882813
1413.65527380357	1153.59997558594
1414.29897213435	1155.80004882813
1414.94258722118	1147
1415.58611907163	1147
1416.22956769325	1145.80004882813
1416.87293309359	1141
1417.51621528021	1139.59997558594
1418.15941426067	1138.40002441406
1418.80253004253	1137.19995117188
1419.44556263333	1143.40002441406
1420.08851204063	1143.80004882813
1420.731378272	1145.40002441406
1421.37416133497	1143.80004882813
1422.0168612371	1145.59997558594
1422.65947798596	1145.80004882813
1423.30201158908	1147.59997558594
1423.94446205403	1152
1424.58682938835	1149.19995117188
1425.2291135996	1157
1425.87131469532	1153.19995117188
1426.51343268308	1146.80004882813
1427.15546757042	1143.80004882813
1427.79741936488	1140
1428.43928807403	1142.80004882813
1429.0810737054	1138
1429.72277626656	1145.19995117188
1430.36439576504	1138.40002441406
1431.00593220841	1150
1431.64738560419	1150.19995117188
1432.28875595995	1146.19995117188
1432.93004328324	1149
1433.57124758159	1151.19995117188
1434.21236886255	1157.59997558594
1434.85340713368	1154.19995117188
1435.49436240252	1160.59997558594
1436.13523467661	1156.59997558594
1436.77602396349	1161.80004882813
1437.41673027073	1157.80004882813
1438.05735360585	1147.80004882813
1438.69789397641	1154.59997558594
1439.33835138994	1151.59997558594
1439.978725854	1148.40002441406
1440.61901737612	1156.40002441406
1441.25922596385	1149.40002441406
1441.89935162473	1152
1442.53939436631	1150.80004882813
1443.17935419612	1146.40002441406
1443.81923112171	1146.59997558594
1444.45902515061	1146.40002441406
1445.09873629038	1144.80004882813
1445.73836454854	1154.80004882813
1446.37790993265	1150.19995117188
1447.01737245024	1150.19995117188
1447.65675210885	1152.80004882813
1448.29604891602	1146.59997558594
1448.93526287928	1151.19995117188
1449.57439400618	1148.59997558594
1450.21344230426	1151.19995117188
1450.85240778105	1161.80004882813
1451.49129044409	1151.40002441406
1452.13009030092	1156
1452.76880735907	1159.59997558594
1453.40744162608	1159.59997558594
1454.04599310949	1148.19995117188
1454.68446181683	1153.80004882813
1455.32284775564	1150
1455.96115093345	1153.19995117188
1456.5993713578	1157
1457.23750903623	1153.40002441406
1457.87556397626	1152.19995117188
1458.51353618543	1145.59997558594
1459.15142567127	1145.80004882813
1459.78923244132	1147.59997558594
1460.42695650311	1139.59997558594
1461.06459786417	1134.40002441406
1461.70215653203	1139.59997558594
1462.33963251423	1143.59997558594
1462.97702581829	1145.40002441406
1463.61433645175	1135.80004882813
1464.25156442214	1134.59997558594
1464.88870973699	1151.80004882813
1465.52577240382	1142.59997558594
1466.16275243017	1143.40002441406
1466.79964982356	1140.59997558594
1467.43646459154	1140.40002441406
1468.07319674161	1135
1468.70984628132	1128.19995117188
1469.34641321818	1130.80004882813
1469.98289755974	1131.40002441406
1470.6192993135	1131.80004882813
1471.25561848701	1132.40002441406
1471.89185508779	1139
1472.52800912336	1137.40002441406
1473.16408060124	1135
1473.80006952897	1144
1474.43597591407	1135
1475.07179976406	1132
1475.70754108647	1136.19995117188
1476.34319988883	1138.80004882813
1476.97877617865	1149.59997558594
1477.61426996345	1148.40002441406
1478.24968125077	1145.80004882813
1478.88501004812	1146.19995117188
1479.52025636303	1153
1480.15542020302	1142.40002441406
1480.79050157561	1142.80004882813
1481.42550048832	1143.80004882813
1482.06041694867	1145
1482.69525096418	1142
1483.33000254237	1137.59997558594
1483.96467169077	1140.19995117188
1484.59925841689	1128.40002441406
1485.23376272825	1135.80004882813
1485.86818463237	1139.40002441406
1486.50252413677	1135
1487.13678124896	1147.80004882813
1487.77095597646	1134.80004882813
1488.4050483268	1131.80004882813
1489.03905830749	1137.19995117188
1489.67298592604	1134.59997558594
1490.30683118996	1133.80004882813
1490.9405941068	1136.19995117188
1491.57427468403	1136.80004882813
1492.2078729292	1132.59997558594
1492.84138884981	1139.59997558594
1493.47482245338	1132.19995117188
1494.10817374742	1137.40002441406
1494.74144273944	1142.40002441406
1495.37462943696	1135
1496.0077338475	1140
1496.64075597856	1147.59997558594
1497.27369583765	1145.19995117188
1497.9065534323	1150.19995117188
1498.53932877001	1142.19995117188
1499.17202185829	1146.40002441406
1499.80463270465	1141
1500.43716131661	1138.59997558594
1501.06960770167	1142.80004882813
1501.70197186735	1141.80004882813
1502.33425382116	1147.19995117188
1502.96645357059	1143.59997558594
1503.59857112317	1131
1504.23060648641	1135.19995117188
1504.8625596678	1143.19995117188
1505.49443067486	1151.80004882813
1506.1262195151	1146.19995117188
1506.75792619602	1156.40002441406
1507.38955072513	1160.80004882813
1508.02109310993	1158.40002441406
1508.65255335794	1156.19995117188
1509.28393147666	1158.19995117188
1509.91522747359	1162
1510.54644135624	1157.40002441406
1511.17757313212	1157.59997558594
1511.80862280872	1160.80004882813
1512.43959039356	1157.40002441406
1513.07047589413	1166.59997558594
1513.70127931795	1156.40002441406
1514.33200067251	1154.80004882813
1514.96263996531	1153
1515.59319720386	1154
1516.22367239567	1145.19995117188
1516.85406554822	1143.80004882813
1517.48437666903	1138.40002441406
1518.1146057656	1134
1518.74475284542	1133.19995117188
1519.374817916	1133.80004882813
1520.00480098483	1137.80004882813
1520.63470205942	1131.59997558594
1521.26452114726	1136.80004882813
1521.89425825586	1136
1522.52391339271	1135.59997558594
1523.15348656531	1132.19995117188
1523.78297778116	1128.40002441406
1524.41238704775	1122.59997558594
1525.04171437259	1120.59997558594
1525.67095976317	1119
1526.30012322699	1112.59997558594
1526.92920477154	1114.59997558594
1527.55820440432	1121.19995117188
1528.18712213283	1111.59997558594
1528.81595796455	1112.40002441406
1529.44471190699	1118.40002441406
1530.07338396764	1117.40002441406
1530.70197415399	1121.19995117188
1531.33048247353	1126.19995117188
1531.95890893377	1126.40002441406
1532.58725354219	1118
1533.21551630629	1126.40002441406
1533.84369723356	1122.59997558594
1534.47179633148	1126.59997558594
1535.09981360757	1123.59997558594
1535.72774906929	1122.40002441406
1536.35560272415	1125.80004882813
1536.98337457963	1132
1537.61106464323	1128.19995117188
1538.23867292243	1127.80004882813
1538.86619942473	1116.19995117188
1539.49364415762	1129.19995117188
1540.12100712857	1121.59997558594
1540.74828834509	1113.80004882813
1541.37548781466	1108.80004882813
1542.00260554478	1122
1542.62964154291	1119
1543.25659581655	1121.19995117188
1543.8834683732	1124.19995117188
1544.51025922034	1131.19995117188
1545.13696836544	1121.40002441406
1545.76359581601	1128.19995117188
1546.39014157952	1119.80004882813
1547.01660566345	1136
1547.64298807531	1134.19995117188
1548.26928882255	1120.19995117188
1548.89550791269	1112
1549.52164535318	1117
1550.14770115153	1113.40002441406
1550.77367531521	1117
1551.39956785171	1108
1552.0253787685	1114.80004882813
1552.65110807307	1111.40002441406
1553.2767557729	1112
1553.90232187548	1118.80004882813
1554.52780638828	1110
1555.15320931879	1115.59997558594
1555.77853067447	1118.40002441406
1556.40377046282	1119
1557.02892869132	1116.40002441406
1557.65400536744	1113
1558.27900049866	1117.80004882813
1558.90391409247	1111.59997558594
1559.52874615633	1116.80004882813
1560.15349669773	1115.19995117188
1560.77816572414	1115.19995117188
1561.40275324305	1114.40002441406
1562.02725926192	1112
1562.65168378824	1107.80004882813
1563.27602682948	1108.80004882813
1563.90028839311	1107.19995117188
1564.52446848662	1116.59997558594
1565.14856711748	1114.19995117188
1565.77258429316	1119
1566.39652002113	1119.80004882813
1567.02037430887	1118.80004882813
1567.64414716387	1119.59997558594
1568.26783859357	1121.40002441406
1568.89144860547	1131
1569.51497720703	1116
1570.13842440573	1122.19995117188
1570.76179020904	1122.19995117188
1571.38507462442	1123
1572.00827765936	1131.59997558594
1572.63139932132	1125.59997558594
1573.25443961777	1124.80004882813
1573.87739855618	1118.40002441406
1574.50027614402	1120.59997558594
1575.12307238877	1112.40002441406
1575.74578729789	1110.40002441406
1576.36842087885	1108.40002441406
1576.99097313912	1106.80004882813
1577.61344408616	1111.40002441406
1578.23583372745	1108.80004882813
1578.85814207046	1111.59997558594
1579.48036912264	1114.40002441406
1580.10251489147	1111.40002441406
1580.72457938441	1111.80004882813
1581.34656260893	1110.40002441406
1581.9684645725	1106
1582.59028528258	1101.19995117188
1583.21202474663	1094.59997558594
1583.83368297212	1094.40002441406
1584.45525996652	1094.19995117188
1585.07675573728	1084.19995117188
1585.69817029188	1089
1586.31950363778	1085
1586.94075578243	1091.19995117188
1587.5619267333	1093.59997558594
1588.18301649786	1087.59997558594
1588.80402508357	1086.40002441406
1589.42495249788	1089.80004882813
1590.04579874826	1092.19995117188
1590.66656384217	1095.80004882813
1591.28724778707	1098.59997558594
1591.90785059042	1093.80004882813
1592.52837225968	1092.59997558594
1593.14881280232	1089.59997558594
1593.76917222578	1092.19995117188
1594.38945053753	1096.80004882813
1595.00964774502	1103.40002441406
1595.62976385573	1092
1596.24979887709	1096.19995117188
1596.86975281657	1104.80004882813
1597.48962568164	1088.80004882813
1598.10941747974	1090.80004882813
1598.72912821832	1087.19995117188
1599.34875790486	1085.59997558594
1599.9683065468	1088.40002441406
1600.58777415159	1094.59997558594
1601.2071607267	1086.19995117188
1601.82646627958	1092.59997558594
1602.44569081769	1085.19995117188
1603.06483434846	1091.59997558594
1603.68389687937	1096.59997558594
1604.30287841786	1089.80004882813
1604.92177897139	1095.19995117188
1605.54059854741	1086.80004882813
1606.15933715337	1081
1606.77799479672	1085.19995117188
1607.39657148492	1082
1608.01506722542	1089.40002441406
1608.63348202566	1084.40002441406
1609.2518158931	1092.59997558594
1609.87006883519	1090.80004882813
1610.48824085939	1092.19995117188
1611.10633197312	1083.59997558594
1611.72434218386	1079.80004882813
1612.34227149904	1088
1612.96011992612	1090.19995117188
1613.57788747254	1085.40002441406
1614.19557414575	1091.40002441406
1614.8131799532	1086.59997558594
1615.43070490234	1083.19995117188
1616.04814900061	1087.19995117188
1616.66551225545	1089.19995117188
1617.28279467433	1086.80004882813
1617.89999626467	1090.80004882813
1618.51711703393	1094.80004882813
1619.13415698955	1093.80004882813
1619.75111613898	1091.80004882813
1620.36799448966	1096
1620.98479204903	1097.59997558594
1621.60150882455	1094
1622.21814482364	1099.80004882813
1622.83470005376	1093.40002441406
1623.45117452235	1096.40002441406
1624.06756823685	1097
1624.6838812047	1102.19995117188
1625.30011343335	1097.40002441406
1625.91626493022	1091.40002441406
1626.53233570278	1098.19995117188
1627.14832575845	1100.19995117188
1627.76423510468	1096.40002441406
1628.38006374891	1089.59997558594
1628.99581169857	1082.19995117188
1629.61147896111	1088.59997558594
1630.22706554397	1078.19995117188
1630.84257145457	1092.40002441406
1631.45799670038	1084.59997558594
1632.07334128881	1080.40002441406
1632.6886052273	1085
1633.3037885233	1081.40002441406
1633.91889118425	1073
1634.53391321757	1072.59997558594
1635.1488546307	1077.40002441406
1635.76371543108	1074.59997558594
1636.37849562616	1075.19995117188
1636.99319522335	1080.59997558594
1637.60781423009	1067.59997558594
1638.22235265383	1065.59997558594
1638.83681050198	1067.40002441406
1639.451187782	1071.59997558594
1640.0654845013	1076.80004882813
1640.67970066734	1079.40002441406
1641.29383628752	1084.19995117188
1641.9078913693	1086
1642.5218659201	1086
1643.13575994735	1084.40002441406
1643.74957345849	1092.19995117188
1644.36330646094	1085.40002441406
1644.97695896213	1089.59997558594
1645.59053096951	1084.59997558594
1646.20402249049	1094.40002441406
1646.8174335325	1091.19995117188
1647.43076410298	1091.19995117188
1648.04401420935	1089.80004882813
1648.65718385905	1094.80004882813
1649.2702730595	1092.19995117188
1649.88328181812	1093.59997558594
1650.49621014236	1092.19995117188
1651.10905803963	1094.59997558594
1651.72182551735	1090.59997558594
1652.33451258297	1084.19995117188
1652.9471192439	1081.80004882813
1653.55964550757	1080.19995117188
1654.1720913814	1072
1654.78445687283	1074
1655.39674198926	1067.19995117188
1656.00894673814	1078.80004882813
1656.62107112688	1074.19995117188
1657.23311516291	1074.80004882813
1657.84507885365	1068
1658.45696220652	1057.59997558594
1659.06876522895	1066.59997558594
1659.68048792835	1070.59997558594
1660.29213031217	1060.80004882813
1660.90369238779	1064.80004882813
1661.51517416267	1057.59997558594
1662.12657564421	1061
1662.73789683984	1062.80004882813
1663.34913775697	1053.40002441406
1663.96029840303	1056.19995117188
1664.57137878544	1054.19995117188
1665.18237891161	1048.19995117188
1665.79329878897	1046.80004882813
1666.40413842493	1055.19995117188
1667.01489782691	1046.40002441406
1667.62557700233	1050.40002441406
1668.2361759586	1046.40002441406
1668.84669470315	1041.19995117188
1669.4571332434	1049.80004882813
1670.06749158675	1044.59997558594
1670.67776974062	1044.19995117188
1671.28796771243	1052.40002441406
1671.8980855096	1049.80004882813
1672.50812313954	1045.40002441406
1673.11808060967	1045
1673.72795792739	1043.59997558594
1674.33775510013	1041
1674.9474721353	1044.80004882813
1675.55710904031	1044
1676.16666582257	1036.59997558594
1676.7761424895	1041
1677.38553904851	1033.80004882813
1677.99485550702	1037.80004882813
1678.60409187243	1040.59997558594
1679.21324815215	1030.80004882813
1679.8223243536	1032.40002441406
1680.43132048419	1032.59997558594
1681.04023655132	1033.80004882813
1681.64907256241	1032.40002441406
1682.25782852487	1034.19995117188
1682.86650444611	1038
1683.47510033353	1037.59997558594
1684.08361619455	1031
1684.69205203657	1035.40002441406
1685.300407867	1035.80004882813
1685.90868369325	1037.19995117188
1686.51687952272	1039.59997558594
1687.12499536283	1038.59997558594
1687.73303122098	1028.40002441406
1688.34098710457	1033.40002441406
1688.94886302101	1028.19995117188
1689.55665897772	1027.80004882813
1690.16437498208	1026.59997558594
1690.77201104152	1030.80004882813
1691.37956716342	1028.80004882813
1691.9870433552	1029
1692.59443962426	1029.40002441406
1693.20175597801	1018.79998779297
1693.80899242384	1021.40002441406
1694.41614896916	1019
1695.02322562138	1014.40002441406
1695.63022238789	1022.79998779297
1696.23713927609	1019.40002441406
1696.8439762934	1014
1697.4507334472	1022.79998779297
1698.05741074491	1026.19995117188
1698.66400819391	1022.40002441406
1699.27052580161	1024.80004882813
1699.87696357542	1024.40002441406
1700.48332152272	1016
1701.08959965092	1021.59997558594
1701.69579796742	1015.59997558594
1702.30191647962	1015
1702.90795519491	1011.79998779297
1703.51391412069	1011.20001220703
1704.11979326437	1011.40002441406
1704.72559263332	1008.79998779297
1705.33131223496	1013.40002441406
1705.93695207668	1011.59997558594
1706.54251216588	1015.40002441406
1707.14799250994	1021.20001220703
1707.75339311628	1024.19995117188
1708.35871399227	1012
1708.96395514532	1015.40002441406
1709.56911658282	1014.59997558594
