634.948122577771	1151.40002441406
635.690341530823	1149.19995117188
636.43246851086	1158.40002441406
637.174503525845	1155.59997558594
637.916446583745	1149.19995117188
638.658297692538	1148
639.400056860179	1150
640.141724094637	1155.40002441406
640.883299403885	1156.80004882813
641.62478279588	1152.40002441406
642.366174278594	1154.19995117188
643.107473859989	1144.59997558594
643.848681548029	1147.19995117188
644.589797350679	1148.19995117188
645.330821275901	1146.19995117188
646.071753331665	1150.19995117188
646.812593525922	1145.40002441406
647.553341866646	1153.80004882813
648.293998361798	1151.80004882813
649.03456301933	1150
649.775035847216	1145.40002441406
650.515416853409	1155.40002441406
651.255706045874	1143
651.995903432568	1144
652.736009021453	1148
653.476022820486	1144
654.215944837629	1140.40002441406
654.955775080842	1145.80004882813
655.695513558081	1150.40002441406
656.435160277301	1153
657.174715246465	1151.19995117188
657.914178473527	1143.80004882813
658.653549966449	1155
659.392829733176	1153.19995117188
660.132017781678	1166.19995117188
660.871114119901	1162.80004882813
661.610118755803	1161.19995117188
662.349031697343	1161.59997558594
663.087852952468	1168.80004882813
663.826582529139	1169.19995117188
664.565220435305	1173
665.30376667892	1168
666.04222126794	1160
666.780584210316	1161
667.518855514	1149.80004882813
668.25703518694	1155.80004882813
668.995123237096	1156.59997558594
669.733119672413	1157.19995117188
670.471024500842	1158.59997558594
671.208837730333	1166.40002441406
671.946559368839	1160.19995117188
672.684189424308	1165.19995117188
673.421727904689	1165.59997558594
674.159174817929	1165.59997558594
674.896530171977	1155.59997558594
675.633793974786	1157.59997558594
676.370966234295	1163.59997558594
677.108046958461	1167.59997558594
677.845036155219	1171.80004882813
678.581933832528	1177.19995117188
679.318739998323	1170.19995117188
680.055454660558	1164
680.792077827172	1167.59997558594
681.528609506116	1173.59997558594
682.265049705331	1154.59997558594
683.001398432759	1157.19995117188
683.737655696349	1146.19995117188
684.47382150404	1155.40002441406
685.20989586378	1163.59997558594
685.945878783503	1161.40002441406
686.68177027116	1164.19995117188
687.417570334688	1157.19995117188
688.153278982032	1156.40002441406
688.888896221129	1155
689.624422059921	1155.80004882813
690.359856506349	1145.59997558594
691.095199568354	1148
691.830451253874	1155
692.565611570844	1145.40002441406
693.300680527212	1160.40002441406
694.03565813091	1157
694.770544389877	1161.19995117188
695.505339312053	1167.40002441406
696.240042905372	1165.80004882813
696.974655177772	1173.59997558594
697.70917613719	1162
698.443605791561	1157.19995117188
699.177944148826	1164.80004882813
699.912191216909	1162.40002441406
700.646347003755	1154.40002441406
701.380411517295	1180.19995117188
702.114384765465	1169.19995117188
702.848266756195	1170.19995117188
703.582057497421	1167.80004882813
704.315756997074	1161
705.049365263089	1175.19995117188
705.782882303399	1165
706.516308125936	1164
707.249642738626	1155.40002441406
707.982886149403	1159.19995117188
708.716038366204	1165.19995117188
709.449099396949	1164.59997558594
710.182069249577	1158
710.914947932009	1166.40002441406
711.647735452181	1167.40002441406
712.380431818022	1163.40002441406
713.113037037454	1161.59997558594
713.845551118411	1157.59997558594
714.577974068818	1172
715.310305896604	1170.59997558594
716.042546609694	1157.80004882813
716.774696216013	1163
717.506754723493	1176.40002441406
718.238722140053	1162.40002441406
718.970598473624	1161.80004882813
719.702383732127	1170.59997558594
720.43407792349	1161.59997558594
721.165681055634	1165.19995117188
721.897193136486	1162.19995117188
722.628614173966	1168.40002441406
723.359944175997	1174.40002441406
724.091183150505	1174.19995117188
724.822331105412	1174
725.553388048638	1173.19995117188
726.284353988106	1177.19995117188
727.015228931734	1170.19995117188
727.746012887449	1173.40002441406
728.476705863162	1171
729.207307866803	1165.80004882813
729.937818906289	1166.19995117188
730.668238989535	1151.59997558594
731.398568124459	1169.80004882813
732.128806318986	1151.59997558594
732.858953581034	1170.59997558594
733.589009918514	1155.59997558594
734.318975339348	1165.19995117188
735.048849851452	1157.80004882813
735.778633462744	1158.40002441406
736.508326181137	1157.80004882813
737.237928014549	1161
737.967438970897	1166.40002441406
738.696859058095	1165.19995117188
739.426188284054	1161.80004882813
740.155426656692	1151
740.884574183922	1160.59997558594
741.613630873659	1162.80004882813
742.342596733815	1164.80004882813
743.071471772302	1168.59997558594
743.800255997034	1161.80004882813
744.528949415921	1166.19995117188
745.257552036877	1167.40002441406
745.986063867811	1160.80004882813
746.714484916638	1164.80004882813
747.442815191261	1165.59997558594
748.171054699597	1167
748.899203449554	1173.19995117188
749.627261449039	1173.19995117188
750.355228705966	1162
751.083105228239	1167.19995117188
751.810891023765	1164.59997558594
752.538586100459	1167.80004882813
753.266190466218	1167.80004882813
753.99370412896	1177
754.721127096582	1170
755.448459377	1171.19995117188
756.175700978114	1166.59997558594
756.902851907828	1162.19995117188
757.629912174055	1164
758.356881784688	1168.19995117188
759.083760747639	1165.40002441406
759.810549070817	1174.19995117188
760.537246762113	1185
761.263853829442	1172.80004882813
761.990370280698	1172
762.716796123791	1171.80004882813
763.443131366618	1180.59997558594
764.169376017082	1179.40002441406
764.895530083085	1174.40002441406
765.621593572527	1190
766.347566493312	1183.19995117188
767.073448853336	1186.19995117188
767.799240660502	1188.19995117188
768.524941922707	1193.40002441406
769.250552647854	1196.59997558594
769.976072843836	1201
770.701502518551	1195.40002441406
771.426841679905	1200.59997558594
772.152090335793	1205.59997558594
772.877248494107	1210.80004882813
773.602316162747	1206.19995117188
774.327293349609	1215.80004882813
775.052180062592	1211.19995117188
775.776976309589	1215.59997558594
776.501682098496	1202.40002441406
777.226297437206	1202.80004882813
777.950822333616	1208.19995117188
778.675256795621	1204.80004882813
779.399600831111	1191.80004882813
780.123854447983	1197.19995117188
780.84801765413	1186.80004882813
781.572090457441	1185.19995117188
782.296072865811	1177.80004882813
783.019964887131	1196
783.743766529297	1187.19995117188
784.467477800194	1179.59997558594
785.191098707719	1177.19995117188
785.914629259756	1177.19995117188
786.638069464194	1175
787.361419328932	1169
788.084678861852	1179.19995117188
788.807848070845	1175.19995117188
789.530926963798	1176.59997558594
790.253915548602	1179.40002441406
790.976813833144	1173.19995117188
791.699621825307	1166.19995117188
792.422339532986	1165.40002441406
793.144966964061	1167.40002441406
793.86750412642	1155.80004882813
794.589951027946	1162.19995117188
795.312307676536	1156.59997558594
796.03457408006	1164.80004882813
796.756750246417	1158.19995117188
797.478836183477	1164.40002441406
798.200831899137	1160
798.92273740127	1165
799.644552697769	1164.80004882813
800.36627779651	1173.80004882813
801.087912705374	1167
801.809457432251	1162
802.530911985017	1175.59997558594
803.252276371558	1169.19995117188
803.973550599748	1172.59997558594
804.694734677472	1166.19995117188
805.415828612611	1176.40002441406
806.136832413045	1177.80004882813
806.857746086646	1182.19995117188
807.578569641305	1175
808.299303084892	1171.40002441406
809.019946425289	1169.80004882813
809.740499670372	1170
810.460962828022	1176
811.181335906114	1160.19995117188
811.901618912524	1167.80004882813
812.621811855131	1173
813.341914741809	1162.19995117188
814.061927580433	1168
814.781850378881	1169
815.501683145025	1167.40002441406
816.221425886743	1170.19995117188
816.941078611903	1177
817.660641328387	1167.59997558594
818.380114044065	1174
819.099496766808	1182.19995117188
819.818789504492	1178.19995117188
820.53799226499	1173.59997558594
821.257105056168	1174.19995117188
821.976127885904	1175.80004882813
822.695060762064	1168.19995117188
823.413903692525	1169.80004882813
824.132656685151	1167
824.851319747817	1154.40002441406
825.569892888388	1160
826.288376114739	1161.40002441406
827.006769434737	1165.59997558594
827.725072856249	1173.80004882813
828.443286387142	1177.80004882813
829.161410035285	1190
829.87944380855	1176.40002441406
830.597387714798	1181.40002441406
831.315241761898	1173
832.033005957715	1166.80004882813
832.750680310119	1165.80004882813
833.468264826969	1164.59997558594
834.18575951614	1162.19995117188
834.903164385486	1166.40002441406
835.620479442878	1156.19995117188
836.337704696181	1165.80004882813
837.054840153255	1159.59997558594
837.771885821962	1166.80004882813
838.488841710172	1160.19995117188
839.20570782574	1169.40002441406
839.922484176531	1159
840.639170770409	1168
841.355767615231	1163.40002441406
842.072274718864	1170.80004882813
842.788692089164	1168.80004882813
843.505019733993	1170.40002441406
844.221257661209	1162.80004882813
844.937405878676	1163.80004882813
845.65346439425	1164
846.369433215789	1161.59997558594
847.085312351156	1162.19995117188
847.801101808205	1175.19995117188
848.516801594793	1178.40002441406
849.232411718781	1173
849.947932188021	1168.40002441406
850.663363010376	1175
851.378704193698	1166.19995117188
852.093955745842	1163.19995117188
852.809117674669	1167.40002441406
853.524189988028	1183.80004882813
854.239172693778	1168.80004882813
854.954065799768	1162.59997558594
855.668869313857	1160.80004882813
856.383583243899	1162.19995117188
857.098207597743	1161.59997558594
857.812742383246	1165.40002441406
858.527187608255	1164.80004882813
859.241543280628	1171.80004882813
859.955809408218	1162.19995117188
860.669985998868	1159.59997558594
861.384073060437	1166
862.098070600772	1169.19995117188
862.811978627724	1161.40002441406
863.52579714914	1160.19995117188
864.239526172873	1154.40002441406
864.953165706776	1161.59997558594
865.666715758687	1157.19995117188
866.380176336464	1154.19995117188
867.093547447951	1155.59997558594
867.806829100996	1158
868.520021303444	1150
869.233124063149	1152.59997558594
869.94613738795	1148.40002441406
870.659061285693	1156.59997558594
871.37189576423	1155.80004882813
872.084640831403	1161.59997558594
872.797296495057	1169.40002441406
873.509862763039	1168.19995117188
874.22233964319	1178.59997558594
874.934727143353	1174.40002441406
875.647025271374	1176.40002441406
876.359234035097	1173.59997558594
877.071353442361	1168.40002441406
877.783383501015	1164
878.495324218895	1159
879.207175603844	1164.40002441406
879.918937663705	1157.80004882813
880.630610406318	1155.19995117188
881.342193839524	1155.40002441406
882.053687971161	1150.40002441406
882.765092809069	1151.59997558594
883.476408361091	1160.59997558594
884.187634635066	1155.40002441406
884.898771638828	1153.80004882813
885.609819380221	1152.40002441406
886.320777867076	1157.80004882813
887.031647107236	1164.80004882813
887.742427108536	1147.19995117188
888.453117878816	1163.40002441406
889.16371942591	1161.40002441406
889.874231757652	1166.40002441406
890.584654881883	1160.80004882813
891.294988806434	1170.80004882813
892.005233539141	1167.80004882813
892.715389087837	1175
893.42545546036	1173.40002441406
894.135432664543	1176.40002441406
894.845320708216	1165.19995117188
895.555119599216	1161.80004882813
896.264829345375	1159.59997558594
896.974449954526	1160
897.683981434496	1154
898.393423793125	1156.80004882813
899.102777038235	1152.80004882813
899.812041177664	1156.59997558594
900.521216219239	1146.40002441406
901.230302170793	1150.59997558594
901.939299040155	1154
902.64820683515	1160
903.357025563612	1156.59997558594
904.065755233368	1158.40002441406
904.774395852247	1161
905.482947428076	1163.59997558594
906.191409968682	1165.59997558594
906.899783481897	1174.40002441406
907.608067975538	1163.80004882813
908.316263457443	1170.19995117188
909.02436993543	1162.19995117188
909.732387417327	1153
910.440315910959	1163.59997558594
911.148155424154	1161.19995117188
911.855905964731	1157
912.563567540521	1160.59997558594
913.271140159339	1148.80004882813
913.978623829017	1164.40002441406
914.686018557374	1171.59997558594
915.393324352237	1169.59997558594
916.100541221421	1173.19995117188
916.807669172752	1170.40002441406
917.514708214054	1174.40002441406
918.221658353142	1168.59997558594
918.928519597843	1167
919.635291955976	1175.80004882813
920.341975435358	1174
921.048570043813	1169.19995117188
921.75507578916	1167.59997558594
922.461492679212	1168.59997558594
923.167820721795	1170.40002441406
923.874059924726	1166
924.58021029582	1165
925.286271842893	1169.19995117188
925.992244573769	1167.59997558594
926.698128496262	1171.19995117188
927.403923618184	1160.19995117188
928.109629947355	1165
928.815247491593	1156.40002441406
929.520776258708	1163.19995117188
930.226216256519	1154.59997558594
930.931567492841	1150.19995117188
931.636829975482	1155.59997558594
932.342003712263	1160
933.047088710995	1148.19995117188
933.752084979491	1149
934.456992525564	1169
935.161811357024	1163.59997558594
935.866541481688	1164.59997558594
936.571182907363	1168.80004882813
937.275735641861	1158.19995117188
937.980199692995	1141.40002441406
938.684575068572	1148.59997558594
939.388861776411	1149.40002441406
940.093059824311	1140
940.797169220085	1146
941.501189971544	1145
942.205122086495	1146.19995117188
942.908965572751	1157.80004882813
943.612720438111	1150.80004882813
944.316386690391	1157.59997558594
945.019964337391	1153.19995117188
945.723453386924	1156
946.426853846795	1154.19995117188
947.130165724808	1157.59997558594
947.83338902877	1154
948.536523766488	1153.59997558594
949.239569945764	1157.19995117188
949.942527574402	1153.40002441406
950.64539666021	1147.40002441406
951.348177210993	1147.40002441406
952.050869234548	1148
952.753472738683	1153.59997558594
953.455987731199	1150
954.158414219898	1149.80004882813
954.860752212587	1152
955.563001717061	1166.40002441406
956.265162741124	1160.19995117188
956.967235292576	1154.40002441406
957.669219379224	1152.59997558594
958.371115008857	1150.80004882813
959.072922189283	1152.40002441406
959.774640928301	1149.40002441406
960.476271233708	1145
961.177813113301	1145.59997558594
961.879266574882	1147.59997558594
962.580631626248	1152.40002441406
963.281908275194	1149.19995117188
963.98309652952	1159.80004882813
964.684196397022	1159.19995117188
965.3852078855	1157.80004882813
966.086131002745	1154
966.786965756555	1159.80004882813
967.487712154726	1163.80004882813
968.188370205055	1163.80004882813
968.888939915331	1156.19995117188
969.589421293352	1158
970.289814346909	1150.40002441406
970.990119083801	1149.19995117188
971.690335511819	1134
972.39046363875	1144.59997558594
973.090503472398	1145.40002441406
973.790455020545	1148.59997558594
974.490318290987	1157.40002441406
975.190093291516	1144.40002441406
975.889780029923	1137
976.589378513998	1147
977.288888751527	1144.59997558594
977.988310750308	1147.80004882813
978.687644518122	1147.40002441406
979.386890062767	1153.19995117188
980.086047392025	1147.80004882813
980.785116513689	1141.19995117188
981.484097435542	1141.80004882813
982.182990165377	1145.80004882813
982.88179471098	1150.40002441406
983.580511080137	1148
984.279139280632	1145.40002441406
984.977679320253	1142.19995117188
985.67613120679	1137.59997558594
986.374494948027	1139.80004882813
987.072770551745	1136.80004882813
987.770958025731	1128.59997558594
988.469057377772	1130.19995117188
989.167068615649	1136.19995117188
989.864991747145	1139.40002441406
990.562826780047	1135.80004882813
991.260573722134	1141.80004882813
991.958232581195	1135.40002441406
992.655803365003	1131.80004882813
993.353286081346	1131.19995117188
994.050680738006	1142.19995117188
994.74798734276	1144.40002441406
995.44520590339	1145.59997558594
996.142336427681	1139
996.839378923407	1143
997.536333398348	1140.80004882813
998.233199860289	1144.40002441406
998.929978317004	1140.80004882813
999.626668776274	1146.40002441406
1000.32327124587	1142.40002441406
1001.01978573359	1138.19995117188
1001.71621224718	1142
1002.41255079445	1137.80004882813
1003.10880138315	1145.80004882813
1003.80496402107	1140.40002441406
1004.50103871599	1144.40002441406
1005.19702547567	1151.40002441406
1005.8929243079	1136.19995117188
1006.58873522045	1138.59997558594
1007.2844582211	1156.40002441406
1007.98009331761	1149.19995117188
1008.67564051776	1161.40002441406
1009.37109982933	1154
1010.06647126009	1157.59997558594
1010.7617548178	1158.80004882813
1011.45695051026	1158.19995117188
1012.15205834522	1152.40002441406
1012.84707833045	1153.59997558594
1013.54201047373	1145
1014.23685478284	1155.19995117188
1014.93161126553	1151.40002441406
1015.62627992959	1151.40002441406
1016.32086078277	1143.80004882813
1017.01535383285	1143.40002441406
1017.70975908761	1147.19995117188
1018.40407655479	1148.40002441406
1019.09830624219	1139
1019.79244815755	1142.80004882813
1020.48650230866	1146.59997558594
1021.18046870328	1141
1021.87434734917	1150.80004882813
1022.56813825411	1143
1023.26184142584	1136.59997558594
1023.95545687216	1140.19995117188
1024.64898460082	1140
1025.34242461957	1133.80004882813
1026.0357769362	1133
1026.72904155846	1139
1027.42221849412	1139.19995117188
1028.11530775094	1133.59997558594
1028.80830933668	1131.19995117188
1029.50122325911	1133.40002441406
1030.19404952599	1140.40002441406
1030.88678814508	1139.80004882813
1031.57943912414	1141
1032.27200247093	1141.40002441406
1032.96447819323	1131.80004882813
1033.65686629878	1132.59997558594
1034.34916679534	1140.19995117188
1035.04137969068	1139.19995117188
1035.73350499256	1142
1036.42554270874	1140.19995117188
1037.11749284697	1143.59997558594
1037.80935541501	1141
1038.50113042062	1148.59997558594
1039.19281787156	1142
1039.88441777559	1135.19995117188
1040.57593014046	1130.19995117188
1041.26735497393	1138.40002441406
1041.95869228376	1132.19995117188
1042.6499420777	1138.40002441406
1043.3411043635	1131.80004882813
1044.03217914893	1126.59997558594
1044.72316644174	1129.59997558594
1045.41406624968	1141
1046.1048785805	1133.59997558594
1046.79560344197	1129
1047.48624084182	1127.40002441406
1048.17679078783	1130.40002441406
1048.86725328774	1131.19995117188
1049.55762834929	1138.80004882813
1050.24791598025	1137.19995117188
1050.93811618837	1138.40002441406
1051.62822898139	1128.19995117188
1052.31825436707	1131.19995117188
1053.00819235315	1122.80004882813
1053.6980429474	1124.59997558594
1054.38780615755	1120.59997558594
1055.07748199136	1118.19995117188
1055.76707045658	1125
1056.45657156095	1126.80004882813
1057.14598531222	1130.80004882813
1057.83531171814	1131.19995117188
1058.52455078646	1135.80004882813
1059.21370252494	1133.19995117188
1059.90276694129	1132
1060.5917440433	1127.40002441406
1061.28063383868	1129.40002441406
1061.9694363352	1135.19995117188
1062.65815154059	1127.40002441406
1063.34677946261	1123.80004882813
1064.03532010899	1130.40002441406
1064.72377348748	1128
1065.41213960583	1131
1066.10041847177	1138.59997558594
1066.78861009306	1138.80004882813
1067.47671447743	1144.80004882813
1068.16473163263	1144.19995117188
1068.85266156639	1145
1069.54050428647	1137.40002441406
1070.2282598006	1139
1070.91592811652	1137.59997558594
1071.60350924198	1133.80004882813
1072.29100318471	1122.80004882813
1072.97840995245	1125.59997558594
1073.66572955295	1127.59997558594
1074.35296199394	1120
1075.04010728316	1124.80004882813
1075.72716542836	1126
1076.41413643726	1121.59997558594
1077.10102031761	1122.19995117188
1077.78781707715	1115.40002441406
1078.4745267236	1116.80004882813
1079.16114926471	1129.59997558594
1079.84768470822	1123
1080.53413306185	1127.40002441406
1081.22049433336	1131
1081.90676853046	1124.80004882813
1082.5929556609	1126.59997558594
1083.27905573241	1131
1083.96506875272	1132.59997558594
1084.65099472957	1137.80004882813
1085.3368336707	1132
1086.02258558383	1140.19995117188
1086.70825047669	1139.19995117188
1087.39382835703	1133.59997558594
1088.07931923257	1124.80004882813
1088.76472311104	1135.40002441406
1089.45004000018	1125.80004882813
1090.13526990771	1125.19995117188
1090.82041284137	1125.59997558594
1091.50546880889	1123.40002441406
1092.19043781799	1117.19995117188
1092.87531987642	1115.80004882813
1093.56011499188	1117.80004882813
1094.24482317212	1120.19995117188
1094.92944442486	1115
1095.61397875783	1124.80004882813
1096.29842617876	1131.80004882813
1096.98278669537	1129.59997558594
1097.6670603154	1130.40002441406
1098.35124704656	1135.40002441406
1099.03534689659	1128.40002441406
1099.71935987322	1134
1100.40328598416	1130.80004882813
1101.08712523713	1122.80004882813
1101.77087763988	1120
1102.45454320012	1123.80004882813
1103.13812192557	1125.19995117188
1103.82161382396	1114
1104.50501890301	1121.59997558594
1105.18833717045	1121.59997558594
1105.87156863399	1117.40002441406
1106.55471330137	1119.40002441406
1107.2377711803	1125.59997558594
1107.9207422785	1123
1108.60362660369	1123.40002441406
1109.2864241636	1114.59997558594
1109.96913496594	1115
1110.65175901844	1115.40002441406
1111.33429632882	1117.40002441406
1112.01674690479	1109.19995117188
1112.69911075408	1122.59997558594
1113.38138788439	1125
1114.06357830346	1116.80004882813
1114.745682019	1116.80004882813
1115.42769903872	1132
1116.10962937035	1128.80004882813
1116.7914730216	1135.80004882813
1117.47323000018	1133.80004882813
1118.15490031382	1133.59997558594
1118.83648397022	1129.80004882813
1119.51798097712	1128.59997558594
1120.1993913422	1132.80004882813
1120.88071507321	1136.40002441406
1121.56195217784	1140.80004882813
1122.24310266381	1134
1122.92416653884	1130.80004882813
1123.60514381064	1132.59997558594
1124.28603448692	1123.19995117188
1124.9668385754	1129.59997558594
1125.64755608378	1133.19995117188
1126.32818701978	1130.40002441406
1127.00873139111	1130.40002441406
1127.68918920548	1126.80004882813
1128.3695604706	1118.59997558594
1129.04984519419	1120.40002441406
1129.73004338394	1131.19995117188
1130.41015504758	1120.40002441406
1131.09018019281	1118.80004882813
1131.77011882734	1131.80004882813
1132.44997095888	1120.40002441406
1133.12973659514	1124.59997558594
1133.80941574381	1124
1134.48900841263	1123.40002441406
1135.16851460927	1127
1135.84793434147	1123.80004882813
1136.52726761692	1123.59997558594
1137.20651444333	1118.80004882813
1137.8856748284	1116.40002441406
1138.56474877984	1122.59997558594
1139.24373630536	1120.19995117188
1139.92263741265	1116.19995117188
1140.60145210943	1116.40002441406
1141.28018040339	1118.19995117188
1141.95882230225	1117.19995117188
1142.6373778137	1128.80004882813
1143.31584694545	1127.80004882813
1143.99422970519	1132.59997558594
1144.67252610064	1137.80004882813
1145.35073613949	1125.80004882813
1146.02885982944	1115.40002441406
1146.7068971782	1118
1147.38484819347	1109.19995117188
1148.06271288294	1108.59997558594
1148.74049125432	1114.19995117188
1149.41818331531	1114
1150.0957890736	1112.59997558594
1150.77330853689	1111.40002441406
1151.45074171289	1111
1152.12808860928	1114.80004882813
1152.80534923378	1103.80004882813
1153.48252359407	1109.59997558594
1154.15961169786	1105.19995117188
1154.83661355283	1107.80004882813
1155.51352916669	1104.40002441406
1156.19035854713	1101
1156.86710170185	1110.40002441406
1157.54375863855	1113.80004882813
1158.22032936491	1112.19995117188
1158.89681388863	1115.59997558594
1159.57321221741	1121.59997558594
1160.24952435894	1119.59997558594
1160.92575032092	1117
1161.60189011103	1118
1162.27794373697	1118
1162.95391120644	1116.19995117188
1163.62979252712	1115.19995117188
1164.3055877067	1122.59997558594
1164.98129675288	1126
1165.65691967336	1133.19995117188
1166.33245647581	1131.59997558594
1167.00790716792	1130
1167.6832717574	1124.80004882813
1168.35855025193	1124
1169.0337426592	1124.19995117188
1169.70884898689	1121.40002441406
1170.3838692427	1128.19995117188
1171.05880343431	1120.59997558594
1171.73365156941	1126.80004882813
1172.40841365569	1124.19995117188
1173.08308970083	1130.19995117188
1173.75767971253	1133.19995117188
1174.43218369847	1135.80004882813
1175.10660166633	1131.40002441406
1175.7809336238	1134.80004882813
1176.45517957857	1136.40002441406
1177.12933953832	1141.59997558594
1177.80341351073	1131.40002441406
1178.47740150349	1131
1179.15130352429	1124.40002441406
1179.8251195808	1128.80004882813
1180.49884968071	1125.40002441406
1181.1724938317	1124
1181.84605204145	1129.19995117188
1182.51952431766	1131.19995117188
1183.19291066799	1139.80004882813
1183.86621110013	1139.19995117188
1184.53942562176	1142.59997558594
1185.21255424057	1142.59997558594
1185.88559696422	1149.19995117188
1186.55855380041	1142.80004882813
1187.2314247568	1142
1187.90420984109	1131.80004882813
1188.57690906095	1137.19995117188
1189.24952242405	1138
1189.92204993808	1135.80004882813
1190.59449161071	1128.59997558594
1191.26684744962	1132.40002441406
1191.93911746249	1136.40002441406
1192.61130165699	1131
1193.28340004081	1130.19995117188
1193.95541262161	1130.19995117188
1194.62733940707	1138.40002441406
1195.29918040487	1138.59997558594
1195.97093562269	1142.80004882813
1196.64260506819	1133.59997558594
1197.31418874905	1133.80004882813
1197.98568667295	1129.80004882813
1198.65709884755	1137.19995117188
1199.32842528053	1138
1199.99966597957	1132
1200.67082095234	1128.19995117188
1201.3418902065	1128.40002441406
1202.01287374974	1122
1202.68377158971	1118
1203.3545837341	1118.59997558594
1204.02531019057	1120.40002441406
1204.6959509668	1115.19995117188
1205.36650607045	1114
1206.03697550919	1117.40002441406
1206.70735929069	1116
1207.37765742263	1121.40002441406
1208.04786991266	1127.59997558594
1208.71799676846	1114
1209.38803799769	1119.40002441406
1210.05799360803	1118.19995117188
1210.72786360714	1121.19995117188
1211.39764800268	1109.80004882813
1212.06734680233	1120.19995117188
1212.73696001375	1123.19995117188
1213.4064876446	1124.40002441406
1214.07592970255	1112
1214.74528619526	1128.59997558594
1215.4145571304	1119.80004882813
1216.08374251564	1125.40002441406
1216.75284235863	1119.19995117188
1217.42185666704	1118
1218.09078544854	1114
1218.75962871078	1110.80004882813
1219.42838646143	1111.59997558594
1220.09705870816	1098.80004882813
1220.76564545861	1112
1221.43414672046	1106
1222.10256250136	1110.80004882813
1222.77089280898	1111.19995117188
1223.43913765098	1108.59997558594
1224.107297035	1105.80004882813
1224.77537096873	1109.59997558594
1225.44335945981	1109.80004882813
1226.1112625159	1116
1226.77908014467	1107.19995117188
1227.44681235376	1113.80004882813
1228.11445915085	1111.80004882813
1228.78202054357	1108
1229.44949653961	1104.19995117188
1230.11688714659	1112.40002441406
1230.7841923722	1106.80004882813
1231.45141222407	1110.40002441406
1232.11854670988	1113
1232.78559583726	1108.19995117188
1233.45255961388	1111.19995117188
1234.1194380474	1110
1234.78623114546	1111.80004882813
1235.45293891572	1102
1236.11956136583	1101
1236.78609850345	1106.59997558594
1237.45255033623	1095.40002441406
1238.11891687182	1101.59997558594
1238.78519811788	1097.80004882813
1239.45139408205	1100.19995117188
1240.11750477198	1099.59997558594
1240.78353019534	1101.59997558594
1241.44947035976	1103.40002441406
1242.11532527291	1099.19995117188
1242.78109494242	1104.40002441406
1243.44677937595	1108
1244.11237858115	1106.80004882813
1244.77789256567	1115.40002441406
1245.44332133715	1119.19995117188
1246.10866490325	1105.19995117188
1246.7739232716	1106.80004882813
1247.43909644987	1104.59997558594
1248.10418444569	1101.80004882813
1248.76918726671	1105.80004882813
1249.43410492059	1093.80004882813
1250.09893741496	1108.40002441406
1250.76368475747	1102.40002441406
1251.42834695576	1106.19995117188
1252.09292401749	1102
1252.75741595029	1103
1253.42182276182	1108.59997558594
1254.08614445971	1102.40002441406
1254.75038105161	1114
1255.41453254515	1110.19995117188
1256.07859894799	1109.80004882813
1256.74258026777	1110.19995117188
1257.40647651213	1117.40002441406
1258.0702876887	1116.80004882813
1258.73401380514	1106.80004882813
1259.39765486908	1105
1260.06121088817	1103.59997558594
1260.72468187004	1104
1261.38806782233	1103.59997558594
1262.05136875269	1103.80004882813
1262.71458466875	1104
1263.37771557815	1107.80004882813
1264.04076148854	1104.59997558594
1264.70372240753	1103.80004882813
1265.3665983428	1105.19995117188
1266.02938930195	1103.80004882813
1266.69209529263	1097.59997558594
1267.35471632249	1099.59997558594
1268.01725239914	1095
1268.67970353024	1095.80004882813
1269.34206972342	1102.40002441406
1270.00435098631	1098.80004882813
1270.66654732655	1105.59997558594
1271.32865875177	1098
1271.9906852696	1096.80004882813
1272.65262688768	1093
1273.31448361365	1095.40002441406
1273.97625545514	1098
1274.63794241978	1098.19995117188
1275.2995445152	1098.80004882813
1275.96106174903	1104
1276.62249412892	1105.59997558594
1277.28384166248	1104.59997558594
1277.94510435735	1092.40002441406
1278.60628222116	1099.40002441406
1279.26737526155	1100
1279.92838348613	1092.80004882813
1280.58930690255	1097.80004882813
1281.25014551842	1101.40002441406
1281.91089934139	1098
1282.57156837907	1095.19995117188
1283.2321526391	1094.40002441406
1283.89265212911	1097.19995117188
1284.55306685671	1102
1285.21339682955	1097.19995117188
1285.87364205525	1096.59997558594
1286.53380254142	1096.40002441406
1287.19387829571	1087.80004882813
1287.85386932573	1088.59997558594
1288.51377563911	1094.80004882813
1289.17359724348	1103.80004882813
1289.83333414646	1096.40002441406
1290.49298635567	1105.40002441406
1291.15255387874	1102.59997558594
1291.8120367233	1107.40002441406
1292.47143489696	1100.59997558594
1293.13074840736	1104
1293.7899772621	1107.80004882813
1294.44912146882	1107.19995117188
1295.10818103513	1105.19995117188
1295.76715596866	1108.40002441406
1296.42604627704	1109.80004882813
1297.08485196787	1114
1297.74357304878	1117.40002441406
1298.4022095274	1107.19995117188
1299.06076141134	1119
1299.71922870821	1114.80004882813
1300.37761142565	1111
1301.03590957126	1110.19995117188
1301.69412315268	1112.80004882813
1302.3522521775	1108.19995117188
1303.01029665336	1103.40002441406
1303.66825658787	1112.59997558594
1304.32613198865	1107
1304.98392286332	1107
1305.64162921948	1121
1306.29925106476	1116
1306.95678840677	1110.80004882813
1307.61424125312	1111.19995117188
1308.27160961145	1120
1308.92889348934	1118.19995117188
1309.58609289443	1116.40002441406
1310.24320783432	1116.59997558594
1310.90023831664	1123.80004882813
1311.55718434898	1119.40002441406
1312.21404593897	1116
1312.87082309421	1113.80004882813
1313.52751582233	1126.80004882813
1314.18412413092	1112.40002441406
1314.84064802761	1121.80004882813
1315.49708752	1176
1316.1534426157	1129.19995117188
1316.80971332233	1121
1317.46589964749	1121.40002441406
1318.1220015988	1114.40002441406
1318.77801918386	1108.40002441406
1319.43395241028	1107.40002441406
1320.08980128567	1105.40002441406
1320.74556581764	1111
1321.4012460138	1120.19995117188
1322.05684188176	1106.40002441406
1322.71235342911	1100.80004882813
1323.36778066347	1100.40002441406
1324.02312359245	1107.19995117188
1324.67838222365	1105.80004882813
1325.33355656468	1106.59997558594
1325.98864662314	1102.80004882813
1326.64365240663	1102.59997558594
1327.29857392277	1097.59997558594
1327.95341117915	1103.19995117188
1328.60816418339	1104.80004882813
1329.26283294308	1102.40002441406
1329.91741746582	1095.40002441406
1330.57191775923	1102.19995117188
1331.2263338309	1101
1331.88066568843	1110.59997558594
1332.53491333943	1109
1333.1890767915	1106.80004882813
1333.84315605224	1110.80004882813
1334.49715112925	1111.40002441406
1335.15106203013	1108.80004882813
1335.80488876249	1121
1336.45863133391	1113.19995117188
1337.112289752	1111.59997558594
1337.76586402437	1109.80004882813
1338.4193541586	1108.19995117188
1339.0727601623	1110.59997558594
1339.72608204306	1104
1340.37931980849	1103.80004882813
1341.03247346617	1105
1341.68554302372	1106.80004882813
1342.33852848871	1105.40002441406
1342.99142986876	1103
1343.64424717145	1105.59997558594
1344.29698040438	1112.40002441406
1344.94962957515	1108
1345.60219469135	1119.80004882813
1346.25467576058	1114.40002441406
1346.90707279042	1118.80004882813
1347.55938578848	1103.80004882813
1348.21161476235	1108.40002441406
1348.86375971962	1115.59997558594
1349.51582066787	1115
1350.16779761472	1120.80004882813
1350.81969056774	1123.40002441406
1351.47149953453	1121
1352.12322452269	1127.80004882813
1352.77486553979	1131.59997558594
1353.42642259344	1128.80004882813
1354.07789569122	1131.59997558594
1354.72928484072	1119.80004882813
1355.38059004953	1128.40002441406
1356.03181132525	1125.59997558594
1356.68294867545	1131.59997558594
1357.33400210773	1140
1357.98497162968	1134
1358.63585724889	1135.40002441406
1359.28665897294	1136.19995117188
1359.93737680942	1142.19995117188
1360.58801076591	1148.19995117188
1361.23856085001	1136.40002441406
1361.88902706929	1153.80004882813
1362.53940943135	1142.59997558594
1363.18970794377	1143.80004882813
1363.83992261413	1138.80004882813
1364.49005345003	1145.59997558594
1365.14010045904	1133.59997558594
1365.79006364874	1140.19995117188
1366.43994302673	1135.40002441406
1367.08973860058	1136
1367.73945037788	1129.80004882813
1368.38907836621	1131.40002441406
1369.03862257315	1125.80004882813
1369.68808300629	1128.19995117188
1370.3374596732	1127
1370.98675258148	1122.19995117188
1371.63596173868	1118.40002441406
1372.28508715241	1114.19995117188
1372.93412883024	1116.59997558594
1373.58308677974	1116.80004882813
1374.2319610085	1108.40002441406
1374.8807515241	1105.19995117188
1375.52945833412	1105
1376.17808144612	1110
1376.82662086771	1108.59997558594
1377.47507660644	1092.40002441406
1378.12344866989	1098.19995117188
1378.77173706565	1100.19995117188
1379.41994180129	1099.19995117188
1380.06806288439	1101.40002441406
1380.71610032252	1101.40002441406
1381.36405412326	1091.19995117188
1382.01192429419	1094.40002441406
1382.65971084287	1103.80004882813
1383.30741377688	1098.19995117188
1383.95503310381	1094.80004882813
1384.60256883121	1094.19995117188
1385.25002096667	1088.80004882813
1385.89738951775	1097
1386.54467449204	1091.40002441406
1387.19187589709	1092.59997558594
1387.8389937405	1093.80004882813
1388.48602802982	1089.80004882813
1389.13297877262	1089.80004882813
1389.77984597649	1094.40002441406
1390.42662964899	1091.80004882813
1391.07332979768	1091.59997558594
1391.71994643015	1088.80004882813
1392.36647955395	1090
1393.01292917667	1088.40002441406
1393.65929530586	1094.19995117188
1394.3055779491	1094.19995117188
1394.95177711395	1093
1395.59789280799	1092.80004882813
1396.24392503877	1093.59997558594
1396.88987381387	1094.80004882813
1397.53573914086	1100.40002441406
1398.1815210273	1089
1398.82721948075	1089.59997558594
1399.47283450878	1093.19995117188
1400.11836611897	1086.59997558594
1400.76381431886	1086.19995117188
1401.40917911603	1079
1402.05446051805	1080
1402.69965853247	1078.19995117188
1403.34477316686	1078.19995117188
1403.98980442878	1073.19995117188
1404.6347523258	1068.40002441406
1405.27961686548	1070.59997558594
1405.92439805538	1067.19995117188
1406.56909590306	1076
1407.21371041608	1074.40002441406
1407.85824160202	1076
1408.50268946841	1082.59997558594
1409.14705402284	1082
1409.79133527285	1079.19995117188
1410.43553322601	1083.19995117188
1411.07964788987	1079.40002441406
1411.723679272	1078.19995117188
1412.36762737996	1085.40002441406
1413.01149222129	1079
1413.65527380357	1085.40002441406
1414.29897213435	1089.80004882813
1414.94258722118	1082.59997558594
1415.58611907163	1088.19995117188
1416.22956769325	1082.19995117188
1416.87293309359	1084.19995117188
1417.51621528021	1072.40002441406
1418.15941426067	1079.59997558594
1418.80253004253	1079.59997558594
1419.44556263333	1075.19995117188
1420.08851204063	1078
1420.731378272	1079.80004882813
1421.37416133497	1093.59997558594
1422.0168612371	1086
1422.65947798596	1085.40002441406
1423.30201158908	1078.40002441406
1423.94446205403	1087
1424.58682938835	1090.59997558594
1425.2291135996	1086.19995117188
1425.87131469532	1088.19995117188
1426.51343268308	1090
1427.15546757042	1086.59997558594
1427.79741936488	1077.40002441406
1428.43928807403	1085
1429.0810737054	1084.40002441406
1429.72277626656	1077.59997558594
1430.36439576504	1080.19995117188
1431.00593220841	1076
1431.64738560419	1083.80004882813
1432.28875595995	1089.40002441406
1432.93004328324	1087.80004882813
1433.57124758159	1081.40002441406
1434.21236886255	1088
1434.85340713368	1086
1435.49436240252	1088.40002441406
1436.13523467661	1086
1436.77602396349	1086.59997558594
1437.41673027073	1085.80004882813
1438.05735360585	1092
1438.69789397641	1091.80004882813
1439.33835138994	1096.59997558594
1439.978725854	1090.40002441406
1440.61901737612	1090.19995117188
1441.25922596385	1101
1441.89935162473	1091
1442.53939436631	1095.80004882813
1443.17935419612	1094.59997558594
1443.81923112171	1094.80004882813
1444.45902515061	1102.59997558594
1445.09873629038	1096
1445.73836454854	1091.40002441406
1446.37790993265	1095
1447.01737245024	1094.59997558594
1447.65675210885	1088.19995117188
1448.29604891602	1081
1448.93526287928	1092.40002441406
1449.57439400618	1090.59997558594
1450.21344230426	1085.19995117188
1450.85240778105	1087.19995117188
1451.49129044409	1095.80004882813
1452.13009030092	1094.80004882813
1452.76880735907	1095.80004882813
1453.40744162608	1096.40002441406
1454.04599310949	1100.80004882813
1454.68446181683	1098
1455.32284775564	1095
1455.96115093345	1091.19995117188
1456.5993713578	1088
1457.23750903623	1093
1457.87556397626	1094.40002441406
1458.51353618543	1095
1459.15142567127	1092.19995117188
1459.78923244132	1087.59997558594
1460.42695650311	1085.40002441406
1461.06459786417	1079.80004882813
1461.70215653203	1081.19995117188
1462.33963251423	1081.59997558594
1462.97702581829	1083.40002441406
1463.61433645175	1087
1464.25156442214	1080.59997558594
1464.88870973699	1078.40002441406
1465.52577240382	1089.59997558594
1466.16275243017	1090.40002441406
1466.79964982356	1085.19995117188
1467.43646459154	1083.19995117188
1468.07319674161	1081.40002441406
1468.70984628132	1081.59997558594
1469.34641321818	1076.59997558594
1469.98289755974	1082.19995117188
1470.6192993135	1075.59997558594
1471.25561848701	1076.59997558594
1471.89185508779	1072.59997558594
1472.52800912336	1083.19995117188
1473.16408060124	1087.80004882813
1473.80006952897	1087.59997558594
1474.43597591407	1086.80004882813
1475.07179976406	1083.59997558594
1475.70754108647	1073.80004882813
1476.34319988883	1078.19995117188
1476.97877617865	1083.19995117188
1477.61426996345	1086
1478.24968125077	1084
1478.88501004812	1092
1479.52025636303	1090.59997558594
1480.15542020302	1088
1480.79050157561	1083.19995117188
1481.42550048832	1089
1482.06041694867	1086.19995117188
1482.69525096418	1080.80004882813
1483.33000254237	1080.40002441406
1483.96467169077	1084.59997558594
1484.59925841689	1082.40002441406
1485.23376272825	1085.19995117188
1485.86818463237	1077.80004882813
1486.50252413677	1079
1487.13678124896	1074.59997558594
1487.77095597646	1075.40002441406
1488.4050483268	1077.80004882813
1489.03905830749	1072.59997558594
1489.67298592604	1080.80004882813
1490.30683118996	1082.40002441406
1490.9405941068	1080.59997558594
1491.57427468403	1082
1492.2078729292	1086.19995117188
1492.84138884981	1075.19995117188
1493.47482245338	1072.80004882813
1494.10817374742	1083.59997558594
1494.74144273944	1082.19995117188
1495.37462943696	1084.80004882813
1496.0077338475	1088.40002441406
1496.64075597856	1084.19995117188
1497.27369583765	1090.59997558594
1497.9065534323	1093.80004882813
1498.53932877001	1087.59997558594
1499.17202185829	1084.19995117188
1499.80463270465	1087.19995117188
1500.43716131661	1080.19995117188
1501.06960770167	1083.40002441406
1501.70197186735	1091
1502.33425382116	1090.40002441406
1502.96645357059	1092.80004882813
1503.59857112317	1090.40002441406
1504.23060648641	1078.59997558594
1504.8625596678	1081
1505.49443067486	1082.59997558594
1506.1262195151	1087.40002441406
1506.75792619602	1083
1507.38955072513	1092.59997558594
1508.02109310993	1081
1508.65255335794	1085.80004882813
1509.28393147666	1090.19995117188
1509.91522747359	1098.80004882813
1510.54644135624	1088.40002441406
1511.17757313212	1093
1511.80862280872	1096.19995117188
1512.43959039356	1095.19995117188
1513.07047589413	1089.40002441406
1513.70127931795	1091.80004882813
1514.33200067251	1080.40002441406
1514.96263996531	1079.59997558594
1515.59319720386	1084.19995117188
1516.22367239567	1077
1516.85406554822	1078
1517.48437666903	1078.19995117188
1518.1146057656	1074.19995117188
1518.74475284542	1082.80004882813
1519.374817916	1074.19995117188
1520.00480098483	1073.40002441406
1520.63470205942	1074.19995117188
1521.26452114726	1076.40002441406
1521.89425825586	1078.59997558594
1522.52391339271	1077
1523.15348656531	1070.19995117188
1523.78297778116	1077.80004882813
1524.41238704775	1075.40002441406
1525.04171437259	1067.40002441406
1525.67095976317	1067.19995117188
1526.30012322699	1061.59997558594
1526.92920477154	1063
1527.55820440432	1059.19995117188
1528.18712213283	1057.40002441406
1528.81595796455	1060.59997558594
1529.44471190699	1065.19995117188
1530.07338396764	1064.19995117188
1530.70197415399	1066
1531.33048247353	1070.59997558594
1531.95890893377	1072.19995117188
1532.58725354219	1058.59997558594
1533.21551630629	1069
1533.84369723356	1069.19995117188
1534.47179633148	1074.80004882813
1535.09981360757	1070.80004882813
1535.72774906929	1067.19995117188
1536.35560272415	1072.80004882813
1536.98337457963	1070.40002441406
1537.61106464323	1071.19995117188
1538.23867292243	1071.80004882813
1538.86619942473	1070.19995117188
1539.49364415762	1065.80004882813
1540.12100712857	1068
1540.74828834509	1063.40002441406
1541.37548781466	1064.59997558594
1542.00260554478	1065.19995117188
1542.62964154291	1062
1543.25659581655	1066.59997558594
1543.8834683732	1064.80004882813
1544.51025922034	1068.80004882813
1545.13696836544	1064.19995117188
1545.76359581601	1062
1546.39014157952	1069
1547.01660566345	1068.40002441406
1547.64298807531	1071.19995117188
1548.26928882255	1072.19995117188
1548.89550791269	1067.59997558594
1549.52164535318	1063.59997558594
1550.14770115153	1062.80004882813
1550.77367531521	1059.80004882813
1551.39956785171	1060.80004882813
1552.0253787685	1051.40002441406
1552.65110807307	1063.59997558594
1553.2767557729	1062.80004882813
1553.90232187548	1058.19995117188
1554.52780638828	1054.80004882813
1555.15320931879	1057.59997558594
1555.77853067447	1057
1556.40377046282	1064.40002441406
1557.02892869132	1056.80004882813
1557.65400536744	1063
1558.27900049866	1059.40002441406
1558.90391409247	1059.80004882813
1559.52874615633	1054.19995117188
1560.15349669773	1062.40002441406
1560.77816572414	1056.59997558594
1561.40275324305	1059
1562.02725926192	1052
1562.65168378824	1061.40002441406
1563.27602682948	1061
1563.90028839311	1057.59997558594
1564.52446848662	1068.59997558594
1565.14856711748	1061.80004882813
1565.77258429316	1062.40002441406
1566.39652002113	1066.59997558594
1567.02037430887	1068.19995117188
1567.64414716387	1065.19995117188
1568.26783859357	1064
1568.89144860547	1059.19995117188
1569.51497720703	1061
1570.13842440573	1063.19995117188
1570.76179020904	1061.59997558594
1571.38507462442	1061.19995117188
1572.00827765936	1065.80004882813
1572.63139932132	1067
1573.25443961777	1074
1573.87739855618	1064
1574.50027614402	1069
1575.12307238877	1061.19995117188
1575.74578729789	1052.59997558594
1576.36842087885	1053
1576.99097313912	1060.80004882813
1577.61344408616	1054.59997558594
1578.23583372745	1060.59997558594
1578.85814207046	1050.80004882813
1579.48036912264	1059
1580.10251489147	1049.59997558594
1580.72457938441	1045.80004882813
1581.34656260893	1050.80004882813
1581.9684645725	1050.40002441406
1582.59028528258	1046.59997558594
1583.21202474663	1045.40002441406
1583.83368297212	1040.80004882813
1584.45525996652	1044.19995117188
1585.07675573728	1048.19995117188
1585.69817029188	1036.19995117188
1586.31950363778	1043.80004882813
1586.94075578243	1040
1587.5619267333	1042.59997558594
1588.18301649786	1038.40002441406
1588.80402508357	1037.80004882813
1589.42495249788	1039
1590.04579874826	1035.80004882813
1590.66656384217	1031.59997558594
1591.28724778707	1043.59997558594
1591.90785059042	1041.40002441406
1592.52837225968	1047.40002441406
1593.14881280232	1038.59997558594
1593.76917222578	1045.19995117188
1594.38945053753	1046.80004882813
1595.00964774502	1047.80004882813
1595.62976385573	1039.19995117188
1596.24979887709	1040.19995117188
1596.86975281657	1039.80004882813
1597.48962568164	1034
1598.10941747974	1040.80004882813
1598.72912821832	1039.59997558594
1599.34875790486	1038.40002441406
1599.9683065468	1044.19995117188
1600.58777415159	1045.59997558594
1601.2071607267	1047.80004882813
1601.82646627958	1043.80004882813
1602.44569081769	1045.40002441406
1603.06483434846	1047.19995117188
1603.68389687937	1040
1604.30287841786	1043.40002441406
1604.92177897139	1040.59997558594
1605.54059854741	1040.59997558594
1606.15933715337	1043.80004882813
1606.77799479672	1040.40002441406
1607.39657148492	1036.19995117188
1608.01506722542	1039.80004882813
1608.63348202566	1041.40002441406
1609.2518158931	1040.59997558594
1609.87006883519	1043
1610.48824085939	1031.40002441406
1611.10633197312	1039.80004882813
1611.72434218386	1033.80004882813
1612.34227149904	1038.40002441406
1612.96011992612	1040.40002441406
1613.57788747254	1033.59997558594
1614.19557414575	1040.19995117188
1614.8131799532	1039
1615.43070490234	1044
1616.04814900061	1031.40002441406
1616.66551225545	1034.40002441406
1617.28279467433	1037.40002441406
1617.89999626467	1040.19995117188
1618.51711703393	1033.80004882813
1619.13415698955	1035.40002441406
1619.75111613898	1038.80004882813
1620.36799448966	1041.40002441406
1620.98479204903	1037.80004882813
1621.60150882455	1044.80004882813
1622.21814482364	1040.80004882813
1622.83470005376	1041.19995117188
1623.45117452235	1037.19995117188
1624.06756823685	1037.80004882813
1624.6838812047	1040.59997558594
1625.30011343335	1042.59997558594
1625.91626493022	1041.80004882813
1626.53233570278	1037.40002441406
1627.14832575845	1039.40002441406
1627.76423510468	1032.40002441406
1628.38006374891	1027.59997558594
1628.99581169857	1023.20001220703
1629.61147896111	1023.40002441406
1630.22706554397	1020.40002441406
1630.84257145457	1024.80004882813
1631.45799670038	1020.20001220703
1632.07334128881	1029.40002441406
1632.6886052273	1023.79998779297
1633.3037885233	1020.59997558594
1633.91889118425	1021.40002441406
1634.53391321757	1022.40002441406
1635.1488546307	1023.20001220703
1635.76371543108	1020.59997558594
1636.37849562616	1024.19995117188
1636.99319522335	1029.19995117188
1637.60781423009	1028
1638.22235265383	1024.40002441406
1638.83681050198	1027
1639.451187782	1021
1640.0654845013	1025.40002441406
1640.67970066734	1032.80004882813
1641.29383628752	1035
1641.9078913693	1036
1642.5218659201	1040.59997558594
1643.13575994735	1036.80004882813
1643.74957345849	1035
1644.36330646094	1037.80004882813
1644.97695896213	1042.19995117188
1645.59053096951	1041.19995117188
1646.20402249049	1040.80004882813
1646.8174335325	1043.80004882813
1647.43076410298	1046.40002441406
1648.04401420935	1048.19995117188
1648.65718385905	1042.59997558594
1649.2702730595	1046.80004882813
1649.88328181812	1039.40002441406
1650.49621014236	1048.19995117188
1651.10905803963	1041.19995117188
1651.72182551735	1035.19995117188
1652.33451258297	1032.19995117188
1652.9471192439	1030.80004882813
1653.55964550757	1025.80004882813
1654.1720913814	1022.40002441406
1654.78445687283	1020
1655.39674198926	1019.20001220703
1656.00894673814	1022.40002441406
1656.62107112688	1017.79998779297
1657.23311516291	1014
1657.84507885365	1020.20001220703
1658.45696220652	1019
1659.06876522895	1015.59997558594
1659.68048792835	1015.20001220703
1660.29213031217	1021.59997558594
1660.90369238779	1015.59997558594
1661.51517416267	1012.20001220703
1662.12657564421	1010.20001220703
1662.73789683984	1014.20001220703
1663.34913775697	1007.40002441406
1663.96029840303	1003
1664.57137878544	1003.59997558594
1665.18237891161	1004
1665.79329878897	1008
1666.40413842493	1004.20001220703
1667.01489782691	1002.59997558594
1667.62557700233	1001
1668.2361759586	997.799987792969
1668.84669470315	999.200012207031
1669.4571332434	999.200012207031
1670.06749158675	997.599975585938
1670.67776974062	1000
1671.28796771243	1001.40002441406
1671.8980855096	997
1672.50812313954	996.599975585938
1673.11808060967	996.400024414063
1673.72795792739	999.599975585938
1674.33775510013	998.400024414063
1674.9474721353	994.400024414063
1675.55710904031	999
1676.16666582257	992.200012207031
1676.7761424895	992.799987792969
1677.38553904851	989.400024414063
1677.99485550702	987.799987792969
1678.60409187243	991.200012207031
1679.21324815215	991.599975585938
1679.8223243536	985.599975585938
1680.43132048419	990.400024414063
1681.04023655132	983.200012207031
1681.64907256241	987.200012207031
1682.25782852487	989.799987792969
1682.86650444611	986
1683.47510033353	988.200012207031
1684.08361619455	988.200012207031
1684.69205203657	989
1685.300407867	983.200012207031
1685.90868369325	986.400024414063
1686.51687952272	981.799987792969
1687.12499536283	993
1687.73303122098	999
1688.34098710457	989.400024414063
1688.94886302101	991.400024414063
1689.55665897772	986.599975585938
1690.16437498208	988.799987792969
1690.77201104152	987
1691.37956716342	985.400024414063
1691.9870433552	984.599975585938
1692.59443962426	982.400024414063
1693.20175597801	983.400024414063
1693.80899242384	984.400024414063
1694.41614896916	977.400024414063
1695.02322562138	976.599975585938
1695.63022238789	971.799987792969
1696.23713927609	974.400024414063
1696.8439762934	978.799987792969
1697.4507334472	979.599975585938
1698.05741074491	983.400024414063
1698.66400819391	986.599975585938
1699.27052580161	984.200012207031
1699.87696357542	985.599975585938
1700.48332152272	982.799987792969
1701.08959965092	975.200012207031
1701.69579796742	974.599975585938
1702.30191647962	975
1702.90795519491	973.799987792969
1703.51391412069	975.200012207031
1704.11979326437	969
1704.72559263332	977
1705.33131223496	975.400024414063
1705.93695207668	977.400024414063
1706.54251216588	982
1707.14799250994	980.400024414063
1707.75339311628	978.200012207031
1708.35871399227	979
1708.96395514532	982.599975585938
1709.56911658282	975.400024414063
