634.948122577771	1150.19995117188
635.690341530823	1146.59997558594
636.43246851086	1151.80004882813
637.174503525845	1149.59997558594
637.916446583745	1147.40002441406
638.658297692538	1143.59997558594
639.400056860179	1133.40002441406
640.141724094637	1137.59997558594
640.883299403885	1141
641.62478279588	1154.40002441406
642.366174278594	1149.59997558594
643.107473859989	1148.59997558594
643.848681548029	1137.19995117188
644.589797350679	1145.40002441406
645.330821275901	1146.40002441406
646.071753331665	1145
646.812593525922	1147.40002441406
647.553341866646	1142.59997558594
648.293998361798	1142.80004882813
649.03456301933	1141.19995117188
649.775035847216	1144.40002441406
650.515416853409	1135
651.255706045874	1140.19995117188
651.995903432568	1137.59997558594
652.736009021453	1140.59997558594
653.476022820486	1145.59997558594
654.215944837629	1146.19995117188
654.955775080842	1147
655.695513558081	1155
656.435160277301	1149.40002441406
657.174715246465	1152
657.914178473527	1144.40002441406
658.653549966449	1148.19995117188
659.392829733176	1159
660.132017781678	1162.19995117188
660.871114119901	1169.40002441406
661.610118755803	1168.40002441406
662.349031697343	1167.80004882813
663.087852952468	1162
663.826582529139	1169.40002441406
664.565220435305	1165
665.30376667892	1171.59997558594
666.04222126794	1164.40002441406
666.780584210316	1164.80004882813
667.518855514	1164.80004882813
668.25703518694	1165.59997558594
668.995123237096	1165.40002441406
669.733119672413	1158
670.471024500842	1159.19995117188
671.208837730333	1158.19995117188
671.946559368839	1178.19995117188
672.684189424308	1161
673.421727904689	1167
674.159174817929	1164.19995117188
674.896530171977	1170
675.633793974786	1174.80004882813
676.370966234295	1169.19995117188
677.108046958461	1167.40002441406
677.845036155219	1167.80004882813
678.581933832528	1169.40002441406
679.318739998323	1174.40002441406
680.055454660558	1170.40002441406
680.792077827172	1165.19995117188
681.528609506116	1167.59997558594
682.265049705331	1157.19995117188
683.001398432759	1153.59997558594
683.737655696349	1160.80004882813
684.47382150404	1149.80004882813
685.20989586378	1158.59997558594
685.945878783503	1158.80004882813
686.68177027116	1160
687.417570334688	1162.59997558594
688.153278982032	1153.19995117188
688.888896221129	1151.59997558594
689.624422059921	1158.19995117188
690.359856506349	1140.80004882813
691.095199568354	1145.40002441406
691.830451253874	1152.19995117188
692.565611570844	1158
693.300680527212	1162.59997558594
694.03565813091	1160.19995117188
694.770544389877	1171.59997558594
695.505339312053	1172.80004882813
696.240042905372	1167
696.974655177772	1168.59997558594
697.70917613719	1162.80004882813
698.443605791561	1168
699.177944148826	1169
699.912191216909	1169.40002441406
700.646347003755	1165.59997558594
701.380411517295	1159.59997558594
702.114384765465	1167.80004882813
702.848266756195	1170
703.582057497421	1169.19995117188
704.315756997074	1167.40002441406
705.049365263089	1166.19995117188
705.782882303399	1164.80004882813
706.516308125936	1166.80004882813
707.249642738626	1164.19995117188
707.982886149403	1161
708.716038366204	1158
709.449099396949	1159.80004882813
710.182069249577	1156
710.914947932009	1167.59997558594
711.647735452181	1162.80004882813
712.380431818022	1169.80004882813
713.113037037454	1164.40002441406
713.845551118411	1165.40002441406
714.577974068818	1171
715.310305896604	1170.80004882813
716.042546609694	1169.80004882813
716.774696216013	1165.59997558594
717.506754723493	1167.59997558594
718.238722140053	1155.40002441406
718.970598473624	1161.40002441406
719.702383732127	1175.59997558594
720.43407792349	1175.59997558594
721.165681055634	1169
721.897193136486	1175.80004882813
722.628614173966	1177.19995117188
723.359944175997	1177.59997558594
724.091183150505	1185
724.822331105412	1174.80004882813
725.553388048638	1179.80004882813
726.284353988106	1186.80004882813
727.015228931734	1185.40002441406
727.746012887449	1180.80004882813
728.476705863162	1181.19995117188
729.207307866803	1175.19995117188
729.937818906289	1175.80004882813
730.668238989535	1175.40002441406
731.398568124459	1177.59997558594
732.128806318986	1167.80004882813
732.858953581034	1168.80004882813
733.589009918514	1162.19995117188
734.318975339348	1159.80004882813
735.048849851452	1167.59997558594
735.778633462744	1159.19995117188
736.508326181137	1157.59997558594
737.237928014549	1168.19995117188
737.967438970897	1179.80004882813
738.696859058095	1162.19995117188
739.426188284054	1166.19995117188
740.155426656692	1166.19995117188
740.884574183922	1166.80004882813
741.613630873659	1169.19995117188
742.342596733815	1161.40002441406
743.071471772302	1166.19995117188
743.800255997034	1166
744.528949415921	1170
745.257552036877	1167.80004882813
745.986063867811	1167
746.714484916638	1168.80004882813
747.442815191261	1166.19995117188
748.171054699597	1169.40002441406
748.899203449554	1170.19995117188
749.627261449039	1168.80004882813
750.355228705966	1180.80004882813
751.083105228239	1168.80004882813
751.810891023765	1173.59997558594
752.538586100459	1167.40002441406
753.266190466218	1176.59997558594
753.99370412896	1168.59997558594
754.721127096582	1165.40002441406
755.448459377	1170.40002441406
756.175700978114	1166.40002441406
756.902851907828	1166.59997558594
757.629912174055	1172
758.356881784688	1175.80004882813
759.083760747639	1178.40002441406
759.810549070817	1182.19995117188
760.537246762113	1184.19995117188
761.263853829442	1183.19995117188
761.990370280698	1180.59997558594
762.716796123791	1196.19995117188
763.443131366618	1188
764.169376017082	1181.40002441406
764.895530083085	1192.59997558594
765.621593572527	1195.40002441406
766.347566493312	1194.59997558594
767.073448853336	1203.19995117188
767.799240660502	1208
768.524941922707	1202
769.250552647854	1210.19995117188
769.976072843836	1203.80004882813
770.701502518551	1195.80004882813
771.426841679905	1203.59997558594
772.152090335793	1203.19995117188
772.877248494107	1207
773.602316162747	1212.40002441406
774.327293349609	1211.80004882813
775.052180062592	1213.80004882813
775.776976309589	1213.59997558594
776.501682098496	1220.19995117188
777.226297437206	1217.80004882813
777.950822333616	1207.19995117188
778.675256795621	1208
779.399600831111	1211
780.123854447983	1200.19995117188
780.84801765413	1197.19995117188
781.572090457441	1194
782.296072865811	1194.40002441406
783.019964887131	1190.19995117188
783.743766529297	1192.40002441406
784.467477800194	1189.19995117188
785.191098707719	1187.40002441406
785.914629259756	1175
786.638069464194	1173.59997558594
787.361419328932	1168.59997558594
788.084678861852	1179.59997558594
788.807848070845	1170.40002441406
789.530926963798	1176.59997558594
790.253915548602	1181.80004882813
790.976813833144	1178.19995117188
791.699621825307	1179
792.422339532986	1182.19995117188
793.144966964061	1179
793.86750412642	1173.40002441406
794.589951027946	1170.19995117188
795.312307676536	1167.80004882813
796.03457408006	1172.19995117188
796.756750246417	1165.40002441406
797.478836183477	1168
798.200831899137	1175.59997558594
798.92273740127	1177.80004882813
799.644552697769	1179.80004882813
800.36627779651	1184.80004882813
801.087912705374	1182.80004882813
801.809457432251	1179.19995117188
802.530911985017	1186.40002441406
803.252276371558	1177.59997558594
803.973550599748	1176.59997558594
804.694734677472	1165.80004882813
805.415828612611	1174
806.136832413045	1185.40002441406
806.857746086646	1175
807.578569641305	1180.40002441406
808.299303084892	1202.19995117188
809.019946425289	1201.59997558594
809.740499670372	1195.80004882813
810.460962828022	1188
811.181335906114	1188
811.901618912524	1185.80004882813
812.621811855131	1184
813.341914741809	1181.59997558594
814.061927580433	1168.19995117188
814.781850378881	1184
815.501683145025	1174.40002441406
816.221425886743	1176
816.941078611903	1182.59997558594
817.660641328387	1184.80004882813
818.380114044065	1176.40002441406
819.099496766808	1177.80004882813
819.818789504492	1180.19995117188
820.53799226499	1180
821.257105056168	1182
821.976127885904	1186.59997558594
822.695060762064	1185.59997558594
823.413903692525	1176.19995117188
824.132656685151	1176.80004882813
824.851319747817	1169
825.569892888388	1158.40002441406
826.288376114739	1160.59997558594
827.006769434737	1178.59997558594
827.725072856249	1185.59997558594
828.443286387142	1183.19995117188
829.161410035285	1193.19995117188
829.87944380855	1191.19995117188
830.597387714798	1195.59997558594
831.315241761898	1195.19995117188
832.033005957715	1188.19995117188
832.750680310119	1186.80004882813
833.468264826969	1182.80004882813
834.18575951614	1181.40002441406
834.903164385486	1172
835.620479442878	1159.80004882813
836.337704696181	1167.80004882813
837.054840153255	1169.59997558594
837.771885821962	1173.59997558594
838.488841710172	1167.59997558594
839.20570782574	1163.19995117188
839.922484176531	1168
840.639170770409	1173.40002441406
841.355767615231	1169.80004882813
842.072274718864	1171.80004882813
842.788692089164	1177.59997558594
843.505019733993	1181.80004882813
844.221257661209	1172.19995117188
844.937405878676	1168.59997558594
845.65346439425	1182.19995117188
846.369433215789	1183.40002441406
847.085312351156	1173.40002441406
847.801101808205	1176
848.516801594793	1188.40002441406
849.232411718781	1182.80004882813
849.947932188021	1190.40002441406
850.663363010376	1181
851.378704193698	1193
852.093955745842	1176.40002441406
852.809117674669	1177.80004882813
853.524189988028	1170.19995117188
854.239172693778	1167.40002441406
854.954065799768	1169
855.668869313857	1176.40002441406
856.383583243899	1173
857.098207597743	1171.19995117188
857.812742383246	1181.80004882813
858.527187608255	1173.19995117188
859.241543280628	1176.80004882813
859.955809408218	1178.40002441406
860.669985998868	1167.19995117188
861.384073060437	1162
862.098070600772	1169.19995117188
862.811978627724	1166.80004882813
863.52579714914	1169.59997558594
864.239526172873	1163.40002441406
864.953165706776	1164.80004882813
865.666715758687	1172.19995117188
866.380176336464	1174.59997558594
867.093547447951	1163.40002441406
867.806829100996	1165.40002441406
868.520021303444	1161.59997558594
869.233124063149	1161.80004882813
869.94613738795	1157.80004882813
870.659061285693	1156.40002441406
871.37189576423	1159.59997558594
872.084640831403	1169.80004882813
872.797296495057	1177.59997558594
873.509862763039	1178.80004882813
874.22233964319	1183.80004882813
874.934727143353	1185.40002441406
875.647025271374	1188
876.359234035097	1178.80004882813
877.071353442361	1177.19995117188
877.783383501015	1170.40002441406
878.495324218895	1169.40002441406
879.207175603844	1173.40002441406
879.918937663705	1166.59997558594
880.630610406318	1158.40002441406
881.342193839524	1158.80004882813
882.053687971161	1157.80004882813
882.765092809069	1149.80004882813
883.476408361091	1156
884.187634635066	1152.59997558594
884.898771638828	1165
885.609819380221	1168.19995117188
886.320777867076	1176.40002441406
887.031647107236	1164.80004882813
887.742427108536	1178
888.453117878816	1167.19995117188
889.16371942591	1172.40002441406
889.874231757652	1178
890.584654881883	1176.59997558594
891.294988806434	1166.19995117188
892.005233539141	1174.40002441406
892.715389087837	1184.59997558594
893.42545546036	1184.40002441406
894.135432664543	1181.80004882813
894.845320708216	1186.80004882813
895.555119599216	1180
896.264829345375	1179.59997558594
896.974449954526	1169.80004882813
897.683981434496	1168.59997558594
898.393423793125	1162
899.102777038235	1165.59997558594
899.812041177664	1163.19995117188
900.521216219239	1162.59997558594
901.230302170793	1167
901.939299040155	1164
902.64820683515	1168.59997558594
903.357025563612	1161
904.065755233368	1162.80004882813
904.774395852247	1164.59997558594
905.482947428076	1169
906.191409968682	1175
906.899783481897	1172.40002441406
907.608067975538	1178.80004882813
908.316263457443	1182.40002441406
909.02436993543	1181.40002441406
909.732387417327	1179.59997558594
910.440315910959	1173.19995117188
911.148155424154	1178
911.855905964731	1176.59997558594
912.563567540521	1179
913.271140159339	1181.40002441406
913.978623829017	1178
914.686018557374	1176.19995117188
915.393324352237	1184.19995117188
916.100541221421	1180.40002441406
916.807669172752	1181.80004882813
917.514708214054	1182.40002441406
918.221658353142	1189.19995117188
918.928519597843	1187.40002441406
919.635291955976	1178.40002441406
920.341975435358	1182.40002441406
921.048570043813	1184.40002441406
921.75507578916	1184.80004882813
922.461492679212	1187
923.167820721795	1189.59997558594
923.874059924726	1184.80004882813
924.58021029582	1188.40002441406
925.286271842893	1187.80004882813
925.992244573769	1187.80004882813
926.698128496262	1185.80004882813
927.403923618184	1183
928.109629947355	1186.80004882813
928.815247491593	1181
929.520776258708	1177.59997558594
930.226216256519	1167.80004882813
930.931567492841	1168.80004882813
931.636829975482	1169.80004882813
932.342003712263	1169.19995117188
933.047088710995	1170
933.752084979491	1167.59997558594
934.456992525564	1176.19995117188
935.161811357024	1177.59997558594
935.866541481688	1185.40002441406
936.571182907363	1177.19995117188
937.275735641861	1172.19995117188
937.980199692995	1163.59997558594
938.684575068572	1159.80004882813
939.388861776411	1163.80004882813
940.093059824311	1156.59997558594
940.797169220085	1165.59997558594
941.501189971544	1163.80004882813
942.205122086495	1164.80004882813
942.908965572751	1175.80004882813
943.612720438111	1178.40002441406
944.316386690391	1176
945.019964337391	1174.80004882813
945.723453386924	1177.80004882813
946.426853846795	1166.59997558594
947.130165724808	1169.40002441406
947.83338902877	1157.19995117188
948.536523766488	1160.40002441406
949.239569945764	1150.40002441406
949.942527574402	1167.80004882813
950.64539666021	1162.59997558594
951.348177210993	1171.40002441406
952.050869234548	1172.80004882813
952.753472738683	1161
953.455987731199	1163
954.158414219898	1170
954.860752212587	1171
955.563001717061	1185
956.265162741124	1168
956.967235292576	1168.59997558594
957.669219379224	1171.59997558594
958.371115008857	1174.19995117188
959.072922189283	1168.80004882813
959.774640928301	1171.40002441406
960.476271233708	1173.40002441406
961.177813113301	1167.80004882813
961.879266574882	1173.59997558594
962.580631626248	1169
963.281908275194	1167.19995117188
963.98309652952	1175.40002441406
964.684196397022	1169.19995117188
965.3852078855	1169.40002441406
966.086131002745	1182.59997558594
966.786965756555	1168.59997558594
967.487712154726	1175.80004882813
968.188370205055	1178
968.888939915331	1182
969.589421293352	1171.80004882813
970.289814346909	1166.19995117188
970.990119083801	1162.80004882813
971.690335511819	1162.19995117188
972.39046363875	1164.59997558594
973.090503472398	1155
973.790455020545	1164
974.490318290987	1163
975.190093291516	1167
975.889780029923	1167.19995117188
976.589378513998	1167.40002441406
977.288888751527	1163
977.988310750308	1160.19995117188
978.687644518122	1167.19995117188
979.386890062767	1158.40002441406
980.086047392025	1158.40002441406
980.785116513689	1165.19995117188
981.484097435542	1164.19995117188
982.182990165377	1167.80004882813
982.88179471098	1164.59997558594
983.580511080137	1161.19995117188
984.279139280632	1157
984.977679320253	1168.40002441406
985.67613120679	1169.19995117188
986.374494948027	1168.40002441406
987.072770551745	1156.59997558594
987.770958025731	1156.19995117188
988.469057377772	1152.59997558594
989.167068615649	1158
989.864991747145	1150.19995117188
990.562826780047	1152.19995117188
991.260573722134	1154.40002441406
991.958232581195	1153.59997558594
992.655803365003	1145
993.353286081346	1152.80004882813
994.050680738006	1153.19995117188
994.74798734276	1157
995.44520590339	1151.80004882813
996.142336427681	1149.19995117188
996.839378923407	1152.19995117188
997.536333398348	1148.59997558594
998.233199860289	1172
998.929978317004	1168.19995117188
999.626668776274	1168.59997558594
1000.32327124587	1163.19995117188
1001.01978573359	1167.40002441406
1001.71621224718	1157.40002441406
1002.41255079445	1152.80004882813
1003.10880138315	1153.80004882813
1003.80496402107	1143
1004.50103871599	1146.80004882813
1005.19702547567	1140
1005.8929243079	1152.80004882813
1006.58873522045	1153
1007.2844582211	1157.80004882813
1007.98009331761	1169
1008.67564051776	1169.19995117188
1009.37109982933	1177.80004882813
1010.06647126009	1178.59997558594
1010.7617548178	1169.40002441406
1011.45695051026	1169
1012.15205834522	1162.40002441406
1012.84707833045	1159.40002441406
1013.54201047373	1163.59997558594
1014.23685478284	1159
1014.93161126553	1158.19995117188
1015.62627992959	1165
1016.32086078277	1161
1017.01535383285	1161
1017.70975908761	1169.40002441406
1018.40407655479	1154.80004882813
1019.09830624219	1162.19995117188
1019.79244815755	1162
1020.48650230866	1160
1021.18046870328	1152.59997558594
1021.87434734917	1162.80004882813
1022.56813825411	1161.19995117188
1023.26184142584	1148
1023.95545687216	1154.80004882813
1024.64898460082	1155
1025.34242461957	1153.59997558594
1026.0357769362	1156.80004882813
1026.72904155846	1150.19995117188
1027.42221849412	1159.19995117188
1028.11530775094	1148.59997558594
1028.80830933668	1150.19995117188
1029.50122325911	1146.19995117188
1030.19404952599	1147.59997558594
1030.88678814508	1158.59997558594
1031.57943912414	1165.80004882813
1032.27200247093	1161.59997558594
1032.96447819323	1153.40002441406
1033.65686629878	1151
1034.34916679534	1156.19995117188
1035.04137969068	1155
1035.73350499256	1168.80004882813
1036.42554270874	1163
1037.11749284697	1155.40002441406
1037.80935541501	1159.59997558594
1038.50113042062	1151
1039.19281787156	1155.19995117188
1039.88441777559	1151.80004882813
1040.57593014046	1158.59997558594
1041.26735497393	1139.59997558594
1041.95869228376	1150
1042.6499420777	1149.59997558594
1043.3411043635	1150
1044.03217914893	1151
1044.72316644174	1157.40002441406
1045.41406624968	1156
1046.1048785805	1156.80004882813
1046.79560344197	1146.40002441406
1047.48624084182	1146.40002441406
1048.17679078783	1142.59997558594
1048.86725328774	1145.80004882813
1049.55762834929	1142
1050.24791598025	1147.40002441406
1050.93811618837	1153
1051.62822898139	1150
1052.31825436707	1149
1053.00819235315	1152.40002441406
1053.6980429474	1149.40002441406
1054.38780615755	1148
1055.07748199136	1145.59997558594
1055.76707045658	1140.40002441406
1056.45657156095	1147.40002441406
1057.14598531222	1142.80004882813
1057.83531171814	1145.40002441406
1058.52455078646	1147.59997558594
1059.21370252494	1157.40002441406
1059.90276694129	1150.59997558594
1060.5917440433	1145.19995117188
1061.28063383868	1135
1061.9694363352	1135.59997558594
1062.65815154059	1138.80004882813
1063.34677946261	1134.19995117188
1064.03532010899	1142.40002441406
1064.72377348748	1141
1065.41213960583	1155.40002441406
1066.10041847177	1154
1066.78861009306	1164.80004882813
1067.47671447743	1172.19995117188
1068.16473163263	1173
1068.85266156639	1163
1069.54050428647	1165.40002441406
1070.2282598006	1163.59997558594
1070.91592811652	1155.19995117188
1071.60350924198	1147
1072.29100318471	1135.59997558594
1072.97840995245	1133.59997558594
1073.66572955295	1135.80004882813
1074.35296199394	1142.19995117188
1075.04010728316	1148.80004882813
1075.72716542836	1146.19995117188
1076.41413643726	1138.59997558594
1077.10102031761	1137.19995117188
1077.78781707715	1144
1078.4745267236	1136.59997558594
1079.16114926471	1136.19995117188
1079.84768470822	1149.19995117188
1080.53413306185	1145
1081.22049433336	1145.19995117188
1081.90676853046	1151.40002441406
1082.5929556609	1148.40002441406
1083.27905573241	1145.59997558594
1083.96506875272	1143
1084.65099472957	1147.80004882813
1085.3368336707	1141.40002441406
1086.02258558383	1149
1086.70825047669	1159
1087.39382835703	1156.19995117188
1088.07931923257	1141
1088.76472311104	1145
1089.45004000018	1151.80004882813
1090.13526990771	1147.19995117188
1090.82041284137	1145.40002441406
1091.50546880889	1141.80004882813
1092.19043781799	1137.19995117188
1092.87531987642	1135
1093.56011499188	1137.19995117188
1094.24482317212	1132
1094.92944442486	1138
1095.61397875783	1138.19995117188
1096.29842617876	1142.19995117188
1096.98278669537	1146
1097.6670603154	1142.80004882813
1098.35124704656	1152.59997558594
1099.03534689659	1153.59997558594
1099.71935987322	1144.80004882813
1100.40328598416	1146.40002441406
1101.08712523713	1145.80004882813
1101.77087763988	1143.19995117188
1102.45454320012	1147.19995117188
1103.13812192557	1148.19995117188
1103.82161382396	1138.40002441406
1104.50501890301	1139.40002441406
1105.18833717045	1138.19995117188
1105.87156863399	1140.40002441406
1106.55471330137	1137.59997558594
1107.2377711803	1140.40002441406
1107.9207422785	1140.19995117188
1108.60362660369	1141.59997558594
1109.2864241636	1140.59997558594
1109.96913496594	1135.19995117188
1110.65175901844	1146.80004882813
1111.33429632882	1135
1112.01674690479	1142.40002441406
1112.69911075408	1142
1113.38138788439	1144.59997558594
1114.06357830346	1144.19995117188
1114.745682019	1151.19995117188
1115.42769903872	1149
1116.10962937035	1147.80004882813
1116.7914730216	1159.80004882813
1117.47323000018	1160
1118.15490031382	1168
1118.83648397022	1165.19995117188
1119.51798097712	1162.40002441406
1120.1993913422	1164.19995117188
1120.88071507321	1160
1121.56195217784	1167.80004882813
1122.24310266381	1155.59997558594
1122.92416653884	1154.80004882813
1123.60514381064	1151
1124.28603448692	1152.80004882813
1124.9668385754	1147.59997558594
1125.64755608378	1147.40002441406
1126.32818701978	1158
1127.00873139111	1142.59997558594
1127.68918920548	1151
1128.3695604706	1154
1129.04984519419	1153.80004882813
1129.73004338394	1150.80004882813
1130.41015504758	1149
1131.09018019281	1139.80004882813
1131.77011882734	1144.19995117188
1132.44997095888	1137.59997558594
1133.12973659514	1132.40002441406
1133.80941574381	1132.80004882813
1134.48900841263	1137.80004882813
1135.16851460927	1130.40002441406
1135.84793434147	1129.80004882813
1136.52726761692	1139.59997558594
1137.20651444333	1138.80004882813
1137.8856748284	1140.40002441406
1138.56474877984	1131.59997558594
1139.24373630536	1131
1139.92263741265	1134.80004882813
1140.60145210943	1131.80004882813
1141.28018040339	1142.40002441406
1141.95882230225	1135.59997558594
1142.6373778137	1140.40002441406
1143.31584694545	1141
1143.99422970519	1140.80004882813
1144.67252610064	1138.80004882813
1145.35073613949	1139.19995117188
1146.02885982944	1135
1146.7068971782	1136.40002441406
1147.38484819347	1128.40002441406
1148.06271288294	1130.19995117188
1148.74049125432	1125.59997558594
1149.41818331531	1123
1150.0957890736	1119.19995117188
1150.77330853689	1121.19995117188
1151.45074171289	1122
1152.12808860928	1129.59997558594
1152.80534923378	1126
1153.48252359407	1133
1154.15961169786	1129.19995117188
1154.83661355283	1127.80004882813
1155.51352916669	1133.40002441406
1156.19035854713	1132.40002441406
1156.86710170185	1129.80004882813
1157.54375863855	1129.19995117188
1158.22032936491	1132.59997558594
1158.89681388863	1127.59997558594
1159.57321221741	1126.19995117188
1160.24952435894	1136.40002441406
1160.92575032092	1132.19995117188
1161.60189011103	1140.19995117188
1162.27794373697	1128.19995117188
1162.95391120644	1133
1163.62979252712	1141.40002441406
1164.3055877067	1146.59997558594
1164.98129675288	1148.59997558594
1165.65691967336	1157
1166.33245647581	1150.19995117188
1167.00790716792	1158.40002441406
1167.6832717574	1157.80004882813
1168.35855025193	1144.80004882813
1169.0337426592	1139.40002441406
1169.70884898689	1146.19995117188
1170.3838692427	1147
1171.05880343431	1147.59997558594
1171.73365156941	1141.80004882813
1172.40841365569	1141.40002441406
1173.08308970083	1147.59997558594
1173.75767971253	1144
1174.43218369847	1143.80004882813
1175.10660166633	1148.40002441406
1175.7809336238	1154.80004882813
1176.45517957857	1143
1177.12933953832	1152.59997558594
1177.80341351073	1152
1178.47740150349	1147.40002441406
1179.15130352429	1140.40002441406
1179.8251195808	1147.19995117188
1180.49884968071	1143.19995117188
1181.1724938317	1150.19995117188
1181.84605204145	1145.80004882813
1182.51952431766	1149.80004882813
1183.19291066799	1154.59997558594
1183.86621110013	1158
1184.53942562176	1163.80004882813
1185.21255424057	1164.59997558594
1185.88559696422	1153.80004882813
1186.55855380041	1161.19995117188
1187.2314247568	1165.19995117188
1187.90420984109	1163.80004882813
1188.57690906095	1155.19995117188
1189.24952242405	1155
1189.92204993808	1153.40002441406
1190.59449161071	1151.19995117188
1191.26684744962	1151
1191.93911746249	1151.40002441406
1192.61130165699	1147.19995117188
1193.28340004081	1147.80004882813
1193.95541262161	1147.59997558594
1194.62733940707	1148.80004882813
1195.29918040487	1150
1195.97093562269	1145.40002441406
1196.64260506819	1147.40002441406
1197.31418874905	1143.40002441406
1197.98568667295	1157
1198.65709884755	1159
1199.32842528053	1152.19995117188
1199.99966597957	1147.59997558594
1200.67082095234	1149.59997558594
1201.3418902065	1136.19995117188
1202.01287374974	1141.40002441406
1202.68377158971	1135.80004882813
1203.3545837341	1133.40002441406
1204.02531019057	1139
1204.6959509668	1133.40002441406
1205.36650607045	1137
1206.03697550919	1130.40002441406
1206.70735929069	1130.19995117188
1207.37765742263	1129.59997558594
1208.04786991266	1129.80004882813
1208.71799676846	1129
1209.38803799769	1136.19995117188
1210.05799360803	1132.59997558594
1210.72786360714	1137
1211.39764800268	1135
1212.06734680233	1132.59997558594
1212.73696001375	1137.59997558594
1213.4064876446	1137.80004882813
1214.07592970255	1142.59997558594
1214.74528619526	1141.59997558594
1215.4145571304	1142.19995117188
1216.08374251564	1146.19995117188
1216.75284235863	1143.19995117188
1217.42185666704	1140.80004882813
1218.09078544854	1131.80004882813
1218.75962871078	1126
1219.42838646143	1131.19995117188
1220.09705870816	1131.40002441406
1220.76564545861	1128.80004882813
1221.43414672046	1131.59997558594
1222.10256250136	1132.59997558594
1222.77089280898	1129
1223.43913765098	1129
1224.107297035	1125.59997558594
1224.77537096873	1126.40002441406
1225.44335945981	1122.80004882813
1226.1112625159	1116.80004882813
1226.77908014467	1131.59997558594
1227.44681235376	1126.40002441406
1228.11445915085	1130.59997558594
1228.78202054357	1125
1229.44949653961	1126.80004882813
1230.11688714659	1130.59997558594
1230.7841923722	1128.59997558594
1231.45141222407	1124.19995117188
1232.11854670988	1123.80004882813
1232.78559583726	1122
1233.45255961388	1129.40002441406
1234.1194380474	1131.80004882813
1234.78623114546	1134
1235.45293891572	1134.19995117188
1236.11956136583	1126.19995117188
1236.78609850345	1129.59997558594
1237.45255033623	1121.59997558594
1238.11891687182	1121.40002441406
1238.78519811788	1119.19995117188
1239.45139408205	1110.80004882813
1240.11750477198	1114.40002441406
1240.78353019534	1119.40002441406
1241.44947035976	1110
1242.11532527291	1108.59997558594
1242.78109494242	1115
1243.44677937595	1125.19995117188
1244.11237858115	1131
1244.77789256567	1128.19995117188
1245.44332133715	1122.80004882813
1246.10866490325	1120.40002441406
1246.7739232716	1118.19995117188
1247.43909644987	1120.80004882813
1248.10418444569	1118.40002441406
1248.76918726671	1121.59997558594
1249.43410492059	1117.59997558594
1250.09893741496	1124
1250.76368475747	1114.19995117188
1251.42834695576	1117.40002441406
1252.09292401749	1120
1252.75741595029	1122
1253.42182276182	1117.59997558594
1254.08614445971	1119
1254.75038105161	1124.40002441406
1255.41453254515	1122.59997558594
1256.07859894799	1126.59997558594
1256.74258026777	1128.80004882813
1257.40647651213	1128.80004882813
1258.0702876887	1134.59997558594
1258.73401380514	1116.80004882813
1259.39765486908	1126.80004882813
1260.06121088817	1122.59997558594
1260.72468187004	1128.80004882813
1261.38806782233	1121.19995117188
1262.05136875269	1135
1262.71458466875	1125.40002441406
1263.37771557815	1121.80004882813
1264.04076148854	1124.19995117188
1264.70372240753	1122.59997558594
1265.3665983428	1112.40002441406
1266.02938930195	1124.40002441406
1266.69209529263	1115.59997558594
1267.35471632249	1118.80004882813
1268.01725239914	1117.59997558594
1268.67970353024	1125.40002441406
1269.34206972342	1116.40002441406
1270.00435098631	1129.40002441406
1270.66654732655	1124.40002441406
1271.32865875177	1125.80004882813
1271.9906852696	1119.19995117188
1272.65262688768	1114
1273.31448361365	1115.80004882813
1273.97625545514	1122
1274.63794241978	1120
1275.2995445152	1118.80004882813
1275.96106174903	1110.40002441406
1276.62249412892	1111.80004882813
1277.28384166248	1111.80004882813
1277.94510435735	1120.80004882813
1278.60628222116	1114
1279.26737526155	1115.19995117188
1279.92838348613	1120.59997558594
1280.58930690255	1125.19995117188
1281.25014551842	1124.40002441406
1281.91089934139	1124.19995117188
1282.57156837907	1120
1283.2321526391	1115.40002441406
1283.89265212911	1123.59997558594
1284.55306685671	1119.19995117188
1285.21339682955	1120.80004882813
1285.87364205525	1120.19995117188
1286.53380254142	1113.59997558594
1287.19387829571	1108.40002441406
1287.85386932573	1113.40002441406
1288.51377563911	1121
1289.17359724348	1117.80004882813
1289.83333414646	1120.19995117188
1290.49298635567	1119.40002441406
1291.15255387874	1125
1291.8120367233	1120
1292.47143489696	1127.40002441406
1293.13074840736	1128
1293.7899772621	1121.80004882813
1294.44912146882	1125.19995117188
1295.10818103513	1119.59997558594
1295.76715596866	1128.19995117188
1296.42604627704	1122.80004882813
1297.08485196787	1131.59997558594
1297.74357304878	1137.19995117188
1298.4022095274	1138
1299.06076141134	1140.19995117188
1299.71922870821	1134.80004882813
1300.37761142565	1128
1301.03590957126	1135.59997558594
1301.69412315268	1127.40002441406
1302.3522521775	1131.59997558594
1303.01029665336	1127.59997558594
1303.66825658787	1131.59997558594
1304.32613198865	1131.19995117188
1304.98392286332	1129.59997558594
1305.64162921948	1133.80004882813
1306.29925106476	1132.59997558594
1306.95678840677	1135.59997558594
1307.61424125312	1132.19995117188
1308.27160961145	1127.40002441406
1308.92889348934	1146
1309.58609289443	1133.80004882813
1310.24320783432	1140.80004882813
1310.90023831664	1141
1311.55718434898	1140.80004882813
1312.21404593897	1136.59997558594
1312.87082309421	1141.40002441406
1313.52751582233	1135.80004882813
1314.18412413092	1126.59997558594
1314.84064802761	1126.40002441406
1315.49708752	1133.59997558594
1316.1534426157	1125
1316.80971332233	1135
1317.46589964749	1136.59997558594
1318.1220015988	1127.80004882813
1318.77801918386	1132.59997558594
1319.43395241028	1121.80004882813
1320.08980128567	1124.80004882813
1320.74556581764	1135.59997558594
1321.4012460138	1124.19995117188
1322.05684188176	1132.59997558594
1322.71235342911	1122.19995117188
1323.36778066347	1122
1324.02312359245	1125
1324.67838222365	1124.19995117188
1325.33355656468	1116.40002441406
1325.98864662314	1117.19995117188
1326.64365240663	1121.59997558594
1327.29857392277	1117.19995117188
1327.95341117915	1123.19995117188
1328.60816418339	1115.19995117188
1329.26283294308	1117.59997558594
1329.91741746582	1117.40002441406
1330.57191775923	1119.40002441406
1331.2263338309	1122.40002441406
1331.88066568843	1124
1332.53491333943	1119.59997558594
1333.1890767915	1126.19995117188
1333.84315605224	1127.59997558594
1334.49715112925	1124.80004882813
1335.15106203013	1129.59997558594
1335.80488876249	1120.40002441406
1336.45863133391	1123.59997558594
1337.112289752	1131.80004882813
1337.76586402437	1127
1338.4193541586	1125
1339.0727601623	1130.40002441406
1339.72608204306	1123.40002441406
1340.37931980849	1124.59997558594
1341.03247346617	1123
1341.68554302372	1126.80004882813
1342.33852848871	1122.40002441406
1342.99142986876	1125
1343.64424717145	1119.40002441406
1344.29698040438	1121.19995117188
1344.94962957515	1130
1345.60219469135	1139.80004882813
1346.25467576058	1140.19995117188
1346.90707279042	1130.80004882813
1347.55938578848	1132.80004882813
1348.21161476235	1133.59997558594
1348.86375971962	1127.19995117188
1349.51582066787	1130.59997558594
1350.16779761472	1130.80004882813
1350.81969056774	1135.40002441406
1351.47149953453	1141
1352.12322452269	1134.80004882813
1352.77486553979	1139.40002441406
1353.42642259344	1153.19995117188
1354.07789569122	1139.59997558594
1354.72928484072	1146.19995117188
1355.38059004953	1138.80004882813
1356.03181132525	1143.59997558594
1356.68294867545	1154.40002441406
1357.33400210773	1158.80004882813
1357.98497162968	1149.19995117188
1358.63585724889	1146
1359.28665897294	1154
1359.93737680942	1165
1360.58801076591	1170.59997558594
1361.23856085001	1162
1361.88902706929	1162
1362.53940943135	1160.80004882813
1363.18970794377	1165.80004882813
1363.83992261413	1166
1364.49005345003	1165
1365.14010045904	1168.59997558594
1365.79006364874	1162
1366.43994302673	1157.40002441406
1367.08973860058	1147.19995117188
1367.73945037788	1153
1368.38907836621	1147.19995117188
1369.03862257315	1148.80004882813
1369.68808300629	1148.59997558594
1370.3374596732	1151.40002441406
1370.98675258148	1132.80004882813
1371.63596173868	1140.59997558594
1372.28508715241	1144.19995117188
1372.93412883024	1143.40002441406
1373.58308677974	1136.19995117188
1374.2319610085	1135
1374.8807515241	1130.80004882813
1375.52945833412	1128.59997558594
1376.17808144612	1122
1376.82662086771	1120.80004882813
1377.47507660644	1122.19995117188
1378.12344866989	1128
1378.77173706565	1116.19995117188
1379.41994180129	1118.40002441406
1380.06806288439	1121.19995117188
1380.71610032252	1120.59997558594
1381.36405412326	1124
1382.01192429419	1119.80004882813
1382.65971084287	1113.80004882813
1383.30741377688	1107.40002441406
1383.95503310381	1115.59997558594
1384.60256883121	1111.19995117188
1385.25002096667	1105.19995117188
1385.89738951775	1119
1386.54467449204	1110.40002441406
1387.19187589709	1113
1387.8389937405	1111.80004882813
1388.48602802982	1109.19995117188
1389.13297877262	1116
1389.77984597649	1109
1390.42662964899	1107
1391.07332979768	1108.59997558594
1391.71994643015	1103.59997558594
1392.36647955395	1105
1393.01292917667	1108
1393.65929530586	1099.80004882813
1394.3055779491	1104
1394.95177711395	1114
1395.59789280799	1112.59997558594
1396.24392503877	1118.19995117188
1396.88987381387	1119.19995117188
1397.53573914086	1106.40002441406
1398.1815210273	1108.59997558594
1398.82721948075	1103.19995117188
1399.47283450878	1111.80004882813
1400.11836611897	1109.40002441406
1400.76381431886	1106
1401.40917911603	1093.59997558594
1402.05446051805	1100.19995117188
1402.69965853247	1099.59997558594
1403.34477316686	1089.59997558594
1403.98980442878	1086
1404.6347523258	1094.19995117188
1405.27961686548	1088.59997558594
1405.92439805538	1086
1406.56909590306	1090.59997558594
1407.21371041608	1093.19995117188
1407.85824160202	1095.40002441406
1408.50268946841	1099
1409.14705402284	1105.19995117188
1409.79133527285	1102.59997558594
1410.43553322601	1098.40002441406
1411.07964788987	1100
1411.723679272	1095.40002441406
1412.36762737996	1104
1413.01149222129	1106
1413.65527380357	1096
1414.29897213435	1097.19995117188
1414.94258722118	1099.40002441406
1415.58611907163	1099.80004882813
1416.22956769325	1098.59997558594
1416.87293309359	1098.40002441406
1417.51621528021	1099.40002441406
1418.15941426067	1105.19995117188
1418.80253004253	1099
1419.44556263333	1100.40002441406
1420.08851204063	1094.80004882813
1420.731378272	1100.40002441406
1421.37416133497	1109.59997558594
1422.0168612371	1100.19995117188
1422.65947798596	1105.80004882813
1423.30201158908	1103.19995117188
1423.94446205403	1102.40002441406
1424.58682938835	1104.59997558594
1425.2291135996	1105.40002441406
1425.87131469532	1106.80004882813
1426.51343268308	1105.80004882813
1427.15546757042	1108
1427.79741936488	1096
1428.43928807403	1095.80004882813
1429.0810737054	1100.40002441406
1429.72277626656	1093.59997558594
1430.36439576504	1098.40002441406
1431.00593220841	1092.59997558594
1431.64738560419	1094.80004882813
1432.28875595995	1098
1432.93004328324	1096.40002441406
1433.57124758159	1097
1434.21236886255	1105
1434.85340713368	1100.19995117188
1435.49436240252	1103.40002441406
1436.13523467661	1102.19995117188
1436.77602396349	1097.80004882813
1437.41673027073	1095
1438.05735360585	1098
1438.69789397641	1099.59997558594
1439.33835138994	1101
1439.978725854	1105.40002441406
1440.61901737612	1110.19995117188
1441.25922596385	1103.80004882813
1441.89935162473	1107.40002441406
1442.53939436631	1114.40002441406
1443.17935419612	1116
1443.81923112171	1120
1444.45902515061	1116
1445.09873629038	1109.80004882813
1445.73836454854	1107.19995117188
1446.37790993265	1109
1447.01737245024	1096.59997558594
1447.65675210885	1095.59997558594
1448.29604891602	1108.80004882813
1448.93526287928	1097.80004882813
1449.57439400618	1102.40002441406
1450.21344230426	1095.40002441406
1450.85240778105	1100.19995117188
1451.49129044409	1099.40002441406
1452.13009030092	1104.19995117188
1452.76880735907	1102.19995117188
1453.40744162608	1104.40002441406
1454.04599310949	1107.80004882813
1454.68446181683	1116.40002441406
1455.32284775564	1113.80004882813
1455.96115093345	1117.19995117188
1456.5993713578	1104.80004882813
1457.23750903623	1105
1457.87556397626	1103.59997558594
1458.51353618543	1104.19995117188
1459.15142567127	1100.59997558594
1459.78923244132	1099
1460.42695650311	1092
1461.06459786417	1101.59997558594
1461.70215653203	1096
1462.33963251423	1097.19995117188
1462.97702581829	1100
1463.61433645175	1095.40002441406
1464.25156442214	1083
1464.88870973699	1087.40002441406
1465.52577240382	1094.40002441406
1466.16275243017	1088
1466.79964982356	1099.19995117188
1467.43646459154	1091.19995117188
1468.07319674161	1102
1468.70984628132	1095
1469.34641321818	1093.59997558594
1469.98289755974	1089.40002441406
1470.6192993135	1089.59997558594
1471.25561848701	1091.40002441406
1471.89185508779	1092.19995117188
1472.52800912336	1091.80004882813
1473.16408060124	1093.80004882813
1473.80006952897	1093.19995117188
1474.43597591407	1095.19995117188
1475.07179976406	1091.59997558594
1475.70754108647	1096.80004882813
1476.34319988883	1094
1476.97877617865	1096.40002441406
1477.61426996345	1096.40002441406
1478.24968125077	1096.80004882813
1478.88501004812	1103.19995117188
1479.52025636303	1102.59997558594
1480.15542020302	1104.19995117188
1480.79050157561	1098.59997558594
1481.42550048832	1102.80004882813
1482.06041694867	1108.59997558594
1482.69525096418	1102.59997558594
1483.33000254237	1086.40002441406
1483.96467169077	1091.40002441406
1484.59925841689	1098.59997558594
1485.23376272825	1093.59997558594
1485.86818463237	1099.19995117188
1486.50252413677	1088.80004882813
1487.13678124896	1099.80004882813
1487.77095597646	1089.80004882813
1488.4050483268	1092
1489.03905830749	1100
1489.67298592604	1097.59997558594
1490.30683118996	1095.19995117188
1490.9405941068	1093
1491.57427468403	1093.19995117188
1492.2078729292	1092.40002441406
1492.84138884981	1094.40002441406
1493.47482245338	1094.19995117188
1494.10817374742	1095.40002441406
1494.74144273944	1095.19995117188
1495.37462943696	1097.40002441406
1496.0077338475	1096.80004882813
1496.64075597856	1101.59997558594
1497.27369583765	1112.80004882813
1497.9065534323	1100.19995117188
1498.53932877001	1099.80004882813
1499.17202185829	1099.19995117188
1499.80463270465	1100
1500.43716131661	1097.80004882813
1501.06960770167	1112.40002441406
1501.70197186735	1108.80004882813
1502.33425382116	1104.19995117188
1502.96645357059	1108.19995117188
1503.59857112317	1105.40002441406
1504.23060648641	1098
1504.8625596678	1101.80004882813
1505.49443067486	1103.40002441406
1506.1262195151	1105
1506.75792619602	1101.80004882813
1507.38955072513	1101.80004882813
1508.02109310993	1097.40002441406
1508.65255335794	1106
1509.28393147666	1104.80004882813
1509.91522747359	1106.59997558594
1510.54644135624	1108.59997558594
1511.17757313212	1106
1511.80862280872	1107.59997558594
1512.43959039356	1109.19995117188
1513.07047589413	1108.80004882813
1513.70127931795	1102.59997558594
1514.33200067251	1109.40002441406
1514.96263996531	1099.59997558594
1515.59319720386	1103.40002441406
1516.22367239567	1105
1516.85406554822	1102.80004882813
1517.48437666903	1102.80004882813
1518.1146057656	1093.59997558594
1518.74475284542	1097.80004882813
1519.374817916	1089.40002441406
1520.00480098483	1085.59997558594
1520.63470205942	1090.19995117188
1521.26452114726	1094.40002441406
1521.89425825586	1085.59997558594
1522.52391339271	1088.40002441406
1523.15348656531	1086.80004882813
1523.78297778116	1086.59997558594
1524.41238704775	1092.59997558594
1525.04171437259	1081.40002441406
1525.67095976317	1080.40002441406
1526.30012322699	1082
1526.92920477154	1079.59997558594
1527.55820440432	1078.19995117188
1528.18712213283	1073.59997558594
1528.81595796455	1076.19995117188
1529.44471190699	1066
1530.07338396764	1071.59997558594
1530.70197415399	1079
1531.33048247353	1084.19995117188
1531.95890893377	1075.59997558594
1532.58725354219	1078.59997558594
1533.21551630629	1074.59997558594
1533.84369723356	1075
1534.47179633148	1077.59997558594
1535.09981360757	1085.80004882813
1535.72774906929	1080.40002441406
1536.35560272415	1084.19995117188
1536.98337457963	1087.59997558594
1537.61106464323	1087.19995117188
1538.23867292243	1081.80004882813
1538.86619942473	1077.19995117188
1539.49364415762	1086.80004882813
1540.12100712857	1084.59997558594
1540.74828834509	1075.80004882813
1541.37548781466	1072
1542.00260554478	1077
1542.62964154291	1081.59997558594
1543.25659581655	1083.59997558594
1543.8834683732	1082.40002441406
1544.51025922034	1083
1545.13696836544	1082.80004882813
1545.76359581601	1083
1546.39014157952	1088
1547.01660566345	1083.80004882813
1547.64298807531	1087
1548.26928882255	1079.59997558594
1548.89550791269	1079
1549.52164535318	1074.19995117188
1550.14770115153	1068.59997558594
1550.77367531521	1067.40002441406
1551.39956785171	1066.80004882813
1552.0253787685	1075.80004882813
1552.65110807307	1078.40002441406
1553.2767557729	1074.59997558594
1553.90232187548	1067.59997558594
1554.52780638828	1067.19995117188
1555.15320931879	1066.80004882813
1555.77853067447	1073
1556.40377046282	1075.19995117188
1557.02892869132	1072.80004882813
1557.65400536744	1082
1558.27900049866	1074.59997558594
1558.90391409247	1079.19995117188
1559.52874615633	1077
1560.15349669773	1079
1560.77816572414	1080.59997558594
1561.40275324305	1078.19995117188
1562.02725926192	1077
1562.65168378824	1076.59997558594
1563.27602682948	1083
1563.90028839311	1077.19995117188
1564.52446848662	1078.59997558594
1565.14856711748	1084.80004882813
1565.77258429316	1077.19995117188
1566.39652002113	1089.19995117188
1567.02037430887	1090.19995117188
1567.64414716387	1081.19995117188
1568.26783859357	1084.19995117188
1568.89144860547	1075.40002441406
1569.51497720703	1077.19995117188
1570.13842440573	1084.59997558594
1570.76179020904	1083
1571.38507462442	1084.59997558594
1572.00827765936	1089.40002441406
1572.63139932132	1089.59997558594
1573.25443961777	1084.19995117188
1573.87739855618	1078.40002441406
1574.50027614402	1080.80004882813
1575.12307238877	1080
1575.74578729789	1076.59997558594
1576.36842087885	1076
1576.99097313912	1074.59997558594
1577.61344408616	1069.19995117188
1578.23583372745	1074.40002441406
1578.85814207046	1072.59997558594
1579.48036912264	1073.19995117188
1580.10251489147	1070.80004882813
1580.72457938441	1065.59997558594
1581.34656260893	1066.59997558594
1581.9684645725	1063.19995117188
1582.59028528258	1060
1583.21202474663	1060.19995117188
1583.83368297212	1058.19995117188
1584.45525996652	1059.80004882813
1585.07675573728	1061.59997558594
1585.69817029188	1048
1586.31950363778	1049.19995117188
1586.94075578243	1049
1587.5619267333	1049
1588.18301649786	1050.80004882813
1588.80402508357	1053.40002441406
1589.42495249788	1051.59997558594
1590.04579874826	1050.80004882813
1590.66656384217	1057.40002441406
1591.28724778707	1058.40002441406
1591.90785059042	1054.59997558594
1592.52837225968	1057.59997558594
1593.14881280232	1052
1593.76917222578	1060.19995117188
1594.38945053753	1061.40002441406
1595.00964774502	1057
1595.62976385573	1062.19995117188
1596.24979887709	1059.40002441406
1596.86975281657	1056.59997558594
1597.48962568164	1061.19995117188
1598.10941747974	1047.59997558594
1598.72912821832	1049.40002441406
1599.34875790486	1041
1599.9683065468	1041.59997558594
1600.58777415159	1053.19995117188
1601.2071607267	1049
1601.82646627958	1052.40002441406
1602.44569081769	1060.19995117188
1603.06483434846	1052.40002441406
1603.68389687937	1051.59997558594
1604.30287841786	1050
1604.92177897139	1052.80004882813
1605.54059854741	1046.59997558594
1606.15933715337	1050.19995117188
1606.77799479672	1051.59997558594
1607.39657148492	1054.40002441406
1608.01506722542	1054.19995117188
1608.63348202566	1052.59997558594
1609.2518158931	1063
1609.87006883519	1057.19995117188
1610.48824085939	1059.19995117188
1611.10633197312	1062.40002441406
1611.72434218386	1055.80004882813
1612.34227149904	1057
1612.96011992612	1052.59997558594
1613.57788747254	1049.59997558594
1614.19557414575	1054.40002441406
1614.8131799532	1054.40002441406
1615.43070490234	1060.80004882813
1616.04814900061	1053
1616.66551225545	1049.40002441406
1617.28279467433	1053.59997558594
1617.89999626467	1057.40002441406
1618.51711703393	1056.40002441406
1619.13415698955	1055.19995117188
1619.75111613898	1054.19995117188
1620.36799448966	1057.19995117188
1620.98479204903	1059.59997558594
1621.60150882455	1052.59997558594
1622.21814482364	1053.19995117188
1622.83470005376	1056.19995117188
1623.45117452235	1054
1624.06756823685	1060.19995117188
1624.6838812047	1062.59997558594
1625.30011343335	1058
1625.91626493022	1061.59997558594
1626.53233570278	1055.80004882813
1627.14832575845	1053.80004882813
1627.76423510468	1050.40002441406
1628.38006374891	1046.59997558594
1628.99581169857	1039.59997558594
1629.61147896111	1044.19995117188
1630.22706554397	1046.59997558594
1630.84257145457	1040.59997558594
1631.45799670038	1041.59997558594
1632.07334128881	1046.80004882813
1632.6886052273	1043
1633.3037885233	1043.59997558594
1633.91889118425	1036.59997558594
1634.53391321757	1039.19995117188
1635.1488546307	1038.80004882813
1635.76371543108	1029.80004882813
1636.37849562616	1039.80004882813
1636.99319522335	1032
1637.60781423009	1036.19995117188
1638.22235265383	1036.40002441406
1638.83681050198	1039.80004882813
1639.451187782	1038.19995117188
1640.0654845013	1043.59997558594
1640.67970066734	1043.59997558594
1641.29383628752	1050.19995117188
1641.9078913693	1054.59997558594
1642.5218659201	1053.59997558594
1643.13575994735	1055.59997558594
1643.74957345849	1055
1644.36330646094	1055
1644.97695896213	1056.80004882813
1645.59053096951	1063.19995117188
1646.20402249049	1061.59997558594
1646.8174335325	1060
1647.43076410298	1062
1648.04401420935	1062.59997558594
1648.65718385905	1058.19995117188
1649.2702730595	1062.80004882813
1649.88328181812	1068.59997558594
1650.49621014236	1065.59997558594
1651.10905803963	1062.40002441406
1651.72182551735	1059
1652.33451258297	1053.80004882813
1652.9471192439	1056.19995117188
1653.55964550757	1043
1654.1720913814	1035
1654.78445687283	1040.80004882813
1655.39674198926	1028
1656.00894673814	1035.19995117188
1656.62107112688	1036
1657.23311516291	1034.19995117188
1657.84507885365	1029.40002441406
1658.45696220652	1030.80004882813
1659.06876522895	1032.40002441406
1659.68048792835	1032
1660.29213031217	1038.40002441406
1660.90369238779	1038.40002441406
1661.51517416267	1027
1662.12657564421	1032.19995117188
1662.73789683984	1027
1663.34913775697	1027.40002441406
1663.96029840303	1019.40002441406
1664.57137878544	1021.59997558594
1665.18237891161	1018.59997558594
1665.79329878897	1021.79998779297
1666.40413842493	1025.19995117188
1667.01489782691	1021.40002441406
1667.62557700233	1023.20001220703
1668.2361759586	1023.59997558594
1668.84669470315	1013.79998779297
1669.4571332434	1015.20001220703
1670.06749158675	1017.59997558594
1670.67776974062	1012.59997558594
1671.28796771243	1015.40002441406
1671.8980855096	1021
1672.50812313954	1017.20001220703
1673.11808060967	1021
1673.72795792739	1016.59997558594
1674.33775510013	1018.20001220703
1674.9474721353	1014.79998779297
1675.55710904031	1012.40002441406
1676.16666582257	1011.79998779297
1676.7761424895	1007.20001220703
1677.38553904851	1008.59997558594
1677.99485550702	1005
1678.60409187243	1002.79998779297
1679.21324815215	1002.79998779297
1679.8223243536	1001.40002441406
1680.43132048419	1005.40002441406
1681.04023655132	1004
1681.64907256241	1001.40002441406
1682.25782852487	1006
1682.86650444611	1000.20001220703
1683.47510033353	1004
1684.08361619455	999.599975585938
1684.69205203657	995.799987792969
1685.300407867	993
1685.90868369325	998
1686.51687952272	1008.59997558594
1687.12499536283	1008.40002441406
1687.73303122098	1004.59997558594
1688.34098710457	1008.20001220703
1688.94886302101	1010
1689.55665897772	1002.20001220703
1690.16437498208	992.599975585938
1690.77201104152	998.799987792969
1691.37956716342	997.599975585938
1691.9870433552	1000.40002441406
1692.59443962426	992.599975585938
1693.20175597801	998.799987792969
1693.80899242384	996.599975585938
1694.41614896916	1002
1695.02322562138	998.799987792969
1695.63022238789	990.799987792969
1696.23713927609	992
1696.8439762934	1001.20001220703
1697.4507334472	999.799987792969
1698.05741074491	1006.79998779297
1698.66400819391	1000.59997558594
1699.27052580161	1002.59997558594
1699.87696357542	999.200012207031
1700.48332152272	997
1701.08959965092	991.599975585938
1701.69579796742	996.599975585938
1702.30191647962	989.799987792969
1702.90795519491	986.599975585938
1703.51391412069	988.200012207031
1704.11979326437	986.200012207031
1704.72559263332	989.599975585938
1705.33131223496	987.799987792969
1705.93695207668	996
1706.54251216588	996.200012207031
1707.14799250994	997.400024414063
1707.75339311628	996.400024414063
1708.35871399227	997.200012207031
1708.96395514532	991.799987792969
1709.56911658282	990.799987792969
