634.948122577771	1357.19995117188
635.690341530823	1357.19995117188
636.43246851086	1367.19995117188
637.174503525845	1372.19995117188
637.916446583745	1366
638.658297692538	1357.80004882813
639.400056860179	1353.19995117188
640.141724094637	1345
640.883299403885	1363
641.62478279588	1348.59997558594
642.366174278594	1363.19995117188
643.107473859989	1333
643.848681548029	1337.19995117188
644.589797350679	1335
645.330821275901	1336.80004882813
646.071753331665	1347.19995117188
646.812593525922	1353.40002441406
647.553341866646	1357.40002441406
648.293998361798	1350.59997558594
649.03456301933	1354.40002441406
649.775035847216	1344.19995117188
650.515416853409	1348.59997558594
651.255706045874	1338.40002441406
651.995903432568	1350.19995117188
652.736009021453	1341.59997558594
653.476022820486	1345
654.215944837629	1355.19995117188
654.955775080842	1350
655.695513558081	1360.59997558594
656.435160277301	1374
657.174715246465	1368.40002441406
657.914178473527	1366.80004882813
658.653549966449	1375.80004882813
659.392829733176	1377.59997558594
660.132017781678	1384.19995117188
660.871114119901	1388
661.610118755803	1395
662.349031697343	1383.40002441406
663.087852952468	1394.40002441406
663.826582529139	1393.59997558594
664.565220435305	1402
665.30376667892	1387.59997558594
666.04222126794	1376
666.780584210316	1376.59997558594
667.518855514	1382.80004882813
668.25703518694	1385
668.995123237096	1380.59997558594
669.733119672413	1371
670.471024500842	1370.40002441406
671.208837730333	1383.40002441406
671.946559368839	1388
672.684189424308	1386.80004882813
673.421727904689	1394.19995117188
674.159174817929	1377.80004882813
674.896530171977	1378.80004882813
675.633793974786	1380.59997558594
676.370966234295	1390.59997558594
677.108046958461	1385.19995117188
677.845036155219	1391.19995117188
678.581933832528	1400.59997558594
679.318739998323	1384.19995117188
680.055454660558	1386.19995117188
680.792077827172	1388
681.528609506116	1382.80004882813
682.265049705331	1386
683.001398432759	1372
683.737655696349	1363.59997558594
684.47382150404	1370.80004882813
685.20989586378	1369.59997558594
685.945878783503	1370.19995117188
686.68177027116	1396.40002441406
687.417570334688	1369
688.153278982032	1382.40002441406
688.888896221129	1367.19995117188
689.624422059921	1367.80004882813
690.359856506349	1365.59997558594
691.095199568354	1362.59997558594
691.830451253874	1373.40002441406
692.565611570844	1365.80004882813
693.300680527212	1381.19995117188
694.03565813091	1386
694.770544389877	1387.80004882813
695.505339312053	1393
696.240042905372	1383.80004882813
696.974655177772	1395.80004882813
697.70917613719	1390.40002441406
698.443605791561	1393.19995117188
699.177944148826	1399.40002441406
699.912191216909	1393
700.646347003755	1384.40002441406
701.380411517295	1386
702.114384765465	1390.80004882813
702.848266756195	1390.40002441406
703.582057497421	1399
704.315756997074	1389.40002441406
705.049365263089	1393.59997558594
705.782882303399	1390.59997558594
706.516308125936	1400.59997558594
707.249642738626	1383.59997558594
707.982886149403	1378.40002441406
708.716038366204	1387.59997558594
709.449099396949	1380.19995117188
710.182069249577	1381.80004882813
710.914947932009	1376.40002441406
711.647735452181	1381.80004882813
712.380431818022	1389.19995117188
713.113037037454	1376.19995117188
713.845551118411	1379.40002441406
714.577974068818	1390.59997558594
715.310305896604	1386
716.042546609694	1394
716.774696216013	1378
717.506754723493	1385
718.238722140053	1372
718.970598473624	1380.80004882813
719.702383732127	1394.19995117188
720.43407792349	1401.80004882813
721.165681055634	1398.80004882813
721.897193136486	1409.40002441406
722.628614173966	1403.19995117188
723.359944175997	1412.80004882813
724.091183150505	1394.59997558594
724.822331105412	1400.59997558594
725.553388048638	1418.40002441406
726.284353988106	1425.59997558594
727.015228931734	1417.40002441406
727.746012887449	1406.59997558594
728.476705863162	1399.59997558594
729.207307866803	1400.80004882813
729.937818906289	1387.19995117188
730.668238989535	1375
731.398568124459	1384
732.128806318986	1389.40002441406
732.858953581034	1386.59997558594
733.589009918514	1376.59997558594
734.318975339348	1392.40002441406
735.048849851452	1389.80004882813
735.778633462744	1379.80004882813
736.508326181137	1390.40002441406
737.237928014549	1388.80004882813
737.967438970897	1383.59997558594
738.696859058095	1382
739.426188284054	1377
740.155426656692	1373.40002441406
740.884574183922	1371.59997558594
741.613630873659	1384.40002441406
742.342596733815	1382
743.071471772302	1404.59997558594
743.800255997034	1407
744.528949415921	1387
745.257552036877	1403.40002441406
745.986063867811	1391.59997558594
746.714484916638	1379
747.442815191261	1373.59997558594
748.171054699597	1382.80004882813
748.899203449554	1387
749.627261449039	1395.59997558594
750.355228705966	1403.40002441406
751.083105228239	1407.59997558594
751.810891023765	1391.59997558594
752.538586100459	1407.40002441406
753.266190466218	1403.80004882813
753.99370412896	1408.40002441406
754.721127096582	1412.19995117188
755.448459377	1398.80004882813
756.175700978114	1402.80004882813
756.902851907828	1393.59997558594
757.629912174055	1402.19995117188
758.356881784688	1399.40002441406
759.083760747639	1403.40002441406
759.810549070817	1398
760.537246762113	1407.80004882813
761.263853829442	1402.80004882813
761.990370280698	1402.19995117188
762.716796123791	1419.80004882813
763.443131366618	1415.19995117188
764.169376017082	1416.40002441406
764.895530083085	1429.59997558594
765.621593572527	1436.59997558594
766.347566493312	1432.80004882813
767.073448853336	1445
767.799240660502	1459.59997558594
768.524941922707	1452.59997558594
769.250552647854	1466.40002441406
769.976072843836	1455.59997558594
770.701502518551	1467.19995117188
771.426841679905	1461.59997558594
772.152090335793	1467.80004882813
772.877248494107	1478.59997558594
773.602316162747	1491
774.327293349609	1497
775.052180062592	1503.40002441406
775.776976309589	1508
776.501682098496	1490.80004882813
777.226297437206	1485.19995117188
777.950822333616	1473.19995117188
778.675256795621	1456.59997558594
779.399600831111	1469.40002441406
780.123854447983	1447.59997558594
780.84801765413	1456.59997558594
781.572090457441	1445.59997558594
782.296072865811	1427.59997558594
783.019964887131	1426.80004882813
783.743766529297	1416
784.467477800194	1417
785.191098707719	1415.19995117188
785.914629259756	1398
786.638069464194	1392.59997558594
787.361419328932	1386.80004882813
788.084678861852	1379
788.807848070845	1385.19995117188
789.530926963798	1392
790.253915548602	1401
790.976813833144	1423.19995117188
791.699621825307	1406
792.422339532986	1416.80004882813
793.144966964061	1405.80004882813
793.86750412642	1396.59997558594
794.589951027946	1399.19995117188
795.312307676536	1401.59997558594
796.03457408006	1385.59997558594
796.756750246417	1385.80004882813
797.478836183477	1390.19995117188
798.200831899137	1381.80004882813
798.92273740127	1399.59997558594
799.644552697769	1408.19995117188
800.36627779651	1397.40002441406
801.087912705374	1403.59997558594
801.809457432251	1406.19995117188
802.530911985017	1411.80004882813
803.252276371558	1401.80004882813
803.973550599748	1404.80004882813
804.694734677472	1398.80004882813
805.415828612611	1406.19995117188
806.136832413045	1407.59997558594
806.857746086646	1415.19995117188
807.578569641305	1408.59997558594
808.299303084892	1414.40002441406
809.019946425289	1415.19995117188
809.740499670372	1412.19995117188
810.460962828022	1406.59997558594
811.181335906114	1402.19995117188
811.901618912524	1409.59997558594
812.621811855131	1403.19995117188
813.341914741809	1405.40002441406
814.061927580433	1407
814.781850378881	1396.59997558594
815.501683145025	1409.80004882813
816.221425886743	1408.80004882813
816.941078611903	1421.40002441406
817.660641328387	1412.40002441406
818.380114044065	1398.40002441406
819.099496766808	1397.59997558594
819.818789504492	1392.19995117188
820.53799226499	1407.40002441406
821.257105056168	1397.19995117188
821.976127885904	1407.80004882813
822.695060762064	1409.59997558594
823.413903692525	1398.80004882813
824.132656685151	1385
824.851319747817	1377.59997558594
825.569892888388	1366.40002441406
826.288376114739	1388.80004882813
827.006769434737	1394.40002441406
827.725072856249	1409.40002441406
828.443286387142	1413
829.161410035285	1408
829.87944380855	1410.40002441406
830.597387714798	1412.59997558594
831.315241761898	1409.40002441406
832.033005957715	1419.80004882813
832.750680310119	1419.19995117188
833.468264826969	1412.80004882813
834.18575951614	1399.40002441406
834.903164385486	1384
835.620479442878	1385.80004882813
836.337704696181	1371.80004882813
837.054840153255	1378.59997558594
837.771885821962	1379.40002441406
838.488841710172	1382
839.20570782574	1392
839.922484176531	1384.19995117188
840.639170770409	1400
841.355767615231	1383.80004882813
842.072274718864	1389.80004882813
842.788692089164	1401.40002441406
843.505019733993	1388.59997558594
844.221257661209	1380
844.937405878676	1391.19995117188
845.65346439425	1385.40002441406
846.369433215789	1385.80004882813
847.085312351156	1385.80004882813
847.801101808205	1391.40002441406
848.516801594793	1401
849.232411718781	1391.80004882813
849.947932188021	1393.19995117188
850.663363010376	1399
851.378704193698	1395.59997558594
852.093955745842	1394.40002441406
852.809117674669	1389
853.524189988028	1395
854.239172693778	1389
854.954065799768	1373.59997558594
855.668869313857	1378.19995117188
856.383583243899	1379.59997558594
857.098207597743	1374.19995117188
857.812742383246	1382.19995117188
858.527187608255	1400.59997558594
859.241543280628	1403.80004882813
859.955809408218	1384
860.669985998868	1376.19995117188
861.384073060437	1373.59997558594
862.098070600772	1370.80004882813
862.811978627724	1379.59997558594
863.52579714914	1367.40002441406
864.239526172873	1374.19995117188
864.953165706776	1376.40002441406
865.666715758687	1377.80004882813
866.380176336464	1386.19995117188
867.093547447951	1383.80004882813
867.806829100996	1378
868.520021303444	1380.80004882813
869.233124063149	1375.80004882813
869.94613738795	1371.80004882813
870.659061285693	1369.59997558594
871.37189576423	1377.40002441406
872.084640831403	1388.59997558594
872.797296495057	1382.40002441406
873.509862763039	1395.59997558594
874.22233964319	1389.19995117188
874.934727143353	1404.19995117188
875.647025271374	1401.40002441406
876.359234035097	1398.80004882813
877.071353442361	1392.40002441406
877.783383501015	1393
878.495324218895	1396.80004882813
879.207175603844	1390.59997558594
879.918937663705	1380.40002441406
880.630610406318	1378.80004882813
881.342193839524	1366.40002441406
882.053687971161	1361.80004882813
882.765092809069	1371.80004882813
883.476408361091	1368.59997558594
884.187634635066	1366.40002441406
884.898771638828	1364.80004882813
885.609819380221	1360.80004882813
886.320777867076	1385.19995117188
887.031647107236	1372.80004882813
887.742427108536	1402
888.453117878816	1389.59997558594
889.16371942591	1401.19995117188
889.874231757652	1405
890.584654881883	1401.40002441406
891.294988806434	1399.80004882813
892.005233539141	1405
892.715389087837	1402
893.42545546036	1401.19995117188
894.135432664543	1400
894.845320708216	1394.40002441406
895.555119599216	1390.80004882813
896.264829345375	1384.19995117188
896.974449954526	1372.19995117188
897.683981434496	1373.40002441406
898.393423793125	1380
899.102777038235	1362
899.812041177664	1362.59997558594
900.521216219239	1369.40002441406
901.230302170793	1361.80004882813
901.939299040155	1364.40002441406
902.64820683515	1353.80004882813
903.357025563612	1360.19995117188
904.065755233368	1357
904.774395852247	1361.40002441406
905.482947428076	1373.59997558594
906.191409968682	1372
906.899783481897	1388.19995117188
907.608067975538	1379.40002441406
908.316263457443	1394.80004882813
909.02436993543	1376
909.732387417327	1377
910.440315910959	1370.19995117188
911.148155424154	1385
911.855905964731	1388.40002441406
912.563567540521	1374
913.271140159339	1381.80004882813
913.978623829017	1387.40002441406
914.686018557374	1379.59997558594
915.393324352237	1385.80004882813
916.100541221421	1389.80004882813
916.807669172752	1409
917.514708214054	1406.80004882813
918.221658353142	1404.80004882813
918.928519597843	1408.59997558594
919.635291955976	1401
920.341975435358	1388.80004882813
921.048570043813	1386.40002441406
921.75507578916	1391.59997558594
922.461492679212	1393.19995117188
923.167820721795	1395.40002441406
923.874059924726	1407.40002441406
924.58021029582	1406
925.286271842893	1393
925.992244573769	1413.80004882813
926.698128496262	1411.80004882813
927.403923618184	1400.40002441406
928.109629947355	1397.40002441406
928.815247491593	1392.40002441406
929.520776258708	1391.19995117188
930.226216256519	1385.40002441406
930.931567492841	1388.80004882813
931.636829975482	1367.19995117188
932.342003712263	1384.19995117188
933.047088710995	1395.80004882813
933.752084979491	1392
934.456992525564	1383.59997558594
935.161811357024	1402.40002441406
935.866541481688	1389.80004882813
936.571182907363	1389.59997558594
937.275735641861	1391.59997558594
937.980199692995	1368.59997558594
938.684575068572	1364
939.388861776411	1353.19995117188
940.093059824311	1353
940.797169220085	1352.59997558594
941.501189971544	1355.80004882813
942.205122086495	1352.19995117188
942.908965572751	1367
943.612720438111	1374.59997558594
944.316386690391	1366.80004882813
945.019964337391	1371.59997558594
945.723453386924	1372.59997558594
946.426853846795	1370.19995117188
947.130165724808	1374.80004882813
947.83338902877	1359.59997558594
948.536523766488	1365.59997558594
949.239569945764	1356
949.942527574402	1355
950.64539666021	1374.80004882813
951.348177210993	1363.19995117188
952.050869234548	1361.80004882813
952.753472738683	1361.19995117188
953.455987731199	1364
954.158414219898	1368
954.860752212587	1383.19995117188
955.563001717061	1384.40002441406
956.265162741124	1371.80004882813
956.967235292576	1385.59997558594
957.669219379224	1372.40002441406
958.371115008857	1378.80004882813
959.072922189283	1364.59997558594
959.774640928301	1370
960.476271233708	1378.59997558594
961.177813113301	1360.59997558594
961.879266574882	1367.40002441406
962.580631626248	1367.80004882813
963.281908275194	1361.59997558594
963.98309652952	1370.19995117188
964.684196397022	1371.80004882813
965.3852078855	1371
966.086131002745	1378.80004882813
966.786965756555	1380.80004882813
967.487712154726	1384.40002441406
968.188370205055	1383
968.888939915331	1389.40002441406
969.589421293352	1375.80004882813
970.289814346909	1370
970.990119083801	1357.40002441406
971.690335511819	1352.19995117188
972.39046363875	1352.59997558594
973.090503472398	1355.59997558594
973.790455020545	1367.80004882813
974.490318290987	1370.19995117188
975.190093291516	1372.59997558594
975.889780029923	1360
976.589378513998	1369.80004882813
977.288888751527	1359.40002441406
977.988310750308	1354.80004882813
978.687644518122	1347.19995117188
979.386890062767	1359.19995117188
980.086047392025	1351
980.785116513689	1359.59997558594
981.484097435542	1350.40002441406
982.182990165377	1366
982.88179471098	1349.80004882813
983.580511080137	1358.19995117188
984.279139280632	1357
984.977679320253	1353.80004882813
985.67613120679	1356
986.374494948027	1360.40002441406
987.072770551745	1350
987.770958025731	1355.80004882813
988.469057377772	1354
989.167068615649	1347.59997558594
989.864991747145	1344.40002441406
990.562826780047	1343.80004882813
991.260573722134	1342.19995117188
991.958232581195	1335
992.655803365003	1329.19995117188
993.353286081346	1340.19995117188
994.050680738006	1340
994.74798734276	1349
995.44520590339	1336.80004882813
996.142336427681	1338.40002441406
996.839378923407	1342.59997558594
997.536333398348	1345
998.233199860289	1356.80004882813
998.929978317004	1362
999.626668776274	1349
1000.32327124587	1340.40002441406
1001.01978573359	1334.59997558594
1001.71621224718	1340.80004882813
1002.41255079445	1340
1003.10880138315	1332.80004882813
1003.80496402107	1330.19995117188
1004.50103871599	1336.19995117188
1005.19702547567	1330.40002441406
1005.8929243079	1343.19995117188
1006.58873522045	1349.40002441406
1007.2844582211	1357
1007.98009331761	1373.80004882813
1008.67564051776	1370.40002441406
1009.37109982933	1371.19995117188
1010.06647126009	1371.80004882813
1010.7617548178	1366.80004882813
1011.45695051026	1375.19995117188
1012.15205834522	1368.40002441406
1012.84707833045	1366.40002441406
1013.54201047373	1369
1014.23685478284	1358.80004882813
1014.93161126553	1364.40002441406
1015.62627992959	1355.59997558594
1016.32086078277	1359.59997558594
1017.01535383285	1341.19995117188
1017.70975908761	1349.40002441406
1018.40407655479	1349.80004882813
1019.09830624219	1342.19995117188
1019.79244815755	1352.40002441406
1020.48650230866	1353
1021.18046870328	1357.40002441406
1021.87434734917	1360
1022.56813825411	1348.59997558594
1023.26184142584	1349.80004882813
1023.95545687216	1342.59997558594
1024.64898460082	1340.80004882813
1025.34242461957	1339.59997558594
1026.0357769362	1329.19995117188
1026.72904155846	1332
1027.42221849412	1334.59997558594
1028.11530775094	1327.59997558594
1028.80830933668	1334.19995117188
1029.50122325911	1324.40002441406
1030.19404952599	1335.19995117188
1030.88678814508	1337
1031.57943912414	1341.59997558594
1032.27200247093	1342
1032.96447819323	1345.59997558594
1033.65686629878	1337.80004882813
1034.34916679534	1323.19995117188
1035.04137969068	1342.59997558594
1035.73350499256	1342.59997558594
1036.42554270874	1344.80004882813
1037.11749284697	1343.59997558594
1037.80935541501	1344.80004882813
1038.50113042062	1336
1039.19281787156	1338.59997558594
1039.88441777559	1347.40002441406
1040.57593014046	1337.59997558594
1041.26735497393	1342.40002441406
1041.95869228376	1334.80004882813
1042.6499420777	1331.59997558594
1043.3411043635	1326.59997558594
1044.03217914893	1318
1044.72316644174	1323.40002441406
1045.41406624968	1329.59997558594
1046.1048785805	1318.59997558594
1046.79560344197	1319.19995117188
1047.48624084182	1315.59997558594
1048.17679078783	1315.19995117188
1048.86725328774	1324.80004882813
1049.55762834929	1328
1050.24791598025	1328.40002441406
1050.93811618837	1331.19995117188
1051.62822898139	1316.80004882813
1052.31825436707	1325.80004882813
1053.00819235315	1334.80004882813
1053.6980429474	1330
1054.38780615755	1320.19995117188
1055.07748199136	1316.80004882813
1055.76707045658	1324.19995117188
1056.45657156095	1317.40002441406
1057.14598531222	1314.80004882813
1057.83531171814	1335
1058.52455078646	1335
1059.21370252494	1327.59997558594
1059.90276694129	1325
1060.5917440433	1319.59997558594
1061.28063383868	1321.19995117188
1061.9694363352	1315.80004882813
1062.65815154059	1324.80004882813
1063.34677946261	1326.19995117188
1064.03532010899	1324.59997558594
1064.72377348748	1317.40002441406
1065.41213960583	1333.80004882813
1066.10041847177	1337.19995117188
1066.78861009306	1346.19995117188
1067.47671447743	1351.59997558594
1068.16473163263	1344
1068.85266156639	1341.59997558594
1069.54050428647	1342.59997558594
1070.2282598006	1329.40002441406
1070.91592811652	1338.80004882813
1071.60350924198	1339.80004882813
1072.29100318471	1319.80004882813
1072.97840995245	1321.40002441406
1073.66572955295	1319.59997558594
1074.35296199394	1309.80004882813
1075.04010728316	1317.80004882813
1075.72716542836	1314.80004882813
1076.41413643726	1307.40002441406
1077.10102031761	1310.40002441406
1077.78781707715	1309.19995117188
1078.4745267236	1318.40002441406
1079.16114926471	1304
1079.84768470822	1317.19995117188
1080.53413306185	1323
1081.22049433336	1328.80004882813
1081.90676853046	1316.59997558594
1082.5929556609	1320.80004882813
1083.27905573241	1311.19995117188
1083.96506875272	1311.59997558594
1084.65099472957	1313
1085.3368336707	1313.19995117188
1086.02258558383	1315.59997558594
1086.70825047669	1316.59997558594
1087.39382835703	1304.80004882813
1088.07931923257	1316.19995117188
1088.76472311104	1315
1089.45004000018	1334.59997558594
1090.13526990771	1330.40002441406
1090.82041284137	1319.40002441406
1091.50546880889	1310.40002441406
1092.19043781799	1316.59997558594
1092.87531987642	1321.40002441406
1093.56011499188	1304.80004882813
1094.24482317212	1299.59997558594
1094.92944442486	1301.19995117188
1095.61397875783	1316.19995117188
1096.29842617876	1311.19995117188
1096.98278669537	1306.40002441406
1097.6670603154	1320.80004882813
1098.35124704656	1309.19995117188
1099.03534689659	1320.19995117188
1099.71935987322	1307.59997558594
1100.40328598416	1313.19995117188
1101.08712523713	1320.19995117188
1101.77087763988	1319.19995117188
1102.45454320012	1312.19995117188
1103.13812192557	1318.59997558594
1103.82161382396	1299.40002441406
1104.50501890301	1303
1105.18833717045	1305.80004882813
1105.87156863399	1303.40002441406
1106.55471330137	1311.59997558594
1107.2377711803	1309
1107.9207422785	1315.59997558594
1108.60362660369	1313.59997558594
1109.2864241636	1311
1109.96913496594	1301.19995117188
1110.65175901844	1313.40002441406
1111.33429632882	1310.59997558594
1112.01674690479	1315
1112.69911075408	1308.59997558594
1113.38138788439	1312.80004882813
1114.06357830346	1324.19995117188
1114.745682019	1318
1115.42769903872	1327.19995117188
1116.10962937035	1350.19995117188
1116.7914730216	1341.59997558594
1117.47323000018	1339
1118.15490031382	1333
1118.83648397022	1328.80004882813
1119.51798097712	1326.80004882813
1120.1993913422	1324
1120.88071507321	1347.80004882813
1121.56195217784	1337.80004882813
1122.24310266381	1341.80004882813
1122.92416653884	1336.40002441406
1123.60514381064	1338.80004882813
1124.28603448692	1332.80004882813
1124.9668385754	1332.80004882813
1125.64755608378	1332
1126.32818701978	1333.80004882813
1127.00873139111	1332.19995117188
1127.68918920548	1331.40002441406
1128.3695604706	1332.59997558594
1129.04984519419	1331.59997558594
1129.73004338394	1319
1130.41015504758	1329
1131.09018019281	1327
1131.77011882734	1313.59997558594
1132.44997095888	1320.59997558594
1133.12973659514	1309.80004882813
1133.80941574381	1311.40002441406
1134.48900841263	1302.59997558594
1135.16851460927	1305
1135.84793434147	1295
1136.52726761692	1299.40002441406
1137.20651444333	1289.59997558594
1137.8856748284	1295
1138.56474877984	1289
1139.24373630536	1287.80004882813
1139.92263741265	1294.40002441406
1140.60145210943	1292.19995117188
1141.28018040339	1299.59997558594
1141.95882230225	1301.19995117188
1142.6373778137	1310.59997558594
1143.31584694545	1305.59997558594
1143.99422970519	1309.59997558594
1144.67252610064	1307.59997558594
1145.35073613949	1302.59997558594
1146.02885982944	1298.80004882813
1146.7068971782	1288.19995117188
1147.38484819347	1299.19995117188
1148.06271288294	1276
1148.74049125432	1270.19995117188
1149.41818331531	1288.80004882813
1150.0957890736	1286.19995117188
1150.77330853689	1303.19995117188
1151.45074171289	1287.19995117188
1152.12808860928	1277.80004882813
1152.80534923378	1288.59997558594
1153.48252359407	1284.59997558594
1154.15961169786	1290.40002441406
1154.83661355283	1292.59997558594
1155.51352916669	1290.19995117188
1156.19035854713	1295.80004882813
1156.86710170185	1297.80004882813
1157.54375863855	1295.19995117188
1158.22032936491	1289.40002441406
1158.89681388863	1283.40002441406
1159.57321221741	1289.40002441406
1160.24952435894	1289.80004882813
1160.92575032092	1291
1161.60189011103	1313.80004882813
1162.27794373697	1311.80004882813
1162.95391120644	1294.59997558594
1163.62979252712	1303.59997558594
1164.3055877067	1321.80004882813
1164.98129675288	1320.59997558594
1165.65691967336	1322.80004882813
1166.33245647581	1333
1167.00790716792	1325
1167.6832717574	1320.59997558594
1168.35855025193	1325.80004882813
1169.0337426592	1307.80004882813
1169.70884898689	1320
1170.3838692427	1320.19995117188
1171.05880343431	1327.80004882813
1171.73365156941	1317
1172.40841365569	1322.40002441406
1173.08308970083	1318.80004882813
1173.75767971253	1334
1174.43218369847	1326.80004882813
1175.10660166633	1325.80004882813
1175.7809336238	1328
1176.45517957857	1337.80004882813
1177.12933953832	1341.59997558594
1177.80341351073	1333
1178.47740150349	1327.59997558594
1179.15130352429	1329.59997558594
1179.8251195808	1317.40002441406
1180.49884968071	1318.19995117188
1181.1724938317	1311.19995117188
1181.84605204145	1324.19995117188
1182.51952431766	1333.40002441406
1183.19291066799	1341.19995117188
1183.86621110013	1348.19995117188
1184.53942562176	1353.80004882813
1185.21255424057	1352
1185.88559696422	1351.59997558594
1186.55855380041	1349
1187.2314247568	1354.40002441406
1187.90420984109	1351.59997558594
1188.57690906095	1345.59997558594
1189.24952242405	1336
1189.92204993808	1323.59997558594
1190.59449161071	1341.59997558594
1191.26684744962	1333.80004882813
1191.93911746249	1333
1192.61130165699	1331.59997558594
1193.28340004081	1326.40002441406
1193.95541262161	1324.80004882813
1194.62733940707	1318.80004882813
1195.29918040487	1329.40002441406
1195.97093562269	1321.80004882813
1196.64260506819	1320.59997558594
1197.31418874905	1320
1197.98568667295	1320.80004882813
1198.65709884755	1317
1199.32842528053	1325
1199.99966597957	1323.80004882813
1200.67082095234	1339.80004882813
1201.3418902065	1316.40002441406
1202.01287374974	1329
1202.68377158971	1317.40002441406
1203.3545837341	1313.80004882813
1204.02531019057	1311.80004882813
1204.6959509668	1301.80004882813
1205.36650607045	1297.40002441406
1206.03697550919	1294.19995117188
1206.70735929069	1289
1207.37765742263	1287.59997558594
1208.04786991266	1292
1208.71799676846	1293.19995117188
1209.38803799769	1297.40002441406
1210.05799360803	1286.40002441406
1210.72786360714	1300.59997558594
1211.39764800268	1295.59997558594
1212.06734680233	1295.80004882813
1212.73696001375	1301.59997558594
1213.4064876446	1294.40002441406
1214.07592970255	1310.19995117188
1214.74528619526	1309.80004882813
1215.4145571304	1310
1216.08374251564	1309
1216.75284235863	1303.80004882813
1217.42185666704	1296.59997558594
1218.09078544854	1290
1218.75962871078	1295
1219.42838646143	1277.40002441406
1220.09705870816	1276.19995117188
1220.76564545861	1282.40002441406
1221.43414672046	1284
1222.10256250136	1284.40002441406
1222.77089280898	1289
1223.43913765098	1297.80004882813
1224.107297035	1285
1224.77537096873	1284.59997558594
1225.44335945981	1285.19995117188
1226.1112625159	1301
1226.77908014467	1292.80004882813
1227.44681235376	1278.59997558594
1228.11445915085	1274.80004882813
1228.78202054357	1285.19995117188
1229.44949653961	1291.80004882813
1230.11688714659	1299.40002441406
1230.7841923722	1291.19995117188
1231.45141222407	1287.40002441406
1232.11854670988	1294.40002441406
1232.78559583726	1294
1233.45255961388	1294
1234.1194380474	1297.59997558594
1234.78623114546	1295.40002441406
1235.45293891572	1290.80004882813
1236.11956136583	1295.59997558594
1236.78609850345	1293.59997558594
1237.45255033623	1282
1238.11891687182	1281.40002441406
1238.78519811788	1264.19995117188
1239.45139408205	1269.40002441406
1240.11750477198	1257.40002441406
1240.78353019534	1266.19995117188
1241.44947035976	1266.40002441406
1242.11532527291	1276.59997558594
1242.78109494242	1275.40002441406
1243.44677937595	1286.59997558594
1244.11237858115	1286.59997558594
1244.77789256567	1276
1245.44332133715	1270.80004882813
1246.10866490325	1271.80004882813
1246.7739232716	1269.40002441406
1247.43909644987	1257.19995117188
1248.10418444569	1256.19995117188
1248.76918726671	1261.40002441406
1249.43410492059	1250.80004882813
1250.09893741496	1258.59997558594
1250.76368475747	1254.80004882813
1251.42834695576	1259.80004882813
1252.09292401749	1255
1252.75741595029	1253.80004882813
1253.42182276182	1260.59997558594
1254.08614445971	1259
1254.75038105161	1270.80004882813
1255.41453254515	1282.59997558594
1256.07859894799	1279
1256.74258026777	1277.19995117188
1257.40647651213	1289
1258.0702876887	1277.80004882813
1258.73401380514	1279.19995117188
1259.39765486908	1278.59997558594
1260.06121088817	1269
1260.72468187004	1273.80004882813
1261.38806782233	1276.59997558594
1262.05136875269	1275.19995117188
1262.71458466875	1273.19995117188
1263.37771557815	1269.40002441406
1264.04076148854	1286.59997558594
1264.70372240753	1266
1265.3665983428	1272.59997558594
1266.02938930195	1264
1266.69209529263	1256
1267.35471632249	1258.40002441406
1268.01725239914	1253.59997558594
1268.67970353024	1250.40002441406
1269.34206972342	1260
1270.00435098631	1265.80004882813
1270.66654732655	1268.80004882813
1271.32865875177	1263.40002441406
1271.9906852696	1276.40002441406
1272.65262688768	1268.40002441406
1273.31448361365	1256.59997558594
1273.97625545514	1258.80004882813
1274.63794241978	1267
1275.2995445152	1275.59997558594
1275.96106174903	1248.59997558594
1276.62249412892	1256.80004882813
1277.28384166248	1264.59997558594
1277.94510435735	1266.19995117188
1278.60628222116	1263.40002441406
1279.26737526155	1264.80004882813
1279.92838348613	1269.19995117188
1280.58930690255	1269.40002441406
1281.25014551842	1277.80004882813
1281.91089934139	1280
1282.57156837907	1279
1283.2321526391	1274
1283.89265212911	1259.19995117188
1284.55306685671	1265.80004882813
1285.21339682955	1248.59997558594
1285.87364205525	1244.19995117188
1286.53380254142	1257.80004882813
1287.19387829571	1245.40002441406
1287.85386932573	1249.40002441406
1288.51377563911	1262.40002441406
1289.17359724348	1269
1289.83333414646	1266.19995117188
1290.49298635567	1267.59997558594
1291.15255387874	1264.19995117188
1291.8120367233	1268.59997558594
1292.47143489696	1266.40002441406
1293.13074840736	1278
1293.7899772621	1266.80004882813
1294.44912146882	1267.80004882813
1295.10818103513	1274.80004882813
1295.76715596866	1271.59997558594
1296.42604627704	1267.59997558594
1297.08485196787	1272.80004882813
1297.74357304878	1287.59997558594
1298.4022095274	1291
1299.06076141134	1296.80004882813
1299.71922870821	1283.59997558594
1300.37761142565	1279
1301.03590957126	1278.80004882813
1301.69412315268	1284.19995117188
1302.3522521775	1283.40002441406
1303.01029665336	1281.80004882813
1303.66825658787	1279.19995117188
1304.32613198865	1275.40002441406
1304.98392286332	1288.40002441406
1305.64162921948	1298
1306.29925106476	1290.19995117188
1306.95678840677	1283.40002441406
1307.61424125312	1289.59997558594
1308.27160961145	1291
1308.92889348934	1295.80004882813
1309.58609289443	1296.59997558594
1310.24320783432	1301.19995117188
1310.90023831664	1299.59997558594
1311.55718434898	1300.19995117188
1312.21404593897	1294
1312.87082309421	1295.59997558594
1313.52751582233	1294.59997558594
1314.18412413092	1290.40002441406
1314.84064802761	1288.80004882813
1315.49708752	1301
1316.1534426157	1287.40002441406
1316.80971332233	1291.80004882813
1317.46589964749	1289.40002441406
1318.1220015988	1291
1318.77801918386	1282.19995117188
1319.43395241028	1281.19995117188
1320.08980128567	1277.19995117188
1320.74556581764	1285.80004882813
1321.4012460138	1276
1322.05684188176	1296.80004882813
1322.71235342911	1279.80004882813
1323.36778066347	1271.19995117188
1324.02312359245	1275.19995117188
1324.67838222365	1271.59997558594
1325.33355656468	1276.40002441406
1325.98864662314	1259.40002441406
1326.64365240663	1264.59997558594
1327.29857392277	1258.80004882813
1327.95341117915	1257.59997558594
1328.60816418339	1262.59997558594
1329.26283294308	1258.80004882813
1329.91741746582	1253
1330.57191775923	1252.19995117188
1331.2263338309	1257.40002441406
1331.88066568843	1267.40002441406
1332.53491333943	1274.19995117188
1333.1890767915	1269.59997558594
1333.84315605224	1276.19995117188
1334.49715112925	1276.19995117188
1335.15106203013	1279.40002441406
1335.80488876249	1277.19995117188
1336.45863133391	1281.80004882813
1337.112289752	1280
1337.76586402437	1273.19995117188
1338.4193541586	1274
1339.0727601623	1271
1339.72608204306	1267.40002441406
1340.37931980849	1268.80004882813
1341.03247346617	1274.59997558594
1341.68554302372	1266
1342.33852848871	1254.19995117188
1342.99142986876	1254.19995117188
1343.64424717145	1258
1344.29698040438	1270.40002441406
1344.94962957515	1264
1345.60219469135	1268
1346.25467576058	1276.80004882813
1346.90707279042	1274.19995117188
1347.55938578848	1279.80004882813
1348.21161476235	1278.80004882813
1348.86375971962	1280.19995117188
1349.51582066787	1288.40002441406
1350.16779761472	1291
1350.81969056774	1285.59997558594
1351.47149953453	1291.59997558594
1352.12322452269	1289.40002441406
1352.77486553979	1297.80004882813
1353.42642259344	1306.40002441406
1354.07789569122	1307.59997558594
1354.72928484072	1302.59997558594
1355.38059004953	1309
1356.03181132525	1316.40002441406
1356.68294867545	1319
1357.33400210773	1309.59997558594
1357.98497162968	1313.80004882813
1358.63585724889	1315
1359.28665897294	1327.40002441406
1359.93737680942	1342.19995117188
1360.58801076591	1355.19995117188
1361.23856085001	1345.59997558594
1361.88902706929	1356.19995117188
1362.53940943135	1354
1363.18970794377	1350.80004882813
1363.83992261413	1343.19995117188
1364.49005345003	1350.59997558594
1365.14010045904	1343
1365.79006364874	1344
1366.43994302673	1337.80004882813
1367.08973860058	1335.40002441406
1367.73945037788	1323.80004882813
1368.38907836621	1318.19995117188
1369.03862257315	1316.59997558594
1369.68808300629	1307.59997558594
1370.3374596732	1302.19995117188
1370.98675258148	1301.19995117188
1371.63596173868	1296.80004882813
1372.28508715241	1288
1372.93412883024	1292.19995117188
1373.58308677974	1287.59997558594
1374.2319610085	1280.19995117188
1374.8807515241	1269.80004882813
1375.52945833412	1269.40002441406
1376.17808144612	1266.59997558594
1376.82662086771	1259.80004882813
1377.47507660644	1256.59997558594
1378.12344866989	1258.80004882813
1378.77173706565	1252.59997558594
1379.41994180129	1249
1380.06806288439	1260
1380.71610032252	1256
1381.36405412326	1247.19995117188
1382.01192429419	1253.80004882813
1382.65971084287	1249.80004882813
1383.30741377688	1251.40002441406
1383.95503310381	1239.80004882813
1384.60256883121	1244.40002441406
1385.25002096667	1248.40002441406
1385.89738951775	1252
1386.54467449204	1253.80004882813
1387.19187589709	1250.80004882813
1387.8389937405	1251.59997558594
1388.48602802982	1248.59997558594
1389.13297877262	1255.59997558594
1389.77984597649	1257.40002441406
1390.42662964899	1247.40002441406
1391.07332979768	1246.80004882813
1391.71994643015	1243.59997558594
1392.36647955395	1238.19995117188
1393.01292917667	1248.19995117188
1393.65929530586	1236.80004882813
1394.3055779491	1242.19995117188
1394.95177711395	1242
1395.59789280799	1240
1396.24392503877	1248.19995117188
1396.88987381387	1242.80004882813
1397.53573914086	1234.59997558594
1398.1815210273	1245
1398.82721948075	1239.40002441406
1399.47283450878	1234.19995117188
1400.11836611897	1239.19995117188
1400.76381431886	1234.80004882813
1401.40917911603	1224.40002441406
1402.05446051805	1214.40002441406
1402.69965853247	1220
1403.34477316686	1208.40002441406
1403.98980442878	1211.80004882813
1404.6347523258	1205.19995117188
1405.27961686548	1204.59997558594
1405.92439805538	1209.59997558594
1406.56909590306	1196.19995117188
1407.21371041608	1200.19995117188
1407.85824160202	1219.40002441406
1408.50268946841	1228.40002441406
1409.14705402284	1210.59997558594
1409.79133527285	1219
1410.43553322601	1213
1411.07964788987	1221.59997558594
1411.723679272	1222.19995117188
1412.36762737996	1226
1413.01149222129	1219.80004882813
1413.65527380357	1216.59997558594
1414.29897213435	1228.80004882813
1414.94258722118	1220.59997558594
1415.58611907163	1231.40002441406
1416.22956769325	1220.40002441406
1416.87293309359	1221.59997558594
1417.51621528021	1239
1418.15941426067	1231
1418.80253004253	1227.80004882813
1419.44556263333	1229.19995117188
1420.08851204063	1239.19995117188
1420.731378272	1232.59997558594
1421.37416133497	1234.19995117188
1422.0168612371	1228.59997558594
1422.65947798596	1227.59997558594
1423.30201158908	1229.59997558594
1423.94446205403	1228.19995117188
1424.58682938835	1240
1425.2291135996	1232.19995117188
1425.87131469532	1242.19995117188
1426.51343268308	1238.80004882813
1427.15546757042	1232.40002441406
1427.79741936488	1228.59997558594
1428.43928807403	1216.19995117188
1429.0810737054	1215.59997558594
1429.72277626656	1222.19995117188
1430.36439576504	1221
1431.00593220841	1221.59997558594
1431.64738560419	1214.19995117188
1432.28875595995	1227.19995117188
1432.93004328324	1218.80004882813
1433.57124758159	1215.80004882813
1434.21236886255	1210.19995117188
1434.85340713368	1220.59997558594
1435.49436240252	1227
1436.13523467661	1213.59997558594
1436.77602396349	1221.40002441406
1437.41673027073	1220.80004882813
1438.05735360585	1224.40002441406
1438.69789397641	1223.59997558594
1439.33835138994	1228.59997558594
1439.978725854	1226
1440.61901737612	1227.80004882813
1441.25922596385	1227
1441.89935162473	1227.59997558594
1442.53939436631	1229.19995117188
1443.17935419612	1226.59997558594
1443.81923112171	1229.80004882813
1444.45902515061	1229
1445.09873629038	1236.19995117188
1445.73836454854	1221.59997558594
1446.37790993265	1228.40002441406
1447.01737245024	1229
1447.65675210885	1217.19995117188
1448.29604891602	1212.40002441406
1448.93526287928	1219
1449.57439400618	1211.59997558594
1450.21344230426	1215.40002441406
1450.85240778105	1215.59997558594
1451.49129044409	1226.40002441406
1452.13009030092	1216.59997558594
1452.76880735907	1233.59997558594
1453.40744162608	1225.19995117188
1454.04599310949	1230
1454.68446181683	1235.59997558594
1455.32284775564	1236
1455.96115093345	1228.80004882813
1456.5993713578	1228.19995117188
1457.23750903623	1239.19995117188
1457.87556397626	1231.40002441406
1458.51353618543	1234.80004882813
1459.15142567127	1223.40002441406
1459.78923244132	1224.40002441406
1460.42695650311	1227.80004882813
1461.06459786417	1214.19995117188
1461.70215653203	1205.59997558594
1462.33963251423	1212
1462.97702581829	1209
1463.61433645175	1211.80004882813
1464.25156442214	1209.40002441406
1464.88870973699	1201.59997558594
1465.52577240382	1203.40002441406
1466.16275243017	1204
1466.79964982356	1209.40002441406
1467.43646459154	1203
1468.07319674161	1217
1468.70984628132	1207
1469.34641321818	1208.59997558594
1469.98289755974	1196.80004882813
1470.6192993135	1191.40002441406
1471.25561848701	1197.80004882813
1471.89185508779	1206.80004882813
1472.52800912336	1207.19995117188
1473.16408060124	1211.19995117188
1473.80006952897	1227.80004882813
1474.43597591407	1217.80004882813
1475.07179976406	1217.19995117188
1475.70754108647	1216.19995117188
1476.34319988883	1222.80004882813
1476.97877617865	1216.19995117188
1477.61426996345	1218.80004882813
1478.24968125077	1220.40002441406
1478.88501004812	1216.59997558594
1479.52025636303	1221.59997558594
1480.15542020302	1230.19995117188
1480.79050157561	1226.80004882813
1481.42550048832	1218
1482.06041694867	1224.19995117188
1482.69525096418	1217.80004882813
1483.33000254237	1209.19995117188
1483.96467169077	1224
1484.59925841689	1215
1485.23376272825	1211
1485.86818463237	1218.59997558594
1486.50252413677	1205.80004882813
1487.13678124896	1208.19995117188
1487.77095597646	1217
1488.4050483268	1210.59997558594
1489.03905830749	1212.59997558594
1489.67298592604	1207
1490.30683118996	1218.40002441406
1490.9405941068	1229.59997558594
1491.57427468403	1215.19995117188
1492.2078729292	1217.80004882813
1492.84138884981	1221.80004882813
1493.47482245338	1220.59997558594
1494.10817374742	1225.59997558594
1494.74144273944	1230.40002441406
1495.37462943696	1219.40002441406
1496.0077338475	1227.59997558594
1496.64075597856	1236.59997558594
1497.27369583765	1242.40002441406
1497.9065534323	1246.80004882813
1498.53932877001	1244.19995117188
1499.17202185829	1241.40002441406
1499.80463270465	1241
1500.43716131661	1238.19995117188
1501.06960770167	1244
1501.70197186735	1248
1502.33425382116	1256.19995117188
1502.96645357059	1250.59997558594
1503.59857112317	1257.19995117188
1504.23060648641	1235.80004882813
1504.8625596678	1236
1505.49443067486	1229.80004882813
1506.1262195151	1224.80004882813
1506.75792619602	1239.40002441406
1507.38955072513	1242.59997558594
1508.02109310993	1239.19995117188
1508.65255335794	1245.80004882813
1509.28393147666	1242.80004882813
1509.91522747359	1258.40002441406
1510.54644135624	1247.59997558594
1511.17757313212	1248.40002441406
1511.80862280872	1244.80004882813
1512.43959039356	1253.40002441406
1513.07047589413	1251.19995117188
1513.70127931795	1242.80004882813
1514.33200067251	1248.19995117188
1514.96263996531	1245.59997558594
1515.59319720386	1237.59997558594
1516.22367239567	1225.80004882813
1516.85406554822	1226.40002441406
1517.48437666903	1226.59997558594
1518.1146057656	1216.80004882813
1518.74475284542	1217.59997558594
1519.374817916	1203.80004882813
1520.00480098483	1221
1520.63470205942	1205
1521.26452114726	1210.19995117188
1521.89425825586	1213.80004882813
1522.52391339271	1211.19995117188
1523.15348656531	1205.19995117188
1523.78297778116	1209.80004882813
1524.41238704775	1197.80004882813
1525.04171437259	1207.40002441406
1525.67095976317	1213.80004882813
1526.30012322699	1195.59997558594
1526.92920477154	1191.59997558594
1527.55820440432	1195.80004882813
1528.18712213283	1183.80004882813
1528.81595796455	1180.59997558594
1529.44471190699	1176.19995117188
1530.07338396764	1180.19995117188
1530.70197415399	1199.19995117188
1531.33048247353	1181
1531.95890893377	1196.19995117188
1532.58725354219	1193.80004882813
1533.21551630629	1199
1533.84369723356	1198.80004882813
1534.47179633148	1202.19995117188
1535.09981360757	1211
1535.72774906929	1212.19995117188
1536.35560272415	1212.40002441406
1536.98337457963	1209.40002441406
1537.61106464323	1212.59997558594
1538.23867292243	1200.80004882813
1538.86619942473	1196
1539.49364415762	1192.40002441406
1540.12100712857	1207
1540.74828834509	1191.19995117188
1541.37548781466	1200.80004882813
1542.00260554478	1197.59997558594
1542.62964154291	1199.80004882813
1543.25659581655	1195
1543.8834683732	1201.80004882813
1544.51025922034	1196
1545.13696836544	1203.40002441406
1545.76359581601	1199.80004882813
1546.39014157952	1201
1547.01660566345	1203.80004882813
1547.64298807531	1199
1548.26928882255	1206.19995117188
1548.89550791269	1193
1549.52164535318	1192.80004882813
1550.14770115153	1189.19995117188
1550.77367531521	1187.59997558594
1551.39956785171	1185.59997558594
1552.0253787685	1183.59997558594
1552.65110807307	1183.59997558594
1553.2767557729	1178.59997558594
1553.90232187548	1180.19995117188
1554.52780638828	1175.80004882813
1555.15320931879	1177.80004882813
1555.77853067447	1176.19995117188
1556.40377046282	1187.19995117188
1557.02892869132	1187.19995117188
1557.65400536744	1183.40002441406
1558.27900049866	1181.40002441406
1558.90391409247	1178.40002441406
1559.52874615633	1177.80004882813
1560.15349669773	1176.59997558594
1560.77816572414	1184
1561.40275324305	1188.19995117188
1562.02725926192	1189.19995117188
1562.65168378824	1188
1563.27602682948	1186.40002441406
1563.90028839311	1185.59997558594
1564.52446848662	1191.19995117188
1565.14856711748	1198.40002441406
1565.77258429316	1192.59997558594
1566.39652002113	1197.40002441406
1567.02037430887	1198
1567.64414716387	1197.59997558594
1568.26783859357	1215.59997558594
1568.89144860547	1205.59997558594
1569.51497720703	1198.40002441406
1570.13842440573	1197
1570.76179020904	1204.80004882813
1571.38507462442	1201.40002441406
1572.00827765936	1204.59997558594
1572.63139932132	1208.59997558594
1573.25443961777	1203
1573.87739855618	1204.80004882813
1574.50027614402	1201.80004882813
1575.12307238877	1200
1575.74578729789	1201
1576.36842087885	1191.80004882813
1576.99097313912	1195.19995117188
1577.61344408616	1195.80004882813
1578.23583372745	1186.40002441406
1578.85814207046	1191.80004882813
1579.48036912264	1201
1580.10251489147	1190.59997558594
1580.72457938441	1183.19995117188
1581.34656260893	1186.80004882813
1581.9684645725	1184.40002441406
1582.59028528258	1173.80004882813
1583.21202474663	1167
1583.83368297212	1164.59997558594
1584.45525996652	1155.59997558594
1585.07675573728	1156.40002441406
1585.69817029188	1153
1586.31950363778	1152.40002441406
1586.94075578243	1147.80004882813
1587.5619267333	1157.40002441406
1588.18301649786	1157
1588.80402508357	1144.19995117188
1589.42495249788	1149.19995117188
1590.04579874826	1148.19995117188
1590.66656384217	1151.59997558594
1591.28724778707	1150.19995117188
1591.90785059042	1158
1592.52837225968	1160.59997558594
1593.14881280232	1159.80004882813
1593.76917222578	1161.19995117188
1594.38945053753	1163.19995117188
1595.00964774502	1143.40002441406
1595.62976385573	1158.40002441406
1596.24979887709	1152.40002441406
1596.86975281657	1164
1597.48962568164	1149
1598.10941747974	1150.19995117188
1598.72912821832	1143.80004882813
1599.34875790486	1146.19995117188
1599.9683065468	1147
1600.58777415159	1143.40002441406
1601.2071607267	1159.80004882813
1601.82646627958	1140
1602.44569081769	1153
1603.06483434846	1146.59997558594
1603.68389687937	1150.59997558594
1604.30287841786	1147.40002441406
1604.92177897139	1147.19995117188
1605.54059854741	1151.19995117188
1606.15933715337	1148
1606.77799479672	1143.40002441406
1607.39657148492	1149.59997558594
1608.01506722542	1143.19995117188
1608.63348202566	1148.19995117188
1609.2518158931	1146.19995117188
1609.87006883519	1149.19995117188
1610.48824085939	1152
1611.10633197312	1150.59997558594
1611.72434218386	1147.80004882813
1612.34227149904	1156.40002441406
1612.96011992612	1158.59997558594
1613.57788747254	1162
1614.19557414575	1156.80004882813
1614.8131799532	1145
1615.43070490234	1152.19995117188
1616.04814900061	1149.80004882813
1616.66551225545	1145.59997558594
1617.28279467433	1156.59997558594
1617.89999626467	1149.40002441406
1618.51711703393	1149.80004882813
1619.13415698955	1140.80004882813
1619.75111613898	1145.59997558594
1620.36799448966	1157.40002441406
1620.98479204903	1155
1621.60150882455	1149.19995117188
1622.21814482364	1152.19995117188
1622.83470005376	1154
1623.45117452235	1150.19995117188
1624.06756823685	1152
1624.6838812047	1150.40002441406
1625.30011343335	1149
1625.91626493022	1152
1626.53233570278	1150
1627.14832575845	1145.19995117188
1627.76423510468	1142.40002441406
1628.38006374891	1137.59997558594
1628.99581169857	1132.80004882813
1629.61147896111	1136.80004882813
1630.22706554397	1137.19995117188
1630.84257145457	1131
1631.45799670038	1136.59997558594
1632.07334128881	1138.80004882813
1632.6886052273	1121.80004882813
1633.3037885233	1130.80004882813
1633.91889118425	1128.80004882813
1634.53391321757	1119
1635.1488546307	1122.59997558594
1635.76371543108	1127.80004882813
1636.37849562616	1127.40002441406
1636.99319522335	1134.80004882813
1637.60781423009	1129.40002441406
1638.22235265383	1127.40002441406
1638.83681050198	1121.59997558594
1639.451187782	1133.40002441406
1640.0654845013	1140.40002441406
1640.67970066734	1145.59997558594
1641.29383628752	1149
1641.9078913693	1146.80004882813
1642.5218659201	1147.80004882813
1643.13575994735	1157.80004882813
1643.74957345849	1156.40002441406
1644.36330646094	1159.59997558594
1644.97695896213	1170.40002441406
1645.59053096951	1166
1646.20402249049	1164.40002441406
1646.8174335325	1169.40002441406
1647.43076410298	1163
1648.04401420935	1161.19995117188
1648.65718385905	1159.80004882813
1649.2702730595	1168
1649.88328181812	1173.59997558594
1650.49621014236	1171.80004882813
1651.10905803963	1169.40002441406
1651.72182551735	1164.59997558594
1652.33451258297	1155.59997558594
1652.9471192439	1156
1653.55964550757	1159.40002441406
1654.1720913814	1131.59997558594
1654.78445687283	1143.59997558594
1655.39674198926	1124.80004882813
1656.00894673814	1140.40002441406
1656.62107112688	1137.59997558594
1657.23311516291	1126.59997558594
1657.84507885365	1123.80004882813
1658.45696220652	1124.80004882813
1659.06876522895	1118.19995117188
1659.68048792835	1123.80004882813
1660.29213031217	1116.59997558594
1660.90369238779	1119.19995117188
1661.51517416267	1113.19995117188
1662.12657564421	1107.19995117188
1662.73789683984	1106.80004882813
1663.34913775697	1107.19995117188
1663.96029840303	1092.40002441406
1664.57137878544	1099.80004882813
1665.18237891161	1092
1665.79329878897	1099.19995117188
1666.40413842493	1090.80004882813
1667.01489782691	1092.59997558594
1667.62557700233	1091.19995117188
1668.2361759586	1083.80004882813
1668.84669470315	1083.80004882813
1669.4571332434	1084.40002441406
1670.06749158675	1087.19995117188
1670.67776974062	1089.80004882813
1671.28796771243	1095.80004882813
1671.8980855096	1096.59997558594
1672.50812313954	1090.40002441406
1673.11808060967	1095.59997558594
1673.72795792739	1099.80004882813
1674.33775510013	1093.19995117188
1674.9474721353	1095.40002441406
1675.55710904031	1093.19995117188
1676.16666582257	1086.19995117188
1676.7761424895	1082.19995117188
1677.38553904851	1077.59997558594
1677.99485550702	1078.19995117188
1678.60409187243	1083.40002441406
1679.21324815215	1078.40002441406
1679.8223243536	1076
1680.43132048419	1070.19995117188
1681.04023655132	1079.19995117188
1681.64907256241	1072.19995117188
1682.25782852487	1073.19995117188
1682.86650444611	1069
1683.47510033353	1074.19995117188
1684.08361619455	1067.80004882813
1684.69205203657	1065.40002441406
1685.300407867	1063.59997558594
1685.90868369325	1069.19995117188
1686.51687952272	1068
1687.12499536283	1077.80004882813
1687.73303122098	1071
1688.34098710457	1068.40002441406
1688.94886302101	1076.80004882813
1689.55665897772	1070.19995117188
1690.16437498208	1067.80004882813
1690.77201104152	1063.19995117188
1691.37956716342	1067.80004882813
1691.9870433552	1063.40002441406
1692.59443962426	1065
1693.20175597801	1059.80004882813
1693.80899242384	1059.19995117188
1694.41614896916	1058
1695.02322562138	1055.19995117188
1695.63022238789	1054
1696.23713927609	1060.59997558594
1696.8439762934	1056.19995117188
1697.4507334472	1062.19995117188
1698.05741074491	1065.19995117188
1698.66400819391	1071.19995117188
1699.27052580161	1065
1699.87696357542	1055.80004882813
1700.48332152272	1061.40002441406
1701.08959965092	1059
1701.69579796742	1055.80004882813
1702.30191647962	1056
1702.90795519491	1051.80004882813
1703.51391412069	1048.59997558594
1704.11979326437	1038.40002441406
1704.72559263332	1044
1705.33131223496	1037.40002441406
1705.93695207668	1053
1706.54251216588	1056.40002441406
1707.14799250994	1054.59997558594
1707.75339311628	1058.40002441406
1708.35871399227	1047.40002441406
1708.96395514532	1044.80004882813
1709.56911658282	1051.19995117188
