634.948122577771	1413.19995117188
635.690341530823	1419
636.43246851086	1433.40002441406
637.174503525845	1436.80004882813
637.916446583745	1431.80004882813
638.658297692538	1428.40002441406
639.400056860179	1408.59997558594
640.141724094637	1415.80004882813
640.883299403885	1424.40002441406
641.62478279588	1416.80004882813
642.366174278594	1416
643.107473859989	1414.40002441406
643.848681548029	1414
644.589797350679	1419.80004882813
645.330821275901	1402
646.071753331665	1412.40002441406
646.812593525922	1415
647.553341866646	1423.80004882813
648.293998361798	1410.40002441406
649.03456301933	1413.40002441406
649.775035847216	1414.40002441406
650.515416853409	1412
651.255706045874	1412.19995117188
651.995903432568	1413.19995117188
652.736009021453	1423.19995117188
653.476022820486	1423.40002441406
654.215944837629	1435.19995117188
654.955775080842	1439.80004882813
655.695513558081	1448.19995117188
656.435160277301	1441.59997558594
657.174715246465	1433
657.914178473527	1428.19995117188
658.653549966449	1430.19995117188
659.392829733176	1436.40002441406
660.132017781678	1445.59997558594
660.871114119901	1444.80004882813
661.610118755803	1453.19995117188
662.349031697343	1456.19995117188
663.087852952468	1477
663.826582529139	1463.59997558594
664.565220435305	1452
665.30376667892	1456.40002441406
666.04222126794	1439.40002441406
666.780584210316	1436.59997558594
667.518855514	1443.59997558594
668.25703518694	1444.80004882813
668.995123237096	1444
669.733119672413	1457.80004882813
670.471024500842	1445.80004882813
671.208837730333	1453.19995117188
671.946559368839	1451.40002441406
672.684189424308	1441.59997558594
673.421727904689	1449.19995117188
674.159174817929	1454.19995117188
674.896530171977	1457.19995117188
675.633793974786	1451.80004882813
676.370966234295	1458
677.108046958461	1477.80004882813
677.845036155219	1480.40002441406
678.581933832528	1470.40002441406
679.318739998323	1462.40002441406
680.055454660558	1461.80004882813
680.792077827172	1466.80004882813
681.528609506116	1456.40002441406
682.265049705331	1443.19995117188
683.001398432759	1446
683.737655696349	1442
684.47382150404	1435.59997558594
685.20989586378	1440.80004882813
685.945878783503	1440.80004882813
686.68177027116	1440.59997558594
687.417570334688	1450.40002441406
688.153278982032	1458.80004882813
688.888896221129	1441.40002441406
689.624422059921	1446.19995117188
690.359856506349	1441.19995117188
691.095199568354	1447
691.830451253874	1446.59997558594
692.565611570844	1453.59997558594
693.300680527212	1462.59997558594
694.03565813091	1446.59997558594
694.770544389877	1464
695.505339312053	1456
696.240042905372	1447.59997558594
696.974655177772	1445.19995117188
697.70917613719	1438
698.443605791561	1440.40002441406
699.177944148826	1441.59997558594
699.912191216909	1454
700.646347003755	1459
701.380411517295	1457.40002441406
702.114384765465	1456.80004882813
702.848266756195	1464
703.582057497421	1468.80004882813
704.315756997074	1467.59997558594
705.049365263089	1465.59997558594
705.782882303399	1466
706.516308125936	1466
707.249642738626	1464.80004882813
707.982886149403	1462.80004882813
708.716038366204	1464.80004882813
709.449099396949	1463.59997558594
710.182069249577	1462.80004882813
710.914947932009	1453.40002441406
711.647735452181	1471.19995117188
712.380431818022	1470
713.113037037454	1466
713.845551118411	1452.40002441406
714.577974068818	1457.40002441406
715.310305896604	1465.59997558594
716.042546609694	1468.80004882813
716.774696216013	1462
717.506754723493	1460
718.238722140053	1455.59997558594
718.970598473624	1463.19995117188
719.702383732127	1458.40002441406
720.43407792349	1469.40002441406
721.165681055634	1479
721.897193136486	1464.40002441406
722.628614173966	1485.59997558594
723.359944175997	1482.80004882813
724.091183150505	1468.59997558594
724.822331105412	1479
725.553388048638	1492.59997558594
726.284353988106	1496.59997558594
727.015228931734	1505
727.746012887449	1497.40002441406
728.476705863162	1491
729.207307866803	1481.40002441406
729.937818906289	1470
730.668238989535	1450.19995117188
731.398568124459	1446.59997558594
732.128806318986	1444.40002441406
732.858953581034	1447
733.589009918514	1455.80004882813
734.318975339348	1454
735.048849851452	1452.40002441406
735.778633462744	1460.19995117188
736.508326181137	1466.40002441406
737.237928014549	1452.19995117188
737.967438970897	1467
738.696859058095	1461.19995117188
739.426188284054	1465.80004882813
740.155426656692	1452
740.884574183922	1442.19995117188
741.613630873659	1448.59997558594
742.342596733815	1443.59997558594
743.071471772302	1452.80004882813
743.800255997034	1449.19995117188
744.528949415921	1465
745.257552036877	1469
745.986063867811	1473.19995117188
746.714484916638	1468.80004882813
747.442815191261	1468.80004882813
748.171054699597	1466
748.899203449554	1451.59997558594
749.627261449039	1454.40002441406
750.355228705966	1467.80004882813
751.083105228239	1465.19995117188
751.810891023765	1461.19995117188
752.538586100459	1473.19995117188
753.266190466218	1479
753.99370412896	1478.19995117188
754.721127096582	1483
755.448459377	1479.19995117188
756.175700978114	1485.59997558594
756.902851907828	1476.80004882813
757.629912174055	1471.40002441406
758.356881784688	1454
759.083760747639	1466.40002441406
759.810549070817	1465.80004882813
760.537246762113	1466.59997558594
761.263853829442	1461.40002441406
761.990370280698	1465.80004882813
762.716796123791	1471.40002441406
763.443131366618	1470.19995117188
764.169376017082	1470.19995117188
764.895530083085	1491.19995117188
765.621593572527	1506.80004882813
766.347566493312	1498.19995117188
767.073448853336	1516.80004882813
767.799240660502	1530
768.524941922707	1528.80004882813
769.250552647854	1556.80004882813
769.976072843836	1568.40002441406
770.701502518551	1573
771.426841679905	1572
772.152090335793	1560.19995117188
772.877248494107	1560.40002441406
773.602316162747	1568.40002441406
774.327293349609	1570.40002441406
775.052180062592	1574.19995117188
775.776976309589	1576.19995117188
776.501682098496	1581
777.226297437206	1565
777.950822333616	1555.59997558594
778.675256795621	1550.80004882813
779.399600831111	1546.80004882813
780.123854447983	1545.40002441406
780.84801765413	1524
781.572090457441	1524.40002441406
782.296072865811	1526
783.019964887131	1511.80004882813
783.743766529297	1519.40002441406
784.467477800194	1506.40002441406
785.191098707719	1500.19995117188
785.914629259756	1483
786.638069464194	1478.59997558594
787.361419328932	1466.59997558594
788.084678861852	1480.59997558594
788.807848070845	1459.80004882813
789.530926963798	1462.40002441406
790.253915548602	1477
790.976813833144	1467.40002441406
791.699621825307	1470.40002441406
792.422339532986	1470.59997558594
793.144966964061	1471.59997558594
793.86750412642	1453.80004882813
794.589951027946	1457.59997558594
795.312307676536	1463.40002441406
796.03457408006	1456.59997558594
796.756750246417	1457.40002441406
797.478836183477	1460.59997558594
798.200831899137	1443.59997558594
798.92273740127	1443.19995117188
799.644552697769	1451.40002441406
800.36627779651	1469.59997558594
801.087912705374	1465.80004882813
801.809457432251	1456
802.530911985017	1465.19995117188
803.252276371558	1473.40002441406
803.973550599748	1485.40002441406
804.694734677472	1474.19995117188
805.415828612611	1482.80004882813
806.136832413045	1472.40002441406
806.857746086646	1481.59997558594
807.578569641305	1474.40002441406
808.299303084892	1471.19995117188
809.019946425289	1479.80004882813
809.740499670372	1470.40002441406
810.460962828022	1485.19995117188
811.181335906114	1472.19995117188
811.901618912524	1471.59997558594
812.621811855131	1476.80004882813
813.341914741809	1469
814.061927580433	1475.19995117188
814.781850378881	1465.40002441406
815.501683145025	1458.80004882813
816.221425886743	1461.59997558594
816.941078611903	1460.59997558594
817.660641328387	1464.59997558594
818.380114044065	1460.40002441406
819.099496766808	1469.19995117188
819.818789504492	1461.80004882813
820.53799226499	1461
821.257105056168	1469.19995117188
821.976127885904	1465
822.695060762064	1480.40002441406
823.413903692525	1486.80004882813
824.132656685151	1470.59997558594
824.851319747817	1464
825.569892888388	1452.59997558594
826.288376114739	1439.40002441406
827.006769434737	1433.40002441406
827.725072856249	1437.19995117188
828.443286387142	1441.59997558594
829.161410035285	1450
829.87944380855	1457.59997558594
830.597387714798	1467
831.315241761898	1471.40002441406
832.033005957715	1487.59997558594
832.750680310119	1473.19995117188
833.468264826969	1472
834.18575951614	1477
834.903164385486	1462.40002441406
835.620479442878	1478.80004882813
836.337704696181	1453.40002441406
837.054840153255	1454.59997558594
837.771885821962	1452.59997558594
838.488841710172	1445.80004882813
839.20570782574	1452.40002441406
839.922484176531	1458.59997558594
840.639170770409	1462.40002441406
841.355767615231	1449.19995117188
842.072274718864	1456.40002441406
842.788692089164	1443.80004882813
843.505019733993	1446.80004882813
844.221257661209	1432.59997558594
844.937405878676	1432.59997558594
845.65346439425	1450
846.369433215789	1433.40002441406
847.085312351156	1451.80004882813
847.801101808205	1454.80004882813
848.516801594793	1457.19995117188
849.232411718781	1462.19995117188
849.947932188021	1468.19995117188
850.663363010376	1458.80004882813
851.378704193698	1448
852.093955745842	1446.40002441406
852.809117674669	1445
853.524189988028	1446
854.239172693778	1459.80004882813
854.954065799768	1443.40002441406
855.668869313857	1435
856.383583243899	1431.59997558594
857.098207597743	1428.40002441406
857.812742383246	1415.40002441406
858.527187608255	1414.40002441406
859.241543280628	1444.80004882813
859.955809408218	1451.19995117188
860.669985998868	1435.80004882813
861.384073060437	1437.19995117188
862.098070600772	1426
862.811978627724	1421.19995117188
863.52579714914	1415
864.239526172873	1408.59997558594
864.953165706776	1405.19995117188
865.666715758687	1418
866.380176336464	1438.19995117188
867.093547447951	1444.80004882813
867.806829100996	1437.40002441406
868.520021303444	1449
869.233124063149	1446.80004882813
869.94613738795	1443.80004882813
870.659061285693	1432.80004882813
871.37189576423	1433.19995117188
872.084640831403	1443
872.797296495057	1432.59997558594
873.509862763039	1440.19995117188
874.22233964319	1433.40002441406
874.934727143353	1445.19995117188
875.647025271374	1452.19995117188
876.359234035097	1456.59997558594
877.071353442361	1462.59997558594
877.783383501015	1454.40002441406
878.495324218895	1467.40002441406
879.207175603844	1460.59997558594
879.918937663705	1460.40002441406
880.630610406318	1437.19995117188
881.342193839524	1450.40002441406
882.053687971161	1435.80004882813
882.765092809069	1424
883.476408361091	1439.19995117188
884.187634635066	1432.19995117188
884.898771638828	1443.40002441406
885.609819380221	1444.59997558594
886.320777867076	1445.19995117188
887.031647107236	1440.40002441406
887.742427108536	1434
888.453117878816	1449.59997558594
889.16371942591	1444.80004882813
889.874231757652	1458.59997558594
890.584654881883	1462
891.294988806434	1455.80004882813
892.005233539141	1462.80004882813
892.715389087837	1477.59997558594
893.42545546036	1466.19995117188
894.135432664543	1474.19995117188
894.845320708216	1473.80004882813
895.555119599216	1458.19995117188
896.264829345375	1462.59997558594
896.974449954526	1462.59997558594
897.683981434496	1465
898.393423793125	1443.40002441406
899.102777038235	1457.19995117188
899.812041177664	1449.59997558594
900.521216219239	1438.19995117188
901.230302170793	1432.59997558594
901.939299040155	1434
902.64820683515	1440.40002441406
903.357025563612	1423.19995117188
904.065755233368	1420.19995117188
904.774395852247	1422.80004882813
905.482947428076	1417.80004882813
906.191409968682	1428.80004882813
906.899783481897	1423.59997558594
907.608067975538	1444.80004882813
908.316263457443	1441.80004882813
909.02436993543	1452
909.732387417327	1478.80004882813
910.440315910959	1452.80004882813
911.148155424154	1467
911.855905964731	1474.19995117188
912.563567540521	1474.40002441406
913.271140159339	1481.19995117188
913.978623829017	1463.19995117188
914.686018557374	1472.40002441406
915.393324352237	1467
916.100541221421	1464.59997558594
916.807669172752	1463.59997558594
917.514708214054	1462.40002441406
918.221658353142	1455
918.928519597843	1458.80004882813
919.635291955976	1469
920.341975435358	1478.40002441406
921.048570043813	1462.19995117188
921.75507578916	1466
922.461492679212	1464.19995117188
923.167820721795	1476.40002441406
923.874059924726	1479.80004882813
924.58021029582	1464.19995117188
925.286271842893	1468.59997558594
925.992244573769	1466.19995117188
926.698128496262	1473.59997558594
927.403923618184	1464
928.109629947355	1466.59997558594
928.815247491593	1461
929.520776258708	1464.59997558594
930.226216256519	1469.59997558594
930.931567492841	1449
931.636829975482	1452.40002441406
932.342003712263	1451.59997558594
933.047088710995	1464.19995117188
933.752084979491	1457
934.456992525564	1470
935.161811357024	1463.59997558594
935.866541481688	1461
936.571182907363	1460.80004882813
937.275735641861	1458.40002441406
937.980199692995	1441.19995117188
938.684575068572	1437.80004882813
939.388861776411	1434.80004882813
940.093059824311	1443
940.797169220085	1427.40002441406
941.501189971544	1435.40002441406
942.205122086495	1430
942.908965572751	1430.59997558594
943.612720438111	1435.40002441406
944.316386690391	1440.80004882813
945.019964337391	1436
945.723453386924	1434.19995117188
946.426853846795	1442.19995117188
947.130165724808	1451.40002441406
947.83338902877	1439
948.536523766488	1420.40002441406
949.239569945764	1424.19995117188
949.942527574402	1417.19995117188
950.64539666021	1411.19995117188
951.348177210993	1415.40002441406
952.050869234548	1417.19995117188
952.753472738683	1416.19995117188
953.455987731199	1416.19995117188
954.158414219898	1415.19995117188
954.860752212587	1428.80004882813
955.563001717061	1443.80004882813
956.265162741124	1436.40002441406
956.967235292576	1447.59997558594
957.669219379224	1464.80004882813
958.371115008857	1454.80004882813
959.072922189283	1448.40002441406
959.774640928301	1443
960.476271233708	1433.59997558594
961.177813113301	1430.19995117188
961.879266574882	1414.59997558594
962.580631626248	1420
963.281908275194	1427
963.98309652952	1413
964.684196397022	1413.59997558594
965.3852078855	1399.80004882813
966.086131002745	1404.19995117188
966.786965756555	1411
967.487712154726	1406
968.188370205055	1403.59997558594
968.888939915331	1404.19995117188
969.589421293352	1408.80004882813
970.289814346909	1416
970.990119083801	1399.19995117188
971.690335511819	1419.59997558594
972.39046363875	1420.80004882813
973.090503472398	1420.19995117188
973.790455020545	1412.59997558594
974.490318290987	1430
975.190093291516	1431.59997558594
975.889780029923	1428.40002441406
976.589378513998	1422.80004882813
977.288888751527	1417.40002441406
977.988310750308	1414.80004882813
978.687644518122	1410.80004882813
979.386890062767	1417.80004882813
980.086047392025	1409
980.785116513689	1406.59997558594
981.484097435542	1407.40002441406
982.182990165377	1418.80004882813
982.88179471098	1416.80004882813
983.580511080137	1411.80004882813
984.279139280632	1414.19995117188
984.977679320253	1400
985.67613120679	1410.80004882813
986.374494948027	1423.19995117188
987.072770551745	1433.19995117188
987.770958025731	1420
988.469057377772	1411.59997558594
989.167068615649	1413.40002441406
989.864991747145	1405.19995117188
990.562826780047	1408.19995117188
991.260573722134	1410.59997558594
991.958232581195	1401.40002441406
992.655803365003	1404
993.353286081346	1416
994.050680738006	1415.59997558594
994.74798734276	1408.59997558594
995.44520590339	1412
996.142336427681	1407.40002441406
996.839378923407	1415.19995117188
997.536333398348	1399.19995117188
998.233199860289	1403.80004882813
998.929978317004	1393
999.626668776274	1390.40002441406
1000.32327124587	1393.59997558594
1001.01978573359	1387.19995117188
1001.71621224718	1385.59997558594
1002.41255079445	1382.19995117188
1003.10880138315	1384.80004882813
1003.80496402107	1376
1004.50103871599	1385
1005.19702547567	1393.80004882813
1005.8929243079	1400.80004882813
1006.58873522045	1410.19995117188
1007.2844582211	1421
1007.98009331761	1430.80004882813
1008.67564051776	1425
1009.37109982933	1429.80004882813
1010.06647126009	1441
1010.7617548178	1433.40002441406
1011.45695051026	1416.40002441406
1012.15205834522	1430
1012.84707833045	1409.80004882813
1013.54201047373	1429
1014.23685478284	1429.40002441406
1014.93161126553	1420.40002441406
1015.62627992959	1415.19995117188
1016.32086078277	1422
1017.01535383285	1413.80004882813
1017.70975908761	1411.19995117188
1018.40407655479	1413.19995117188
1019.09830624219	1410.80004882813
1019.79244815755	1406.40002441406
1020.48650230866	1407.80004882813
1021.18046870328	1409.59997558594
1021.87434734917	1408.40002441406
1022.56813825411	1408.80004882813
1023.26184142584	1420.19995117188
1023.95545687216	1421.19995117188
1024.64898460082	1417.19995117188
1025.34242461957	1411.40002441406
1026.0357769362	1408.59997558594
1026.72904155846	1414.80004882813
1027.42221849412	1396
1028.11530775094	1402.19995117188
1028.80830933668	1397
1029.50122325911	1394.19995117188
1030.19404952599	1390.19995117188
1030.88678814508	1398
1031.57943912414	1391.40002441406
1032.27200247093	1396.59997558594
1032.96447819323	1402.19995117188
1033.65686629878	1407.19995117188
1034.34916679534	1402.80004882813
1035.04137969068	1409.19995117188
1035.73350499256	1393.19995117188
1036.42554270874	1392.19995117188
1037.11749284697	1387.40002441406
1037.80935541501	1387.19995117188
1038.50113042062	1395.80004882813
1039.19281787156	1387.80004882813
1039.88441777559	1407
1040.57593014046	1404.40002441406
1041.26735497393	1397.59997558594
1041.95869228376	1389
1042.6499420777	1390.59997558594
1043.3411043635	1387
1044.03217914893	1375.59997558594
1044.72316644174	1375.59997558594
1045.41406624968	1376.59997558594
1046.1048785805	1379.59997558594
1046.79560344197	1370
1047.48624084182	1375
1048.17679078783	1379
1048.86725328774	1369.19995117188
1049.55762834929	1382.59997558594
1050.24791598025	1384.80004882813
1050.93811618837	1374.80004882813
1051.62822898139	1369
1052.31825436707	1382.80004882813
1053.00819235315	1383.19995117188
1053.6980429474	1375
1054.38780615755	1376.19995117188
1055.07748199136	1378.19995117188
1055.76707045658	1389
1056.45657156095	1381
1057.14598531222	1366.19995117188
1057.83531171814	1378.40002441406
1058.52455078646	1385.80004882813
1059.21370252494	1380.19995117188
1059.90276694129	1384.80004882813
1060.5917440433	1381.59997558594
1061.28063383868	1381.19995117188
1061.9694363352	1376.40002441406
1062.65815154059	1383.59997558594
1063.34677946261	1377.80004882813
1064.03532010899	1371.80004882813
1064.72377348748	1373.59997558594
1065.41213960583	1382.59997558594
1066.10041847177	1374
1066.78861009306	1376.40002441406
1067.47671447743	1387.80004882813
1068.16473163263	1383.80004882813
1068.85266156639	1397.19995117188
1069.54050428647	1395.40002441406
1070.2282598006	1399.40002441406
1070.91592811652	1396.80004882813
1071.60350924198	1397.80004882813
1072.29100318471	1397.59997558594
1072.97840995245	1397.59997558594
1073.66572955295	1383.80004882813
1074.35296199394	1379
1075.04010728316	1383.19995117188
1075.72716542836	1380
1076.41413643726	1374
1077.10102031761	1371.19995117188
1077.78781707715	1363.80004882813
1078.4745267236	1372.40002441406
1079.16114926471	1387.40002441406
1079.84768470822	1396.80004882813
1080.53413306185	1385.80004882813
1081.22049433336	1385.19995117188
1081.90676853046	1391.40002441406
1082.5929556609	1388.19995117188
1083.27905573241	1385.59997558594
1083.96506875272	1387.80004882813
1084.65099472957	1386.40002441406
1085.3368336707	1388.59997558594
1086.02258558383	1375.19995117188
1086.70825047669	1374.80004882813
1087.39382835703	1386
1088.07931923257	1372
1088.76472311104	1372
1089.45004000018	1367.80004882813
1090.13526990771	1375
1090.82041284137	1375.80004882813
1091.50546880889	1385
1092.19043781799	1370.40002441406
1092.87531987642	1373.59997558594
1093.56011499188	1372.80004882813
1094.24482317212	1375.40002441406
1094.92944442486	1369.40002441406
1095.61397875783	1355
1096.29842617876	1359.59997558594
1096.98278669537	1364.19995117188
1097.6670603154	1376.59997558594
1098.35124704656	1387.59997558594
1099.03534689659	1361.40002441406
1099.71935987322	1369.80004882813
1100.40328598416	1364.19995117188
1101.08712523713	1366.80004882813
1101.77087763988	1371.59997558594
1102.45454320012	1372.19995117188
1103.13812192557	1375.19995117188
1103.82161382396	1362.59997558594
1104.50501890301	1357.59997558594
1105.18833717045	1349
1105.87156863399	1360.59997558594
1106.55471330137	1368.40002441406
1107.2377711803	1353.40002441406
1107.9207422785	1357.80004882813
1108.60362660369	1375.59997558594
1109.2864241636	1376.80004882813
1109.96913496594	1367.19995117188
1110.65175901844	1369.59997558594
1111.33429632882	1377
1112.01674690479	1379.40002441406
1112.69911075408	1353.40002441406
1113.38138788439	1369.19995117188
1114.06357830346	1362.80004882813
1114.745682019	1383
1115.42769903872	1370.40002441406
1116.10962937035	1383.59997558594
1116.7914730216	1386.80004882813
1117.47323000018	1381.59997558594
1118.15490031382	1391.80004882813
1118.83648397022	1391
1119.51798097712	1396.40002441406
1120.1993913422	1391.59997558594
1120.88071507321	1394.40002441406
1121.56195217784	1396.19995117188
1122.24310266381	1396.19995117188
1122.92416653884	1394.40002441406
1123.60514381064	1391.19995117188
1124.28603448692	1397.80004882813
1124.9668385754	1397.19995117188
1125.64755608378	1396
1126.32818701978	1381
1127.00873139111	1384.19995117188
1127.68918920548	1396.40002441406
1128.3695604706	1393.59997558594
1129.04984519419	1394.40002441406
1129.73004338394	1388.40002441406
1130.41015504758	1399.59997558594
1131.09018019281	1405.59997558594
1131.77011882734	1397.59997558594
1132.44997095888	1397.19995117188
1133.12973659514	1389.80004882813
1133.80941574381	1386.40002441406
1134.48900841263	1381.40002441406
1135.16851460927	1379.19995117188
1135.84793434147	1375.40002441406
1136.52726761692	1373.59997558594
1137.20651444333	1373
1137.8856748284	1367
1138.56474877984	1358.80004882813
1139.24373630536	1363.19995117188
1139.92263741265	1362.40002441406
1140.60145210943	1362.59997558594
1141.28018040339	1362.59997558594
1141.95882230225	1350.40002441406
1142.6373778137	1356.59997558594
1143.31584694545	1351.40002441406
1143.99422970519	1377.80004882813
1144.67252610064	1377
1145.35073613949	1372.80004882813
1146.02885982944	1360.80004882813
1146.7068971782	1363
1147.38484819347	1359.59997558594
1148.06271288294	1354.40002441406
1148.74049125432	1346.19995117188
1149.41818331531	1341.59997558594
1150.0957890736	1351.40002441406
1150.77330853689	1351.59997558594
1151.45074171289	1356.80004882813
1152.12808860928	1361.80004882813
1152.80534923378	1354
1153.48252359407	1349
1154.15961169786	1349
1154.83661355283	1351.59997558594
1155.51352916669	1360.40002441406
1156.19035854713	1378.40002441406
1156.86710170185	1362
1157.54375863855	1376.59997558594
1158.22032936491	1366.59997558594
1158.89681388863	1357.59997558594
1159.57321221741	1343.40002441406
1160.24952435894	1351.59997558594
1160.92575032092	1349.59997558594
1161.60189011103	1353
1162.27794373697	1359.80004882813
1162.95391120644	1371.19995117188
1163.62979252712	1372
1164.3055877067	1370.80004882813
1164.98129675288	1386.59997558594
1165.65691967336	1382.80004882813
1166.33245647581	1378.80004882813
1167.00790716792	1369
1167.6832717574	1380.59997558594
1168.35855025193	1378.19995117188
1169.0337426592	1385.59997558594
1169.70884898689	1384.19995117188
1170.3838692427	1384.40002441406
1171.05880343431	1381.19995117188
1171.73365156941	1375
1172.40841365569	1379
1173.08308970083	1375
1173.75767971253	1388.59997558594
1174.43218369847	1374.19995117188
1175.10660166633	1394
1175.7809336238	1388.19995117188
1176.45517957857	1392.40002441406
1177.12933953832	1403.59997558594
1177.80341351073	1404
1178.47740150349	1411.80004882813
1179.15130352429	1409.19995117188
1179.8251195808	1398
1180.49884968071	1396.80004882813
1181.1724938317	1403.80004882813
1181.84605204145	1392
1182.51952431766	1398.40002441406
1183.19291066799	1403.40002441406
1183.86621110013	1406
1184.53942562176	1415
1185.21255424057	1416.19995117188
1185.88559696422	1426.19995117188
1186.55855380041	1404.80004882813
1187.2314247568	1423.80004882813
1187.90420984109	1426.40002441406
1188.57690906095	1431.80004882813
1189.24952242405	1427.59997558594
1189.92204993808	1415.19995117188
1190.59449161071	1402
1191.26684744962	1415.80004882813
1191.93911746249	1426.59997558594
1192.61130165699	1416.19995117188
1193.28340004081	1414.80004882813
1193.95541262161	1413.59997558594
1194.62733940707	1404.19995117188
1195.29918040487	1411.80004882813
1195.97093562269	1411.59997558594
1196.64260506819	1418.40002441406
1197.31418874905	1424.19995117188
1197.98568667295	1420
1198.65709884755	1419
1199.32842528053	1399
1199.99966597957	1396
1200.67082095234	1398.40002441406
1201.3418902065	1391.80004882813
1202.01287374974	1393.40002441406
1202.68377158971	1375.59997558594
1203.3545837341	1361.59997558594
1204.02531019057	1363.40002441406
1204.6959509668	1359.19995117188
1205.36650607045	1367.19995117188
1206.03697550919	1359.19995117188
1206.70735929069	1368.80004882813
1207.37765742263	1351.19995117188
1208.04786991266	1356.80004882813
1208.71799676846	1353
1209.38803799769	1359.40002441406
1210.05799360803	1362
1210.72786360714	1359.80004882813
1211.39764800268	1362.19995117188
1212.06734680233	1349.40002441406
1212.73696001375	1349.80004882813
1213.4064876446	1352.80004882813
1214.07592970255	1356.40002441406
1214.74528619526	1369.19995117188
1215.4145571304	1357
1216.08374251564	1380.19995117188
1216.75284235863	1380.19995117188
1217.42185666704	1366.80004882813
1218.09078544854	1372
1218.75962871078	1365.59997558594
1219.42838646143	1349.40002441406
1220.09705870816	1350.80004882813
1220.76564545861	1355.59997558594
1221.43414672046	1342.19995117188
1222.10256250136	1349.19995117188
1222.77089280898	1346.59997558594
1223.43913765098	1338.80004882813
1224.107297035	1349.40002441406
1224.77537096873	1342.80004882813
1225.44335945981	1346.40002441406
1226.1112625159	1344
1226.77908014467	1343.80004882813
1227.44681235376	1349
1228.11445915085	1352.80004882813
1228.78202054357	1354.40002441406
1229.44949653961	1355.80004882813
1230.11688714659	1355
1230.7841923722	1368.80004882813
1231.45141222407	1365.19995117188
1232.11854670988	1365.59997558594
1232.78559583726	1362.40002441406
1233.45255961388	1368.40002441406
1234.1194380474	1368
1234.78623114546	1354.19995117188
1235.45293891572	1370.59997558594
1236.11956136583	1367.80004882813
1236.78609850345	1359.40002441406
1237.45255033623	1355.19995117188
1238.11891687182	1355.19995117188
1238.78519811788	1354.19995117188
1239.45139408205	1332.40002441406
1240.11750477198	1331.80004882813
1240.78353019534	1342.59997558594
1241.44947035976	1323.40002441406
1242.11532527291	1327.19995117188
1242.78109494242	1335.19995117188
1243.44677937595	1335
1244.11237858115	1338.59997558594
1244.77789256567	1336.59997558594
1245.44332133715	1346.19995117188
1246.10866490325	1349.40002441406
1246.7739232716	1352.40002441406
1247.43909644987	1335
1248.10418444569	1335.59997558594
1248.76918726671	1342.80004882813
1249.43410492059	1341.40002441406
1250.09893741496	1339.19995117188
1250.76368475747	1326.59997558594
1251.42834695576	1338
1252.09292401749	1339
1252.75741595029	1337.19995117188
1253.42182276182	1327.59997558594
1254.08614445971	1327
1254.75038105161	1332.59997558594
1255.41453254515	1331.59997558594
1256.07859894799	1326.19995117188
1256.74258026777	1341
1257.40647651213	1337
1258.0702876887	1347.40002441406
1258.73401380514	1354.59997558594
1259.39765486908	1344.80004882813
1260.06121088817	1331.40002441406
1260.72468187004	1320
1261.38806782233	1326.59997558594
1262.05136875269	1336.80004882813
1262.71458466875	1335.40002441406
1263.37771557815	1327.40002441406
1264.04076148854	1327.80004882813
1264.70372240753	1327
1265.3665983428	1340.80004882813
1266.02938930195	1345.40002441406
1266.69209529263	1343
1267.35471632249	1342
1268.01725239914	1322.80004882813
1268.67970353024	1328.40002441406
1269.34206972342	1337
1270.00435098631	1337
1270.66654732655	1324.80004882813
1271.32865875177	1324
1271.9906852696	1321.40002441406
1272.65262688768	1321.80004882813
1273.31448361365	1327.59997558594
1273.97625545514	1329.59997558594
1274.63794241978	1326.19995117188
1275.2995445152	1323.40002441406
1275.96106174903	1338.40002441406
1276.62249412892	1331.19995117188
1277.28384166248	1332.40002441406
1277.94510435735	1335.19995117188
1278.60628222116	1326
1279.26737526155	1332.80004882813
1279.92838348613	1339.40002441406
1280.58930690255	1338
1281.25014551842	1334.80004882813
1281.91089934139	1341
1282.57156837907	1335.19995117188
1283.2321526391	1329.80004882813
1283.89265212911	1332.19995117188
1284.55306685671	1327.80004882813
1285.21339682955	1342
1285.87364205525	1333
1286.53380254142	1335.59997558594
1287.19387829571	1333.19995117188
1287.85386932573	1329.80004882813
1288.51377563911	1330.59997558594
1289.17359724348	1330.40002441406
1289.83333414646	1323.40002441406
1290.49298635567	1321.59997558594
1291.15255387874	1326.80004882813
1291.8120367233	1338.80004882813
1292.47143489696	1336.19995117188
1293.13074840736	1343.19995117188
1293.7899772621	1330.40002441406
1294.44912146882	1327.80004882813
1295.10818103513	1328.19995117188
1295.76715596866	1324.59997558594
1296.42604627704	1316.19995117188
1297.08485196787	1333.59997558594
1297.74357304878	1342.40002441406
1298.4022095274	1350.19995117188
1299.06076141134	1361.80004882813
1299.71922870821	1359.19995117188
1300.37761142565	1335.59997558594
1301.03590957126	1365.19995117188
1301.69412315268	1377
1302.3522521775	1362.40002441406
1303.01029665336	1364.40002441406
1303.66825658787	1361.59997558594
1304.32613198865	1367
1304.98392286332	1362.59997558594
1305.64162921948	1371.80004882813
1306.29925106476	1364.40002441406
1306.95678840677	1369.19995117188
1307.61424125312	1365.40002441406
1308.27160961145	1356.80004882813
1308.92889348934	1352.80004882813
1309.58609289443	1351
1310.24320783432	1371.19995117188
1310.90023831664	1372.80004882813
1311.55718434898	1373.80004882813
1312.21404593897	1376.19995117188
1312.87082309421	1377.59997558594
1313.52751582233	1374.80004882813
1314.18412413092	1373
1314.84064802761	1377.40002441406
1315.49708752	1385
1316.1534426157	1380.80004882813
1316.80971332233	1384.80004882813
1317.46589964749	1374
1318.1220015988	1383
1318.77801918386	1375.80004882813
1319.43395241028	1363.59997558594
1320.08980128567	1361.59997558594
1320.74556581764	1364.80004882813
1321.4012460138	1370
1322.05684188176	1379
1322.71235342911	1374.59997558594
1323.36778066347	1375.80004882813
1324.02312359245	1365.19995117188
1324.67838222365	1360.40002441406
1325.33355656468	1358
1325.98864662314	1360
1326.64365240663	1356.19995117188
1327.29857392277	1349.19995117188
1327.95341117915	1346
1328.60816418339	1352.80004882813
1329.26283294308	1336.80004882813
1329.91741746582	1329.80004882813
1330.57191775923	1324.40002441406
1331.2263338309	1320
1331.88066568843	1331.80004882813
1332.53491333943	1339.80004882813
1333.1890767915	1339.40002441406
1333.84315605224	1338.19995117188
1334.49715112925	1344
1335.15106203013	1358.59997558594
1335.80488876249	1363.59997558594
1336.45863133391	1362.19995117188
1337.112289752	1363.19995117188
1337.76586402437	1360.59997558594
1338.4193541586	1362.59997558594
1339.0727601623	1364.59997558594
1339.72608204306	1365.59997558594
1340.37931980849	1363.80004882813
1341.03247346617	1363.59997558594
1341.68554302372	1368
1342.33852848871	1366.19995117188
1342.99142986876	1352.80004882813
1343.64424717145	1359.19995117188
1344.29698040438	1365.40002441406
1344.94962957515	1365.80004882813
1345.60219469135	1372.80004882813
1346.25467576058	1363.59997558594
1346.90707279042	1367.40002441406
1347.55938578848	1367.19995117188
1348.21161476235	1360.19995117188
1348.86375971962	1356.40002441406
1349.51582066787	1358
1350.16779761472	1375
1350.81969056774	1373.40002441406
1351.47149953453	1383
1352.12322452269	1382.19995117188
1352.77486553979	1396.80004882813
1353.42642259344	1401.19995117188
1354.07789569122	1390.59997558594
1354.72928484072	1393.80004882813
1355.38059004953	1392.19995117188
1356.03181132525	1398.80004882813
1356.68294867545	1399.40002441406
1357.33400210773	1394.59997558594
1357.98497162968	1393.19995117188
1358.63585724889	1384.19995117188
1359.28665897294	1388.59997558594
1359.93737680942	1400.59997558594
1360.58801076591	1409.80004882813
1361.23856085001	1419.40002441406
1361.88902706929	1427.19995117188
1362.53940943135	1417.80004882813
1363.18970794377	1436
1363.83992261413	1427.40002441406
1364.49005345003	1423
1365.14010045904	1425.59997558594
1365.79006364874	1428.19995117188
1366.43994302673	1422.59997558594
1367.08973860058	1417
1367.73945037788	1406.40002441406
1368.38907836621	1401.80004882813
1369.03862257315	1402.80004882813
1369.68808300629	1392.80004882813
1370.3374596732	1379.40002441406
1370.98675258148	1379.40002441406
1371.63596173868	1366.40002441406
1372.28508715241	1376.40002441406
1372.93412883024	1363
1373.58308677974	1361.40002441406
1374.2319610085	1362.80004882813
1374.8807515241	1348.40002441406
1375.52945833412	1352
1376.17808144612	1348.40002441406
1376.82662086771	1341.40002441406
1377.47507660644	1338.19995117188
1378.12344866989	1340.59997558594
1378.77173706565	1341
1379.41994180129	1343.40002441406
1380.06806288439	1338.59997558594
1380.71610032252	1334.40002441406
1381.36405412326	1341.40002441406
1382.01192429419	1335
1382.65971084287	1334
1383.30741377688	1334.40002441406
1383.95503310381	1326.59997558594
1384.60256883121	1329
1385.25002096667	1338.59997558594
1385.89738951775	1326.80004882813
1386.54467449204	1321.19995117188
1387.19187589709	1332.40002441406
1387.8389937405	1325
1388.48602802982	1332.80004882813
1389.13297877262	1322.59997558594
1389.77984597649	1329
1390.42662964899	1334.19995117188
1391.07332979768	1333.40002441406
1391.71994643015	1325
1392.36647955395	1318.59997558594
1393.01292917667	1314
1393.65929530586	1318.40002441406
1394.3055779491	1323.40002441406
1394.95177711395	1321
1395.59789280799	1332.59997558594
1396.24392503877	1329.40002441406
1396.88987381387	1327.80004882813
1397.53573914086	1320.40002441406
1398.1815210273	1330.80004882813
1398.82721948075	1308
1399.47283450878	1329.80004882813
1400.11836611897	1330.59997558594
1400.76381431886	1320.59997558594
1401.40917911603	1309.40002441406
1402.05446051805	1306.40002441406
1402.69965853247	1307
1403.34477316686	1314.80004882813
1403.98980442878	1302.59997558594
1404.6347523258	1290.59997558594
1405.27961686548	1299.80004882813
1405.92439805538	1302.19995117188
1406.56909590306	1302.80004882813
1407.21371041608	1302.19995117188
1407.85824160202	1302.19995117188
1408.50268946841	1302
1409.14705402284	1311
1409.79133527285	1309.19995117188
1410.43553322601	1298
1411.07964788987	1290
1411.723679272	1293.80004882813
1412.36762737996	1288.19995117188
1413.01149222129	1301.80004882813
1413.65527380357	1304.59997558594
1414.29897213435	1309.19995117188
1414.94258722118	1313.40002441406
1415.58611907163	1323
1416.22956769325	1316.59997558594
1416.87293309359	1313
1417.51621528021	1315.19995117188
1418.15941426067	1330.80004882813
1418.80253004253	1325.59997558594
1419.44556263333	1325.80004882813
1420.08851204063	1327.40002441406
1420.731378272	1322
1421.37416133497	1335.59997558594
1422.0168612371	1334.80004882813
1422.65947798596	1332.19995117188
1423.30201158908	1335.80004882813
1423.94446205403	1321.19995117188
1424.58682938835	1330
1425.2291135996	1336
1425.87131469532	1329
1426.51343268308	1328.80004882813
1427.15546757042	1334.80004882813
1427.79741936488	1317.80004882813
1428.43928807403	1327.80004882813
1429.0810737054	1318.80004882813
1429.72277626656	1316.19995117188
1430.36439576504	1313
1431.00593220841	1310.80004882813
1431.64738560419	1303.59997558594
1432.28875595995	1302.80004882813
1432.93004328324	1301.19995117188
1433.57124758159	1280.80004882813
1434.21236886255	1287.19995117188
1434.85340713368	1286.80004882813
1435.49436240252	1281.59997558594
1436.13523467661	1288
1436.77602396349	1285.59997558594
1437.41673027073	1303.59997558594
1438.05735360585	1299.59997558594
1438.69789397641	1298.59997558594
1439.33835138994	1293.19995117188
1439.978725854	1303
1440.61901737612	1289.59997558594
1441.25922596385	1292
1441.89935162473	1296.80004882813
1442.53939436631	1287.59997558594
1443.17935419612	1291.80004882813
1443.81923112171	1306.40002441406
1444.45902515061	1310
1445.09873629038	1314.80004882813
1445.73836454854	1333.80004882813
1446.37790993265	1329.19995117188
1447.01737245024	1322
1447.65675210885	1324
1448.29604891602	1330.19995117188
1448.93526287928	1312.19995117188
1449.57439400618	1300.59997558594
1450.21344230426	1296.40002441406
1450.85240778105	1297.40002441406
1451.49129044409	1290.59997558594
1452.13009030092	1281.80004882813
1452.76880735907	1295.80004882813
1453.40744162608	1291.59997558594
1454.04599310949	1294.19995117188
1454.68446181683	1304.19995117188
1455.32284775564	1307.19995117188
1455.96115093345	1313.80004882813
1456.5993713578	1310.19995117188
1457.23750903623	1312.80004882813
1457.87556397626	1313.40002441406
1458.51353618543	1311.80004882813
1459.15142567127	1318.80004882813
1459.78923244132	1312.59997558594
1460.42695650311	1313.59997558594
1461.06459786417	1303.40002441406
1461.70215653203	1307
1462.33963251423	1293.80004882813
1462.97702581829	1300.19995117188
1463.61433645175	1304.19995117188
1464.25156442214	1286.80004882813
1464.88870973699	1298.40002441406
1465.52577240382	1287.59997558594
1466.16275243017	1284.40002441406
1466.79964982356	1284.40002441406
1467.43646459154	1286
1468.07319674161	1278.80004882813
1468.70984628132	1284
1469.34641321818	1283.19995117188
1469.98289755974	1277.40002441406
1470.6192993135	1288.80004882813
1471.25561848701	1294.40002441406
1471.89185508779	1279
1472.52800912336	1277
1473.16408060124	1266
1473.80006952897	1274
1474.43597591407	1277.40002441406
1475.07179976406	1280.19995117188
1475.70754108647	1290.19995117188
1476.34319988883	1299.59997558594
1476.97877617865	1286.59997558594
1477.61426996345	1295
1478.24968125077	1293.40002441406
1478.88501004812	1294
1479.52025636303	1301
1480.15542020302	1299
1480.79050157561	1301
1481.42550048832	1300.80004882813
1482.06041694867	1299.40002441406
1482.69525096418	1290.59997558594
1483.33000254237	1303.19995117188
1483.96467169077	1293
1484.59925841689	1294
1485.23376272825	1297.40002441406
1485.86818463237	1303.19995117188
1486.50252413677	1289.59997558594
1487.13678124896	1285.59997558594
1487.77095597646	1287.40002441406
1488.4050483268	1288
1489.03905830749	1284
1489.67298592604	1294.80004882813
1490.30683118996	1308.40002441406
1490.9405941068	1310.19995117188
1491.57427468403	1312.59997558594
1492.2078729292	1297.19995117188
1492.84138884981	1310.19995117188
1493.47482245338	1307.59997558594
1494.10817374742	1307
1494.74144273944	1308.59997558594
1495.37462943696	1315.80004882813
1496.0077338475	1315.80004882813
1496.64075597856	1318.40002441406
1497.27369583765	1317.40002441406
1497.9065534323	1310
1498.53932877001	1312.80004882813
1499.17202185829	1329.19995117188
1499.80463270465	1327.59997558594
1500.43716131661	1322.40002441406
1501.06960770167	1334.40002441406
1501.70197186735	1335.59997558594
1502.33425382116	1328.19995117188
1502.96645357059	1335.40002441406
1503.59857112317	1337.59997558594
1504.23060648641	1334.40002441406
1504.8625596678	1345.80004882813
1505.49443067486	1339.59997558594
1506.1262195151	1348.80004882813
1506.75792619602	1338.40002441406
1507.38955072513	1336.40002441406
1508.02109310993	1334.59997558594
1508.65255335794	1329.19995117188
1509.28393147666	1328
1509.91522747359	1332
1510.54644135624	1317.80004882813
1511.17757313212	1320.40002441406
1511.80862280872	1315.19995117188
1512.43959039356	1319
1513.07047589413	1316.40002441406
1513.70127931795	1314.80004882813
1514.33200067251	1319.80004882813
1514.96263996531	1297.19995117188
1515.59319720386	1302.80004882813
1516.22367239567	1302.59997558594
1516.85406554822	1299.80004882813
1517.48437666903	1306.40002441406
1518.1146057656	1300.80004882813
1518.74475284542	1299
1519.374817916	1291
1520.00480098483	1287.40002441406
1520.63470205942	1285
1521.26452114726	1285.40002441406
1521.89425825586	1284.40002441406
1522.52391339271	1279.19995117188
1523.15348656531	1290
1523.78297778116	1293.19995117188
1524.41238704775	1288
1525.04171437259	1279.19995117188
1525.67095976317	1293.80004882813
1526.30012322699	1297.19995117188
1526.92920477154	1290.80004882813
1527.55820440432	1294.59997558594
1528.18712213283	1282.80004882813
1528.81595796455	1288.19995117188
1529.44471190699	1271.80004882813
1530.07338396764	1276.40002441406
1530.70197415399	1275.19995117188
1531.33048247353	1285.59997558594
1531.95890893377	1284
1532.58725354219	1273
1533.21551630629	1280.80004882813
1533.84369723356	1273
1534.47179633148	1277.19995117188
1535.09981360757	1267.19995117188
1535.72774906929	1285.19995117188
1536.35560272415	1286.19995117188
1536.98337457963	1311
1537.61106464323	1311.80004882813
1538.23867292243	1306.40002441406
1538.86619942473	1289
1539.49364415762	1286.19995117188
1540.12100712857	1282.40002441406
1540.74828834509	1284.19995117188
1541.37548781466	1276.40002441406
1542.00260554478	1264.59997558594
1542.62964154291	1270.59997558594
1543.25659581655	1263.40002441406
1543.8834683732	1254.59997558594
1544.51025922034	1271.80004882813
1545.13696836544	1265.80004882813
1545.76359581601	1258.59997558594
1546.39014157952	1267.80004882813
1547.01660566345	1278
1547.64298807531	1289.40002441406
1548.26928882255	1285.19995117188
1548.89550791269	1285.40002441406
1549.52164535318	1270
1550.14770115153	1261.19995117188
1550.77367531521	1257.40002441406
1551.39956785171	1268
1552.0253787685	1271.80004882813
1552.65110807307	1261.59997558594
1553.2767557729	1265.19995117188
1553.90232187548	1261.19995117188
1554.52780638828	1254.40002441406
1555.15320931879	1257.19995117188
1555.77853067447	1244.59997558594
1556.40377046282	1247.40002441406
1557.02892869132	1248.40002441406
1557.65400536744	1245
1558.27900049866	1248.19995117188
1558.90391409247	1250.80004882813
1559.52874615633	1250
1560.15349669773	1244
1560.77816572414	1243.80004882813
1561.40275324305	1243.59997558594
1562.02725926192	1241.59997558594
1562.65168378824	1246.59997558594
1563.27602682948	1249.40002441406
1563.90028839311	1249.80004882813
1564.52446848662	1258
1565.14856711748	1246
1565.77258429316	1252.19995117188
1566.39652002113	1258.19995117188
1567.02037430887	1268.80004882813
1567.64414716387	1272.80004882813
1568.26783859357	1271
1568.89144860547	1277
1569.51497720703	1268.40002441406
1570.13842440573	1268.59997558594
1570.76179020904	1269.59997558594
1571.38507462442	1272.19995117188
1572.00827765936	1269
1572.63139932132	1276.19995117188
1573.25443961777	1268.19995117188
1573.87739855618	1264.80004882813
1574.50027614402	1268.59997558594
1575.12307238877	1264.19995117188
1575.74578729789	1268
1576.36842087885	1246
1576.99097313912	1253.59997558594
1577.61344408616	1261.59997558594
1578.23583372745	1258.59997558594
1578.85814207046	1262.40002441406
1579.48036912264	1268.40002441406
1580.10251489147	1247.80004882813
1580.72457938441	1252
1581.34656260893	1245.59997558594
1581.9684645725	1247.40002441406
1582.59028528258	1250.19995117188
1583.21202474663	1238.80004882813
1583.83368297212	1234.19995117188
1584.45525996652	1232.80004882813
1585.07675573728	1231
1585.69817029188	1233.80004882813
1586.31950363778	1230.40002441406
1586.94075578243	1226.80004882813
1587.5619267333	1224.59997558594
1588.18301649786	1217.19995117188
1588.80402508357	1222.40002441406
1589.42495249788	1215.19995117188
1590.04579874826	1213.80004882813
1590.66656384217	1210.19995117188
1591.28724778707	1219
1591.90785059042	1221.80004882813
1592.52837225968	1219
1593.14881280232	1219.59997558594
1593.76917222578	1215.80004882813
1594.38945053753	1216.59997558594
1595.00964774502	1225.80004882813
1595.62976385573	1227.59997558594
1596.24979887709	1222
1596.86975281657	1223.40002441406
1597.48962568164	1222.40002441406
1598.10941747974	1215.80004882813
1598.72912821832	1216.80004882813
1599.34875790486	1216.40002441406
1599.9683065468	1202.40002441406
1600.58777415159	1204
1601.2071607267	1209.59997558594
1601.82646627958	1212.80004882813
1602.44569081769	1220.80004882813
1603.06483434846	1220.59997558594
1603.68389687937	1224
1604.30287841786	1223
1604.92177897139	1214
1605.54059854741	1221.19995117188
1606.15933715337	1219.40002441406
1606.77799479672	1232
1607.39657148492	1244.80004882813
1608.01506722542	1241.80004882813
1608.63348202566	1224.19995117188
1609.2518158931	1221.40002441406
1609.87006883519	1220.19995117188
1610.48824085939	1213.40002441406
1611.10633197312	1211.19995117188
1611.72434218386	1214.59997558594
1612.34227149904	1223.19995117188
1612.96011992612	1213.19995117188
1613.57788747254	1206
1614.19557414575	1214.40002441406
1614.8131799532	1212.80004882813
1615.43070490234	1216.80004882813
1616.04814900061	1212.59997558594
1616.66551225545	1222.19995117188
1617.28279467433	1210.80004882813
1617.89999626467	1202
1618.51711703393	1210
1619.13415698955	1208.40002441406
1619.75111613898	1212.80004882813
1620.36799448966	1219.40002441406
1620.98479204903	1219.80004882813
1621.60150882455	1230.19995117188
1622.21814482364	1220
1622.83470005376	1232.80004882813
1623.45117452235	1216.19995117188
1624.06756823685	1222
1624.6838812047	1220
1625.30011343335	1223.40002441406
1625.91626493022	1218.80004882813
1626.53233570278	1220.40002441406
1627.14832575845	1219.40002441406
1627.76423510468	1216.59997558594
1628.38006374891	1216.59997558594
1628.99581169857	1209.19995117188
1629.61147896111	1203
1630.22706554397	1202.80004882813
1630.84257145457	1208.40002441406
1631.45799670038	1186.80004882813
1632.07334128881	1200.59997558594
1632.6886052273	1193.40002441406
1633.3037885233	1194.59997558594
1633.91889118425	1187.59997558594
1634.53391321757	1175.40002441406
1635.1488546307	1184.40002441406
1635.76371543108	1184.80004882813
1636.37849562616	1183
1636.99319522335	1193
1637.60781423009	1200.40002441406
1638.22235265383	1192
1638.83681050198	1195.59997558594
1639.451187782	1190
1640.0654845013	1189.40002441406
1640.67970066734	1217
1641.29383628752	1204.59997558594
1641.9078913693	1208.19995117188
1642.5218659201	1210.80004882813
1643.13575994735	1218.59997558594
1643.74957345849	1221.19995117188
1644.36330646094	1226
1644.97695896213	1234.19995117188
1645.59053096951	1228.59997558594
1646.20402249049	1233.40002441406
1646.8174335325	1235
1647.43076410298	1233.19995117188
1648.04401420935	1215.19995117188
1648.65718385905	1217
1649.2702730595	1226
1649.88328181812	1224.40002441406
1650.49621014236	1227.59997558594
1651.10905803963	1230.40002441406
1651.72182551735	1224.40002441406
1652.33451258297	1218.40002441406
1652.9471192439	1219.59997558594
1653.55964550757	1210.80004882813
1654.1720913814	1209.19995117188
1654.78445687283	1189.80004882813
1655.39674198926	1185
1656.00894673814	1188.19995117188
1656.62107112688	1179
1657.23311516291	1181.59997558594
1657.84507885365	1174.19995117188
1658.45696220652	1175.80004882813
1659.06876522895	1169.80004882813
1659.68048792835	1167.80004882813
1660.29213031217	1156.19995117188
1660.90369238779	1170.19995117188
1661.51517416267	1168.40002441406
1662.12657564421	1169.40002441406
1662.73789683984	1165.40002441406
1663.34913775697	1165.80004882813
1663.96029840303	1159
1664.57137878544	1157.40002441406
1665.18237891161	1152
1665.79329878897	1141
1666.40413842493	1139.40002441406
1667.01489782691	1140
1667.62557700233	1130
1668.2361759586	1132.80004882813
1668.84669470315	1132
1669.4571332434	1130
1670.06749158675	1135
1670.67776974062	1136.40002441406
1671.28796771243	1140.80004882813
1671.8980855096	1138.59997558594
1672.50812313954	1147
1673.11808060967	1144.80004882813
1673.72795792739	1146.80004882813
1674.33775510013	1141
1674.9474721353	1132.59997558594
1675.55710904031	1129.59997558594
1676.16666582257	1128.59997558594
1676.7761424895	1124.40002441406
1677.38553904851	1116.40002441406
1677.99485550702	1115.19995117188
1678.60409187243	1113
1679.21324815215	1112.19995117188
1679.8223243536	1120.19995117188
1680.43132048419	1108
1681.04023655132	1112
1681.64907256241	1116
1682.25782852487	1105.40002441406
1682.86650444611	1103.40002441406
1683.47510033353	1104.80004882813
1684.08361619455	1098.19995117188
1684.69205203657	1099.40002441406
1685.300407867	1099
1685.90868369325	1095.80004882813
1686.51687952272	1097
1687.12499536283	1095.40002441406
1687.73303122098	1107.59997558594
1688.34098710457	1120.19995117188
1688.94886302101	1109.19995117188
1689.55665897772	1116.19995117188
1690.16437498208	1110.59997558594
1690.77201104152	1106.80004882813
1691.37956716342	1107
1691.9870433552	1108.80004882813
1692.59443962426	1106
1693.20175597801	1105
1693.80899242384	1101.59997558594
1694.41614896916	1100.19995117188
1695.02322562138	1096.40002441406
1695.63022238789	1097
1696.23713927609	1098
1696.8439762934	1095.59997558594
1697.4507334472	1095.19995117188
1698.05741074491	1102.19995117188
1698.66400819391	1107
1699.27052580161	1109
1699.87696357542	1111.80004882813
1700.48332152272	1116.59997558594
1701.08959965092	1110.19995117188
1701.69579796742	1105
1702.30191647962	1102.19995117188
1702.90795519491	1091.80004882813
1703.51391412069	1090.80004882813
1704.11979326437	1083
1704.72559263332	1082.80004882813
1705.33131223496	1084.80004882813
1705.93695207668	1085.80004882813
1706.54251216588	1090.40002441406
1707.14799250994	1092.59997558594
1707.75339311628	1094.80004882813
1708.35871399227	1094.80004882813
1708.96395514532	1085.19995117188
1709.56911658282	1090.59997558594
