634.948122577771	1263.19995117188
635.690341530823	1269.19995117188
636.43246851086	1283
637.174503525845	1279
637.916446583745	1281.80004882813
638.658297692538	1270.80004882813
639.400056860179	1265.19995117188
640.141724094637	1274.80004882813
640.883299403885	1279.59997558594
641.62478279588	1277.59997558594
642.366174278594	1280
643.107473859989	1275.40002441406
643.848681548029	1271.40002441406
644.589797350679	1274
645.330821275901	1283.59997558594
646.071753331665	1280.40002441406
646.812593525922	1282.19995117188
647.553341866646	1273.40002441406
648.293998361798	1256.40002441406
649.03456301933	1254.80004882813
649.775035847216	1257
650.515416853409	1251.19995117188
651.255706045874	1248.19995117188
651.995903432568	1258.40002441406
652.736009021453	1265.80004882813
653.476022820486	1266
654.215944837629	1272.19995117188
654.955775080842	1269.80004882813
655.695513558081	1280.59997558594
656.435160277301	1284.59997558594
657.174715246465	1277.40002441406
657.914178473527	1285
658.653549966449	1286.40002441406
659.392829733176	1290.40002441406
660.132017781678	1285.19995117188
660.871114119901	1283
661.610118755803	1288.80004882813
662.349031697343	1287
663.087852952468	1300.19995117188
663.826582529139	1300.59997558594
664.565220435305	1302
665.30376667892	1290.59997558594
666.04222126794	1286.40002441406
666.780584210316	1291.80004882813
667.518855514	1291
668.25703518694	1286
668.995123237096	1289.59997558594
669.733119672413	1290.19995117188
670.471024500842	1304.59997558594
671.208837730333	1303
671.946559368839	1297
672.684189424308	1295
673.421727904689	1291.19995117188
674.159174817929	1292.59997558594
674.896530171977	1290.59997558594
675.633793974786	1293.59997558594
676.370966234295	1295
677.108046958461	1310
677.845036155219	1306.19995117188
678.581933832528	1308
679.318739998323	1290.40002441406
680.055454660558	1290.40002441406
680.792077827172	1290.19995117188
681.528609506116	1296.40002441406
682.265049705331	1292.80004882813
683.001398432759	1310
683.737655696349	1293
684.47382150404	1286
685.20989586378	1291.40002441406
685.945878783503	1296.19995117188
686.68177027116	1304.80004882813
687.417570334688	1298.80004882813
688.153278982032	1302.40002441406
688.888896221129	1295.80004882813
689.624422059921	1291.40002441406
690.359856506349	1291.80004882813
691.095199568354	1291.40002441406
691.830451253874	1291
692.565611570844	1287.40002441406
693.300680527212	1294.80004882813
694.03565813091	1298.59997558594
694.770544389877	1290.59997558594
695.505339312053	1281.80004882813
696.240042905372	1286.40002441406
696.974655177772	1277.80004882813
697.70917613719	1286.80004882813
698.443605791561	1286.19995117188
699.177944148826	1290.19995117188
699.912191216909	1287.40002441406
700.646347003755	1296.59997558594
701.380411517295	1286
702.114384765465	1287.19995117188
702.848266756195	1291.59997558594
703.582057497421	1295
704.315756997074	1292.80004882813
705.049365263089	1300.80004882813
705.782882303399	1300.40002441406
706.516308125936	1297.19995117188
707.249642738626	1289.19995117188
707.982886149403	1294.59997558594
708.716038366204	1280.19995117188
709.449099396949	1283.19995117188
710.182069249577	1293
710.914947932009	1291.59997558594
711.647735452181	1297.80004882813
712.380431818022	1299.19995117188
713.113037037454	1301.19995117188
713.845551118411	1292
714.577974068818	1296
715.310305896604	1301.19995117188
716.042546609694	1284.19995117188
716.774696216013	1292.80004882813
717.506754723493	1288.40002441406
718.238722140053	1297.59997558594
718.970598473624	1287.40002441406
719.702383732127	1299.59997558594
720.43407792349	1299.40002441406
721.165681055634	1297.80004882813
721.897193136486	1304.19995117188
722.628614173966	1309.40002441406
723.359944175997	1312.80004882813
724.091183150505	1299.80004882813
724.822331105412	1306.59997558594
725.553388048638	1317.19995117188
726.284353988106	1323.80004882813
727.015228931734	1312.40002441406
727.746012887449	1315.80004882813
728.476705863162	1318.59997558594
729.207307866803	1303.80004882813
729.937818906289	1306.40002441406
730.668238989535	1289.80004882813
731.398568124459	1291.59997558594
732.128806318986	1292.59997558594
732.858953581034	1292.40002441406
733.589009918514	1295
734.318975339348	1284
735.048849851452	1277.59997558594
735.778633462744	1289.59997558594
736.508326181137	1299.80004882813
737.237928014549	1289.40002441406
737.967438970897	1300.59997558594
738.696859058095	1302.40002441406
739.426188284054	1288.19995117188
740.155426656692	1280.40002441406
740.884574183922	1280.59997558594
741.613630873659	1272.19995117188
742.342596733815	1271.80004882813
743.071471772302	1284.59997558594
743.800255997034	1290.40002441406
744.528949415921	1287.40002441406
745.257552036877	1300.19995117188
745.986063867811	1319
746.714484916638	1298
747.442815191261	1293.19995117188
748.171054699597	1292.59997558594
748.899203449554	1296.19995117188
749.627261449039	1302.59997558594
750.355228705966	1299.59997558594
751.083105228239	1294.80004882813
751.810891023765	1294.40002441406
752.538586100459	1295.40002441406
753.266190466218	1303.80004882813
753.99370412896	1292.59997558594
754.721127096582	1289.59997558594
755.448459377	1318.40002441406
756.175700978114	1309.80004882813
756.902851907828	1296.40002441406
757.629912174055	1295.40002441406
758.356881784688	1291.19995117188
759.083760747639	1288.40002441406
759.810549070817	1294.19995117188
760.537246762113	1295.80004882813
761.263853829442	1295.59997558594
761.990370280698	1292.80004882813
762.716796123791	1300.19995117188
763.443131366618	1295
764.169376017082	1297.19995117188
764.895530083085	1304.40002441406
765.621593572527	1305.40002441406
766.347566493312	1319.80004882813
767.073448853336	1331.80004882813
767.799240660502	1316.40002441406
768.524941922707	1323
769.250552647854	1347.80004882813
769.976072843836	1345
770.701502518551	1349.80004882813
771.426841679905	1363.19995117188
772.152090335793	1347.80004882813
772.877248494107	1363
773.602316162747	1345.80004882813
774.327293349609	1355
775.052180062592	1359.59997558594
775.776976309589	1361
776.501682098496	1350.19995117188
777.226297437206	1347.80004882813
777.950822333616	1349.40002441406
778.675256795621	1352.80004882813
779.399600831111	1346.19995117188
780.123854447983	1328.40002441406
780.84801765413	1334.59997558594
781.572090457441	1330.80004882813
782.296072865811	1332.19995117188
783.019964887131	1316.80004882813
783.743766529297	1307.59997558594
784.467477800194	1316.19995117188
785.191098707719	1312.80004882813
785.914629259756	1311.19995117188
786.638069464194	1297.59997558594
787.361419328932	1291.19995117188
788.084678861852	1293.40002441406
788.807848070845	1289
789.530926963798	1301.40002441406
790.253915548602	1295.80004882813
790.976813833144	1298.40002441406
791.699621825307	1298.40002441406
792.422339532986	1305.59997558594
793.144966964061	1287.80004882813
793.86750412642	1291.59997558594
794.589951027946	1287.40002441406
795.312307676536	1288.40002441406
796.03457408006	1279.59997558594
796.756750246417	1294
797.478836183477	1280
798.200831899137	1276.59997558594
798.92273740127	1274.59997558594
799.644552697769	1274
800.36627779651	1282.19995117188
801.087912705374	1283.40002441406
801.809457432251	1282.80004882813
802.530911985017	1283.80004882813
803.252276371558	1292.40002441406
803.973550599748	1301.40002441406
804.694734677472	1289.19995117188
805.415828612611	1291.19995117188
806.136832413045	1307
806.857746086646	1293
807.578569641305	1302.19995117188
808.299303084892	1312
809.019946425289	1300.59997558594
809.740499670372	1312.19995117188
810.460962828022	1318.19995117188
811.181335906114	1305.40002441406
811.901618912524	1301
812.621811855131	1293.59997558594
813.341914741809	1287.19995117188
814.061927580433	1303
814.781850378881	1293.59997558594
815.501683145025	1283.40002441406
816.221425886743	1272.40002441406
816.941078611903	1279
817.660641328387	1283.59997558594
818.380114044065	1287.19995117188
819.099496766808	1284.80004882813
819.818789504492	1287.40002441406
820.53799226499	1299.40002441406
821.257105056168	1298.80004882813
821.976127885904	1293
822.695060762064	1294.80004882813
823.413903692525	1306.19995117188
824.132656685151	1294.80004882813
824.851319747817	1289.40002441406
825.569892888388	1277
826.288376114739	1270
827.006769434737	1269.59997558594
827.725072856249	1266.19995117188
828.443286387142	1275.59997558594
829.161410035285	1276.40002441406
829.87944380855	1286.40002441406
830.597387714798	1288.59997558594
831.315241761898	1300.40002441406
832.033005957715	1303
832.750680310119	1292.59997558594
833.468264826969	1297
834.18575951614	1291.59997558594
834.903164385486	1297.19995117188
835.620479442878	1289.80004882813
836.337704696181	1291.59997558594
837.054840153255	1286.59997558594
837.771885821962	1280.40002441406
838.488841710172	1272.19995117188
839.20570782574	1278
839.922484176531	1275.40002441406
840.639170770409	1282.19995117188
841.355767615231	1274.59997558594
842.072274718864	1276.59997558594
842.788692089164	1266
843.505019733993	1272.19995117188
844.221257661209	1270
844.937405878676	1262.80004882813
845.65346439425	1261
846.369433215789	1267.59997558594
847.085312351156	1275.19995117188
847.801101808205	1273.19995117188
848.516801594793	1276.59997558594
849.232411718781	1287.59997558594
849.947932188021	1287
850.663363010376	1294.80004882813
851.378704193698	1286.19995117188
852.093955745842	1283
852.809117674669	1274.80004882813
853.524189988028	1278.40002441406
854.239172693778	1285
854.954065799768	1270.59997558594
855.668869313857	1268.40002441406
856.383583243899	1263.80004882813
857.098207597743	1268.80004882813
857.812742383246	1260.80004882813
858.527187608255	1267.59997558594
859.241543280628	1271.40002441406
859.955809408218	1292
860.669985998868	1295
861.384073060437	1281.80004882813
862.098070600772	1287
862.811978627724	1267.19995117188
863.52579714914	1266
864.239526172873	1265.59997558594
864.953165706776	1251
865.666715758687	1257.19995117188
866.380176336464	1267.40002441406
867.093547447951	1273
867.806829100996	1279.19995117188
868.520021303444	1280.80004882813
869.233124063149	1270.40002441406
869.94613738795	1262.59997558594
870.659061285693	1267
871.37189576423	1272.40002441406
872.084640831403	1276.59997558594
872.797296495057	1259.80004882813
873.509862763039	1258.80004882813
874.22233964319	1267.40002441406
874.934727143353	1265.19995117188
875.647025271374	1270.80004882813
876.359234035097	1281.19995117188
877.071353442361	1281.59997558594
877.783383501015	1290.19995117188
878.495324218895	1280.40002441406
879.207175603844	1278.19995117188
879.918937663705	1273.80004882813
880.630610406318	1276.40002441406
881.342193839524	1267.40002441406
882.053687971161	1259.59997558594
882.765092809069	1275.19995117188
883.476408361091	1263.59997558594
884.187634635066	1267.59997558594
884.898771638828	1260.80004882813
885.609819380221	1282.59997558594
886.320777867076	1276.40002441406
887.031647107236	1275.80004882813
887.742427108536	1269.40002441406
888.453117878816	1282.19995117188
889.16371942591	1274.59997558594
889.874231757652	1275.59997558594
890.584654881883	1288.40002441406
891.294988806434	1277.59997558594
892.005233539141	1281.80004882813
892.715389087837	1284.80004882813
893.42545546036	1286.59997558594
894.135432664543	1283.59997558594
894.845320708216	1283.59997558594
895.555119599216	1280.80004882813
896.264829345375	1285.40002441406
896.974449954526	1275
897.683981434496	1272.40002441406
898.393423793125	1273.59997558594
899.102777038235	1282.19995117188
899.812041177664	1274
900.521216219239	1268
901.230302170793	1267.19995117188
901.939299040155	1259.80004882813
902.64820683515	1263.59997558594
903.357025563612	1250.80004882813
904.065755233368	1257
904.774395852247	1244.19995117188
905.482947428076	1257
906.191409968682	1261.40002441406
906.899783481897	1263.80004882813
907.608067975538	1269.80004882813
908.316263457443	1276.19995117188
909.02436993543	1275.19995117188
909.732387417327	1282.19995117188
910.440315910959	1277.19995117188
911.148155424154	1280.80004882813
911.855905964731	1282
912.563567540521	1288.59997558594
913.271140159339	1295.40002441406
913.978623829017	1290
914.686018557374	1286.19995117188
915.393324352237	1282.40002441406
916.100541221421	1274.19995117188
916.807669172752	1280.19995117188
917.514708214054	1279.19995117188
918.221658353142	1278.59997558594
918.928519597843	1291
919.635291955976	1283.40002441406
920.341975435358	1284.40002441406
921.048570043813	1291.80004882813
921.75507578916	1282.40002441406
922.461492679212	1282.19995117188
923.167820721795	1286.80004882813
923.874059924726	1284.59997558594
924.58021029582	1283.19995117188
925.286271842893	1284.59997558594
925.992244573769	1279.19995117188
926.698128496262	1280.19995117188
927.403923618184	1284
928.109629947355	1278.80004882813
928.815247491593	1269
929.520776258708	1271.80004882813
930.226216256519	1280.59997558594
930.931567492841	1274
931.636829975482	1266.59997558594
932.342003712263	1273.80004882813
933.047088710995	1267.19995117188
933.752084979491	1267.80004882813
934.456992525564	1274
935.161811357024	1268.80004882813
935.866541481688	1268.59997558594
936.571182907363	1270
937.275735641861	1278.80004882813
937.980199692995	1277.19995117188
938.684575068572	1272.80004882813
939.388861776411	1265
940.093059824311	1266.80004882813
940.797169220085	1263.40002441406
941.501189971544	1247.59997558594
942.205122086495	1252
942.908965572751	1249.19995117188
943.612720438111	1256
944.316386690391	1265
945.019964337391	1261
945.723453386924	1259.40002441406
946.426853846795	1264.80004882813
947.130165724808	1265.80004882813
947.83338902877	1255.40002441406
948.536523766488	1254
949.239569945764	1255.19995117188
949.942527574402	1259
950.64539666021	1252.40002441406
951.348177210993	1249
952.050869234548	1250.19995117188
952.753472738683	1262.59997558594
953.455987731199	1249.80004882813
954.158414219898	1247
954.860752212587	1249.19995117188
955.563001717061	1258.80004882813
956.265162741124	1262.80004882813
956.967235292576	1258.40002441406
957.669219379224	1257.19995117188
958.371115008857	1262.40002441406
959.072922189283	1271.59997558594
959.774640928301	1255.80004882813
960.476271233708	1251.19995117188
961.177813113301	1250
961.879266574882	1240.40002441406
962.580631626248	1235.80004882813
963.281908275194	1238.19995117188
963.98309652952	1242.19995117188
964.684196397022	1241.40002441406
965.3852078855	1247
966.086131002745	1242.59997558594
966.786965756555	1232.80004882813
967.487712154726	1240.80004882813
968.188370205055	1240.40002441406
968.888939915331	1241.40002441406
969.589421293352	1246
970.289814346909	1251.19995117188
970.990119083801	1258
971.690335511819	1250
972.39046363875	1244.80004882813
973.090503472398	1236.80004882813
973.790455020545	1242.19995117188
974.490318290987	1252.80004882813
975.190093291516	1255.59997558594
975.889780029923	1252
976.589378513998	1246.40002441406
977.288888751527	1242.19995117188
977.988310750308	1236.19995117188
978.687644518122	1244.59997558594
979.386890062767	1245.80004882813
980.086047392025	1237.40002441406
980.785116513689	1241.80004882813
981.484097435542	1247.59997558594
982.182990165377	1245.19995117188
982.88179471098	1250.59997558594
983.580511080137	1252
984.279139280632	1243
984.977679320253	1254.80004882813
985.67613120679	1249
986.374494948027	1254.80004882813
987.072770551745	1252.19995117188
987.770958025731	1245.59997558594
988.469057377772	1245.80004882813
989.167068615649	1246.59997558594
989.864991747145	1237
990.562826780047	1237.19995117188
991.260573722134	1236.80004882813
991.958232581195	1233.19995117188
992.655803365003	1230.59997558594
993.353286081346	1234
994.050680738006	1245.59997558594
994.74798734276	1246.59997558594
995.44520590339	1232.59997558594
996.142336427681	1242.80004882813
996.839378923407	1244.80004882813
997.536333398348	1239
998.233199860289	1244.59997558594
998.929978317004	1241.40002441406
999.626668776274	1239.59997558594
1000.32327124587	1234.19995117188
1001.01978573359	1223.19995117188
1001.71621224718	1224
1002.41255079445	1216.40002441406
1003.10880138315	1222.80004882813
1003.80496402107	1217.40002441406
1004.50103871599	1221.59997558594
1005.19702547567	1229
1005.8929243079	1227
1006.58873522045	1242.40002441406
1007.2844582211	1234.80004882813
1007.98009331761	1249.40002441406
1008.67564051776	1245.80004882813
1009.37109982933	1247.19995117188
1010.06647126009	1253
1010.7617548178	1247.59997558594
1011.45695051026	1247.80004882813
1012.15205834522	1250.59997558594
1012.84707833045	1246.59997558594
1013.54201047373	1240.80004882813
1014.23685478284	1237.40002441406
1014.93161126553	1246.40002441406
1015.62627992959	1235.19995117188
1016.32086078277	1236.40002441406
1017.01535383285	1233.40002441406
1017.70975908761	1231.40002441406
1018.40407655479	1247
1019.09830624219	1243
1019.79244815755	1251.40002441406
1020.48650230866	1240.40002441406
1021.18046870328	1242.59997558594
1021.87434734917	1237.80004882813
1022.56813825411	1242.59997558594
1023.26184142584	1242.59997558594
1023.95545687216	1242.40002441406
1024.64898460082	1249.40002441406
1025.34242461957	1231.59997558594
1026.0357769362	1242.80004882813
1026.72904155846	1239
1027.42221849412	1246.40002441406
1028.11530775094	1246.40002441406
1028.80830933668	1236
1029.50122325911	1235
1030.19404952599	1233.19995117188
1030.88678814508	1218.59997558594
1031.57943912414	1225.40002441406
1032.27200247093	1231.80004882813
1032.96447819323	1243
1033.65686629878	1242.19995117188
1034.34916679534	1235.80004882813
1035.04137969068	1231
1035.73350499256	1230.19995117188
1036.42554270874	1235.80004882813
1037.11749284697	1236.19995117188
1037.80935541501	1235.19995117188
1038.50113042062	1234.80004882813
1039.19281787156	1224.80004882813
1039.88441777559	1222.19995117188
1040.57593014046	1233
1041.26735497393	1232.59997558594
1041.95869228376	1227.80004882813
1042.6499420777	1217.59997558594
1043.3411043635	1221.59997558594
1044.03217914893	1225.19995117188
1044.72316644174	1227
1045.41406624968	1230.40002441406
1046.1048785805	1224.80004882813
1046.79560344197	1225
1047.48624084182	1223.19995117188
1048.17679078783	1229.40002441406
1048.86725328774	1209.80004882813
1049.55762834929	1218
1050.24791598025	1210.40002441406
1050.93811618837	1222.59997558594
1051.62822898139	1211.19995117188
1052.31825436707	1225.19995117188
1053.00819235315	1230
1053.6980429474	1231.19995117188
1054.38780615755	1215
1055.07748199136	1221.19995117188
1055.76707045658	1217.80004882813
1056.45657156095	1216
1057.14598531222	1230.40002441406
1057.83531171814	1225.40002441406
1058.52455078646	1212.19995117188
1059.21370252494	1222
1059.90276694129	1233
1060.5917440433	1233.80004882813
1061.28063383868	1225.59997558594
1061.9694363352	1215.40002441406
1062.65815154059	1213.19995117188
1063.34677946261	1219
1064.03532010899	1213
1064.72377348748	1210
1065.41213960583	1211.80004882813
1066.10041847177	1214.80004882813
1066.78861009306	1218.40002441406
1067.47671447743	1212.19995117188
1068.16473163263	1227.40002441406
1068.85266156639	1221.19995117188
1069.54050428647	1229.59997558594
1070.2282598006	1233
1070.91592811652	1233.40002441406
1071.60350924198	1226
1072.29100318471	1240.19995117188
1072.97840995245	1223.40002441406
1073.66572955295	1227.80004882813
1074.35296199394	1227
1075.04010728316	1220
1075.72716542836	1206.80004882813
1076.41413643726	1209
1077.10102031761	1220
1077.78781707715	1216.80004882813
1078.4745267236	1218.19995117188
1079.16114926471	1218
1079.84768470822	1216.40002441406
1080.53413306185	1215.19995117188
1081.22049433336	1218.80004882813
1081.90676853046	1217.80004882813
1082.5929556609	1228.40002441406
1083.27905573241	1221.40002441406
1083.96506875272	1220.80004882813
1084.65099472957	1227.19995117188
1085.3368336707	1222.40002441406
1086.02258558383	1221
1086.70825047669	1211.59997558594
1087.39382835703	1218.59997558594
1088.07931923257	1212.59997558594
1088.76472311104	1214.19995117188
1089.45004000018	1213.19995117188
1090.13526990771	1220.19995117188
1090.82041284137	1224.19995117188
1091.50546880889	1211.19995117188
1092.19043781799	1216.80004882813
1092.87531987642	1221
1093.56011499188	1206.80004882813
1094.24482317212	1208.40002441406
1094.92944442486	1202.19995117188
1095.61397875783	1209.80004882813
1096.29842617876	1193.80004882813
1096.98278669537	1211.40002441406
1097.6670603154	1214.19995117188
1098.35124704656	1208.80004882813
1099.03534689659	1210.40002441406
1099.71935987322	1220.19995117188
1100.40328598416	1217.40002441406
1101.08712523713	1212.40002441406
1101.77087763988	1211.19995117188
1102.45454320012	1219
1103.13812192557	1223.19995117188
1103.82161382396	1211.80004882813
1104.50501890301	1205
1105.18833717045	1204.19995117188
1105.87156863399	1207.19995117188
1106.55471330137	1204
1107.2377711803	1209
1107.9207422785	1199
1108.60362660369	1210.59997558594
1109.2864241636	1214.80004882813
1109.96913496594	1210.19995117188
1110.65175901844	1213.80004882813
1111.33429632882	1210.19995117188
1112.01674690479	1207.40002441406
1112.69911075408	1200.80004882813
1113.38138788439	1214.40002441406
1114.06357830346	1218
1114.745682019	1200.59997558594
1115.42769903872	1215.19995117188
1116.10962937035	1216.80004882813
1116.7914730216	1217.80004882813
1117.47323000018	1215.40002441406
1118.15490031382	1219.19995117188
1118.83648397022	1218.19995117188
1119.51798097712	1223.19995117188
1120.1993913422	1218
1120.88071507321	1227
1121.56195217784	1225.19995117188
1122.24310266381	1218
1122.92416653884	1226.59997558594
1123.60514381064	1211.40002441406
1124.28603448692	1224
1124.9668385754	1217.19995117188
1125.64755608378	1215.59997558594
1126.32818701978	1215.59997558594
1127.00873139111	1206.59997558594
1127.68918920548	1205
1128.3695604706	1220.40002441406
1129.04984519419	1213.19995117188
1129.73004338394	1221.19995117188
1130.41015504758	1234.80004882813
1131.09018019281	1227.40002441406
1131.77011882734	1224.80004882813
1132.44997095888	1216.80004882813
1133.12973659514	1217
1133.80941574381	1202.40002441406
1134.48900841263	1211.19995117188
1135.16851460927	1213.80004882813
1135.84793434147	1213.59997558594
1136.52726761692	1211
1137.20651444333	1220.59997558594
1137.8856748284	1206.19995117188
1138.56474877984	1215.19995117188
1139.24373630536	1218
1139.92263741265	1220.40002441406
1140.60145210943	1211.19995117188
1141.28018040339	1218.40002441406
1141.95882230225	1212.40002441406
1142.6373778137	1204.80004882813
1143.31584694545	1216.80004882813
1143.99422970519	1213
1144.67252610064	1214
1145.35073613949	1205.19995117188
1146.02885982944	1201.40002441406
1146.7068971782	1198
1147.38484819347	1197
1148.06271288294	1196.80004882813
1148.74049125432	1201.40002441406
1149.41818331531	1203.19995117188
1150.0957890736	1200.40002441406
1150.77330853689	1208.19995117188
1151.45074171289	1205.19995117188
1152.12808860928	1208.19995117188
1152.80534923378	1185.80004882813
1153.48252359407	1184
1154.15961169786	1195.59997558594
1154.83661355283	1206.59997558594
1155.51352916669	1202.80004882813
1156.19035854713	1206.80004882813
1156.86710170185	1212.80004882813
1157.54375863855	1194.59997558594
1158.22032936491	1196
1158.89681388863	1196.59997558594
1159.57321221741	1189
1160.24952435894	1194.19995117188
1160.92575032092	1194.40002441406
1161.60189011103	1200
1162.27794373697	1198
1162.95391120644	1203.40002441406
1163.62979252712	1203.40002441406
1164.3055877067	1199.19995117188
1164.98129675288	1215.40002441406
1165.65691967336	1218
1166.33245647581	1206.59997558594
1167.00790716792	1220.40002441406
1167.6832717574	1209.59997558594
1168.35855025193	1210.19995117188
1169.0337426592	1204.80004882813
1169.70884898689	1205.80004882813
1170.3838692427	1202.59997558594
1171.05880343431	1214
1171.73365156941	1215.19995117188
1172.40841365569	1202.40002441406
1173.08308970083	1209.40002441406
1173.75767971253	1203.59997558594
1174.43218369847	1215.59997558594
1175.10660166633	1207.40002441406
1175.7809336238	1222.19995117188
1176.45517957857	1224.19995117188
1177.12933953832	1231.40002441406
1177.80341351073	1221.80004882813
1178.47740150349	1220.19995117188
1179.15130352429	1217.19995117188
1179.8251195808	1223.19995117188
1180.49884968071	1221.80004882813
1181.1724938317	1216.80004882813
1181.84605204145	1225
1182.51952431766	1214.59997558594
1183.19291066799	1222.80004882813
1183.86621110013	1228.59997558594
1184.53942562176	1226.59997558594
1185.21255424057	1239.80004882813
1185.88559696422	1230
1186.55855380041	1230.80004882813
1187.2314247568	1245
1187.90420984109	1242
1188.57690906095	1237.40002441406
1189.24952242405	1223.40002441406
1189.92204993808	1227.59997558594
1190.59449161071	1232.40002441406
1191.26684744962	1243.80004882813
1191.93911746249	1229.19995117188
1192.61130165699	1224
1193.28340004081	1227.80004882813
1193.95541262161	1211.80004882813
1194.62733940707	1229.40002441406
1195.29918040487	1217.59997558594
1195.97093562269	1219.80004882813
1196.64260506819	1229.80004882813
1197.31418874905	1223.40002441406
1197.98568667295	1224.19995117188
1198.65709884755	1232.59997558594
1199.32842528053	1232.40002441406
1199.99966597957	1218.19995117188
1200.67082095234	1213.80004882813
1201.3418902065	1211.40002441406
1202.01287374974	1206.59997558594
1202.68377158971	1200.59997558594
1203.3545837341	1200.80004882813
1204.02531019057	1201.59997558594
1204.6959509668	1198
1205.36650607045	1204.59997558594
1206.03697550919	1200.80004882813
1206.70735929069	1204.59997558594
1207.37765742263	1198
1208.04786991266	1201.40002441406
1208.71799676846	1189.80004882813
1209.38803799769	1182.19995117188
1210.05799360803	1189.40002441406
1210.72786360714	1194.40002441406
1211.39764800268	1196
1212.06734680233	1193
1212.73696001375	1200.40002441406
1213.4064876446	1195.40002441406
1214.07592970255	1200.59997558594
1214.74528619526	1205
1215.4145571304	1193.59997558594
1216.08374251564	1198
1216.75284235863	1198
1217.42185666704	1199.19995117188
1218.09078544854	1194.80004882813
1218.75962871078	1192.19995117188
1219.42838646143	1201.59997558594
1220.09705870816	1204.19995117188
1220.76564545861	1189.59997558594
1221.43414672046	1192.40002441406
1222.10256250136	1183.80004882813
1222.77089280898	1196.19995117188
1223.43913765098	1185.19995117188
1224.107297035	1190.40002441406
1224.77537096873	1193.19995117188
1225.44335945981	1182.80004882813
1226.1112625159	1180.19995117188
1226.77908014467	1181.59997558594
1227.44681235376	1184.80004882813
1228.11445915085	1186.40002441406
1228.78202054357	1200.19995117188
1229.44949653961	1192.19995117188
1230.11688714659	1201
1230.7841923722	1194.40002441406
1231.45141222407	1189.80004882813
1232.11854670988	1185.59997558594
1232.78559583726	1200
1233.45255961388	1200.80004882813
1234.1194380474	1199.40002441406
1234.78623114546	1196
1235.45293891572	1190.59997558594
1236.11956136583	1200.59997558594
1236.78609850345	1205.59997558594
1237.45255033623	1200.40002441406
1238.11891687182	1184
1238.78519811788	1185.80004882813
1239.45139408205	1180
1240.11750477198	1178
1240.78353019534	1174.40002441406
1241.44947035976	1182.59997558594
1242.11532527291	1180.19995117188
1242.78109494242	1187.19995117188
1243.44677937595	1176.40002441406
1244.11237858115	1181.80004882813
1244.77789256567	1183.19995117188
1245.44332133715	1184.59997558594
1246.10866490325	1182
1246.7739232716	1184.40002441406
1247.43909644987	1189.59997558594
1248.10418444569	1185.19995117188
1248.76918726671	1191.59997558594
1249.43410492059	1187.19995117188
1250.09893741496	1186.59997558594
1250.76368475747	1186.80004882813
1251.42834695576	1180.40002441406
1252.09292401749	1193.40002441406
1252.75741595029	1181.19995117188
1253.42182276182	1180.40002441406
1254.08614445971	1175.40002441406
1254.75038105161	1180
1255.41453254515	1180
1256.07859894799	1186.19995117188
1256.74258026777	1183.40002441406
1257.40647651213	1184.80004882813
1258.0702876887	1185.19995117188
1258.73401380514	1189.40002441406
1259.39765486908	1195
1260.06121088817	1183.40002441406
1260.72468187004	1184.40002441406
1261.38806782233	1179.40002441406
1262.05136875269	1180.19995117188
1262.71458466875	1187.19995117188
1263.37771557815	1183.19995117188
1264.04076148854	1184.19995117188
1264.70372240753	1181.40002441406
1265.3665983428	1179.19995117188
1266.02938930195	1187.59997558594
1266.69209529263	1187.19995117188
1267.35471632249	1178.59997558594
1268.01725239914	1177.40002441406
1268.67970353024	1177.59997558594
1269.34206972342	1177.59997558594
1270.00435098631	1189.40002441406
1270.66654732655	1171
1271.32865875177	1184
1271.9906852696	1187.59997558594
1272.65262688768	1176.19995117188
1273.31448361365	1174.19995117188
1273.97625545514	1181.80004882813
1274.63794241978	1179.80004882813
1275.2995445152	1177.80004882813
1275.96106174903	1185.80004882813
1276.62249412892	1178.59997558594
1277.28384166248	1174.80004882813
1277.94510435735	1174.80004882813
1278.60628222116	1186.40002441406
1279.26737526155	1172.19995117188
1279.92838348613	1180.40002441406
1280.58930690255	1180.19995117188
1281.25014551842	1181.40002441406
1281.91089934139	1169.59997558594
1282.57156837907	1175.59997558594
1283.2321526391	1183.40002441406
1283.89265212911	1186.59997558594
1284.55306685671	1179.19995117188
1285.21339682955	1180.19995117188
1285.87364205525	1182.40002441406
1286.53380254142	1176
1287.19387829571	1170.80004882813
1287.85386932573	1170.40002441406
1288.51377563911	1169.80004882813
1289.17359724348	1176.40002441406
1289.83333414646	1171.59997558594
1290.49298635567	1182.40002441406
1291.15255387874	1174.59997558594
1291.8120367233	1170.19995117188
1292.47143489696	1178.19995117188
1293.13074840736	1184
1293.7899772621	1179.59997558594
1294.44912146882	1176.59997558594
1295.10818103513	1179.19995117188
1295.76715596866	1175
1296.42604627704	1166.19995117188
1297.08485196787	1170.40002441406
1297.74357304878	1184.19995117188
1298.4022095274	1183.59997558594
1299.06076141134	1190
1299.71922870821	1185.59997558594
1300.37761142565	1188.40002441406
1301.03590957126	1191.19995117188
1301.69412315268	1196.19995117188
1302.3522521775	1201.40002441406
1303.01029665336	1194.40002441406
1303.66825658787	1199.59997558594
1304.32613198865	1194
1304.98392286332	1198.59997558594
1305.64162921948	1201.59997558594
1306.29925106476	1189.59997558594
1306.95678840677	1191.19995117188
1307.61424125312	1191.19995117188
1308.27160961145	1187.80004882813
1308.92889348934	1185
1309.58609289443	1180.80004882813
1310.24320783432	1202
1310.90023831664	1189.19995117188
1311.55718434898	1192.40002441406
1312.21404593897	1193.59997558594
1312.87082309421	1197
1313.52751582233	1198.59997558594
1314.18412413092	1193.40002441406
1314.84064802761	1207.40002441406
1315.49708752	1198
1316.1534426157	1196.80004882813
1316.80971332233	1202.40002441406
1317.46589964749	1195.19995117188
1318.1220015988	1198
1318.77801918386	1204.40002441406
1319.43395241028	1206
1320.08980128567	1193
1320.74556581764	1193
1321.4012460138	1198.59997558594
1322.05684188176	1200.40002441406
1322.71235342911	1198.59997558594
1323.36778066347	1201
1324.02312359245	1197
1324.67838222365	1207.59997558594
1325.33355656468	1195.40002441406
1325.98864662314	1194.40002441406
1326.64365240663	1189.59997558594
1327.29857392277	1187.19995117188
1327.95341117915	1185.19995117188
1328.60816418339	1171.59997558594
1329.26283294308	1173.59997558594
1329.91741746582	1167.80004882813
1330.57191775923	1164.59997558594
1331.2263338309	1160.19995117188
1331.88066568843	1162
1332.53491333943	1167.59997558594
1333.1890767915	1176.59997558594
1333.84315605224	1176
1334.49715112925	1176.59997558594
1335.15106203013	1183.40002441406
1335.80488876249	1188
1336.45863133391	1196.40002441406
1337.112289752	1205
1337.76586402437	1189.59997558594
1338.4193541586	1185.19995117188
1339.0727601623	1190.19995117188
1339.72608204306	1197.19995117188
1340.37931980849	1198
1341.03247346617	1205.40002441406
1341.68554302372	1207.40002441406
1342.33852848871	1203.59997558594
1342.99142986876	1201
1343.64424717145	1195.59997558594
1344.29698040438	1199.80004882813
1344.94962957515	1203
1345.60219469135	1208.59997558594
1346.25467576058	1214
1346.90707279042	1201.40002441406
1347.55938578848	1206.19995117188
1348.21161476235	1192.19995117188
1348.86375971962	1185.59997558594
1349.51582066787	1196.59997558594
1350.16779761472	1188.59997558594
1350.81969056774	1199.80004882813
1351.47149953453	1211.80004882813
1352.12322452269	1220.19995117188
1352.77486553979	1205.59997558594
1353.42642259344	1211.80004882813
1354.07789569122	1206
1354.72928484072	1202.19995117188
1355.38059004953	1213.40002441406
1356.03181132525	1212.59997558594
1356.68294867545	1216.59997558594
1357.33400210773	1215.80004882813
1357.98497162968	1219.80004882813
1358.63585724889	1221.19995117188
1359.28665897294	1209
1359.93737680942	1225.59997558594
1360.58801076591	1229.19995117188
1361.23856085001	1228.40002441406
1361.88902706929	1226
1362.53940943135	1223.40002441406
1363.18970794377	1232.40002441406
1363.83992261413	1224.40002441406
1364.49005345003	1230.19995117188
1365.14010045904	1223.40002441406
1365.79006364874	1225.59997558594
1366.43994302673	1220.40002441406
1367.08973860058	1212.59997558594
1367.73945037788	1207.19995117188
1368.38907836621	1213
1369.03862257315	1200.19995117188
1369.68808300629	1199.40002441406
1370.3374596732	1204
1370.98675258148	1191.80004882813
1371.63596173868	1201.19995117188
1372.28508715241	1194
1372.93412883024	1206.19995117188
1373.58308677974	1192.40002441406
1374.2319610085	1202.59997558594
1374.8807515241	1186
1375.52945833412	1192.40002441406
1376.17808144612	1190.40002441406
1376.82662086771	1189
1377.47507660644	1185.80004882813
1378.12344866989	1181.59997558594
1378.77173706565	1180.19995117188
1379.41994180129	1177.80004882813
1380.06806288439	1178
1380.71610032252	1173.59997558594
1381.36405412326	1173.19995117188
1382.01192429419	1166
1382.65971084287	1178.80004882813
1383.30741377688	1174.19995117188
1383.95503310381	1173.19995117188
1384.60256883121	1170.40002441406
1385.25002096667	1177.80004882813
1385.89738951775	1169.80004882813
1386.54467449204	1174
1387.19187589709	1167.80004882813
1387.8389937405	1174.40002441406
1388.48602802982	1156
1389.13297877262	1166.80004882813
1389.77984597649	1176.80004882813
1390.42662964899	1169.40002441406
1391.07332979768	1166.40002441406
1391.71994643015	1165.40002441406
1392.36647955395	1162.80004882813
1393.01292917667	1166.19995117188
1393.65929530586	1162.19995117188
1394.3055779491	1167.19995117188
1394.95177711395	1162.19995117188
1395.59789280799	1167.19995117188
1396.24392503877	1160.59997558594
1396.88987381387	1172.19995117188
1397.53573914086	1164.40002441406
1398.1815210273	1167.80004882813
1398.82721948075	1162.80004882813
1399.47283450878	1164.80004882813
1400.11836611897	1165.40002441406
1400.76381431886	1167
1401.40917911603	1171.59997558594
1402.05446051805	1161.80004882813
1402.69965853247	1165.40002441406
1403.34477316686	1166.19995117188
1403.98980442878	1170.19995117188
1404.6347523258	1151.40002441406
1405.27961686548	1157.40002441406
1405.92439805538	1157.80004882813
1406.56909590306	1159.19995117188
1407.21371041608	1151.80004882813
1407.85824160202	1156.19995117188
1408.50268946841	1152
1409.14705402284	1159.19995117188
1409.79133527285	1153.19995117188
1410.43553322601	1158.19995117188
1411.07964788987	1167
1411.723679272	1155.19995117188
1412.36762737996	1157
1413.01149222129	1151.40002441406
1413.65527380357	1159.80004882813
1414.29897213435	1160
1414.94258722118	1165.19995117188
1415.58611907163	1163.80004882813
1416.22956769325	1172.80004882813
1416.87293309359	1165.80004882813
1417.51621528021	1165.59997558594
1418.15941426067	1160.40002441406
1418.80253004253	1161.40002441406
1419.44556263333	1167
1420.08851204063	1160.59997558594
1420.731378272	1170
1421.37416133497	1169
1422.0168612371	1172.19995117188
1422.65947798596	1171.19995117188
1423.30201158908	1169
1423.94446205403	1167.59997558594
1424.58682938835	1169.59997558594
1425.2291135996	1164.19995117188
1425.87131469532	1169
1426.51343268308	1162.59997558594
1427.15546757042	1159.19995117188
1427.79741936488	1158
1428.43928807403	1160.40002441406
1429.0810737054	1163.19995117188
1429.72277626656	1165.19995117188
1430.36439576504	1160.19995117188
1431.00593220841	1152.80004882813
1431.64738560419	1153.19995117188
1432.28875595995	1151
1432.93004328324	1151
1433.57124758159	1150.80004882813
1434.21236886255	1145
1434.85340713368	1139.80004882813
1435.49436240252	1141.80004882813
1436.13523467661	1149.80004882813
1436.77602396349	1147.59997558594
1437.41673027073	1143.80004882813
1438.05735360585	1149.19995117188
1438.69789397641	1151.19995117188
1439.33835138994	1146.19995117188
1439.978725854	1143.40002441406
1440.61901737612	1154
1441.25922596385	1152.19995117188
1441.89935162473	1159.80004882813
1442.53939436631	1151.80004882813
1443.17935419612	1155
1443.81923112171	1150
1444.45902515061	1164
1445.09873629038	1173.59997558594
1445.73836454854	1177.40002441406
1446.37790993265	1180.80004882813
1447.01737245024	1170
1447.65675210885	1166.80004882813
1448.29604891602	1166.40002441406
1448.93526287928	1159
1449.57439400618	1153.59997558594
1450.21344230426	1152.19995117188
1450.85240778105	1151.80004882813
1451.49129044409	1152.59997558594
1452.13009030092	1148
1452.76880735907	1145
1453.40744162608	1145.19995117188
1454.04599310949	1157
1454.68446181683	1147
1455.32284775564	1155.59997558594
1455.96115093345	1159.40002441406
1456.5993713578	1151
1457.23750903623	1155.80004882813
1457.87556397626	1157.59997558594
1458.51353618543	1162.40002441406
1459.15142567127	1156.19995117188
1459.78923244132	1157.19995117188
1460.42695650311	1154.59997558594
1461.06459786417	1157
1461.70215653203	1166.19995117188
1462.33963251423	1152.19995117188
1462.97702581829	1164
1463.61433645175	1162.40002441406
1464.25156442214	1144.59997558594
1464.88870973699	1157.40002441406
1465.52577240382	1149.19995117188
1466.16275243017	1158.80004882813
1466.79964982356	1147.59997558594
1467.43646459154	1146.19995117188
1468.07319674161	1149.19995117188
1468.70984628132	1143.19995117188
1469.34641321818	1146.19995117188
1469.98289755974	1150.19995117188
1470.6192993135	1151.59997558594
1471.25561848701	1146.40002441406
1471.89185508779	1146
1472.52800912336	1148.80004882813
1473.16408060124	1142.80004882813
1473.80006952897	1143.59997558594
1474.43597591407	1142.19995117188
1475.07179976406	1145.80004882813
1475.70754108647	1145.80004882813
1476.34319988883	1154.59997558594
1476.97877617865	1152.19995117188
1477.61426996345	1144.40002441406
1478.24968125077	1150
1478.88501004812	1148.80004882813
1479.52025636303	1153.19995117188
1480.15542020302	1154.40002441406
1480.79050157561	1154.40002441406
1481.42550048832	1150.40002441406
1482.06041694867	1155.40002441406
1482.69525096418	1149.59997558594
1483.33000254237	1154.80004882813
1483.96467169077	1153.80004882813
1484.59925841689	1151.19995117188
1485.23376272825	1147
1485.86818463237	1147.19995117188
1486.50252413677	1144.19995117188
1487.13678124896	1142.19995117188
1487.77095597646	1152.80004882813
1488.4050483268	1148.59997558594
1489.03905830749	1151.80004882813
1489.67298592604	1161.19995117188
1490.30683118996	1153.19995117188
1490.9405941068	1162.19995117188
1491.57427468403	1153.80004882813
1492.2078729292	1163.80004882813
1492.84138884981	1160.80004882813
1493.47482245338	1162.40002441406
1494.10817374742	1156.59997558594
1494.74144273944	1152.80004882813
1495.37462943696	1163.19995117188
1496.0077338475	1158.59997558594
1496.64075597856	1157.19995117188
1497.27369583765	1158
1497.9065534323	1153
1498.53932877001	1158.80004882813
1499.17202185829	1157.40002441406
1499.80463270465	1164.40002441406
1500.43716131661	1167
1501.06960770167	1162.19995117188
1501.70197186735	1165.80004882813
1502.33425382116	1160.40002441406
1502.96645357059	1166.40002441406
1503.59857112317	1169.80004882813
1504.23060648641	1178.19995117188
1504.8625596678	1170
1505.49443067486	1175
1506.1262195151	1183.80004882813
1506.75792619602	1167.59997558594
1507.38955072513	1176.19995117188
1508.02109310993	1180
1508.65255335794	1161.19995117188
1509.28393147666	1162.40002441406
1509.91522747359	1163.59997558594
1510.54644135624	1157
1511.17757313212	1161.19995117188
1511.80862280872	1159.80004882813
1512.43959039356	1164.40002441406
1513.07047589413	1151.40002441406
1513.70127931795	1151.59997558594
1514.33200067251	1151.19995117188
1514.96263996531	1146.80004882813
1515.59319720386	1141
1516.22367239567	1145
1516.85406554822	1144
1517.48437666903	1152.59997558594
1518.1146057656	1144.59997558594
1518.74475284542	1141.59997558594
1519.374817916	1136
1520.00480098483	1135.59997558594
1520.63470205942	1135.80004882813
1521.26452114726	1135.59997558594
1521.89425825586	1145.80004882813
1522.52391339271	1141.59997558594
1523.15348656531	1142.40002441406
1523.78297778116	1134.40002441406
1524.41238704775	1135.59997558594
1525.04171437259	1138.59997558594
1525.67095976317	1138.80004882813
1526.30012322699	1133.19995117188
1526.92920477154	1141.40002441406
1527.55820440432	1135.59997558594
1528.18712213283	1146.19995117188
1528.81595796455	1139.80004882813
1529.44471190699	1136.19995117188
1530.07338396764	1123.19995117188
1530.70197415399	1135.59997558594
1531.33048247353	1137.19995117188
1531.95890893377	1136.59997558594
1532.58725354219	1146
1533.21551630629	1136.59997558594
1533.84369723356	1140.80004882813
1534.47179633148	1145.19995117188
1535.09981360757	1130.19995117188
1535.72774906929	1127
1536.35560272415	1126.59997558594
1536.98337457963	1138.19995117188
1537.61106464323	1144.40002441406
1538.23867292243	1135.59997558594
1538.86619942473	1139.19995117188
1539.49364415762	1135.59997558594
1540.12100712857	1131.59997558594
1540.74828834509	1135.40002441406
1541.37548781466	1135.59997558594
1542.00260554478	1128.59997558594
1542.62964154291	1125
1543.25659581655	1129.80004882813
1543.8834683732	1118.59997558594
1544.51025922034	1121.40002441406
1545.13696836544	1121
1545.76359581601	1121.59997558594
1546.39014157952	1134
1547.01660566345	1130.19995117188
1547.64298807531	1136.80004882813
1548.26928882255	1142.59997558594
1548.89550791269	1135
1549.52164535318	1133
1550.14770115153	1128.80004882813
1550.77367531521	1126.80004882813
1551.39956785171	1121.80004882813
1552.0253787685	1117.59997558594
1552.65110807307	1121.80004882813
1553.2767557729	1109.59997558594
1553.90232187548	1122.80004882813
1554.52780638828	1118.59997558594
1555.15320931879	1118.19995117188
1555.77853067447	1125.40002441406
1556.40377046282	1111.59997558594
1557.02892869132	1110
1557.65400536744	1116.19995117188
1558.27900049866	1116.59997558594
1558.90391409247	1112.40002441406
1559.52874615633	1110.19995117188
1560.15349669773	1119.19995117188
1560.77816572414	1113.59997558594
1561.40275324305	1117.59997558594
1562.02725926192	1119.40002441406
1562.65168378824	1124
1563.27602682948	1116
1563.90028839311	1118.59997558594
1564.52446848662	1115.40002441406
1565.14856711748	1119.19995117188
1565.77258429316	1125.59997558594
1566.39652002113	1127
1567.02037430887	1121.19995117188
1567.64414716387	1130
1568.26783859357	1135.19995117188
1568.89144860547	1127.80004882813
1569.51497720703	1131.19995117188
1570.13842440573	1128.40002441406
1570.76179020904	1120.59997558594
1571.38507462442	1127.59997558594
1572.00827765936	1129.19995117188
1572.63139932132	1121.59997558594
1573.25443961777	1126.80004882813
1573.87739855618	1119.40002441406
1574.50027614402	1120
1575.12307238877	1124.59997558594
1575.74578729789	1124.59997558594
1576.36842087885	1114.80004882813
1576.99097313912	1121.19995117188
1577.61344408616	1114.59997558594
1578.23583372745	1109
1578.85814207046	1122.19995117188
1579.48036912264	1114.40002441406
1580.10251489147	1115.40002441406
1580.72457938441	1113.80004882813
1581.34656260893	1110
1581.9684645725	1112.80004882813
1582.59028528258	1111.59997558594
1583.21202474663	1105
1583.83368297212	1110.19995117188
1584.45525996652	1108.59997558594
1585.07675573728	1107.80004882813
1585.69817029188	1096.80004882813
1586.31950363778	1104.40002441406
1586.94075578243	1099
1587.5619267333	1100
1588.18301649786	1094
1588.80402508357	1087
1589.42495249788	1089.59997558594
1590.04579874826	1093.40002441406
1590.66656384217	1083.40002441406
1591.28724778707	1099.59997558594
1591.90785059042	1090.40002441406
1592.52837225968	1095
1593.14881280232	1095.59997558594
1593.76917222578	1096.59997558594
1594.38945053753	1099.59997558594
1595.00964774502	1104
1595.62976385573	1109.80004882813
1596.24979887709	1103
1596.86975281657	1095.80004882813
1597.48962568164	1099.80004882813
1598.10941747974	1099.40002441406
1598.72912821832	1093.19995117188
1599.34875790486	1094
1599.9683065468	1085.59997558594
1600.58777415159	1084.19995117188
1601.2071607267	1088
1601.82646627958	1096.80004882813
1602.44569081769	1099.59997558594
1603.06483434846	1098.40002441406
1603.68389687937	1098.19995117188
1604.30287841786	1098.80004882813
1604.92177897139	1093
1605.54059854741	1092.59997558594
1606.15933715337	1097.80004882813
1606.77799479672	1099.19995117188
1607.39657148492	1101.59997558594
1608.01506722542	1101.59997558594
1608.63348202566	1096.80004882813
1609.2518158931	1098.80004882813
1609.87006883519	1090.40002441406
1610.48824085939	1099.40002441406
1611.10633197312	1091.40002441406
1611.72434218386	1100
1612.34227149904	1088.40002441406
1612.96011992612	1091.40002441406
1613.57788747254	1090
1614.19557414575	1090
1614.8131799532	1095
1615.43070490234	1095
1616.04814900061	1090.40002441406
1616.66551225545	1100.59997558594
1617.28279467433	1096.40002441406
1617.89999626467	1098.19995117188
1618.51711703393	1094.80004882813
1619.13415698955	1094.19995117188
1619.75111613898	1091.80004882813
1620.36799448966	1097.19995117188
1620.98479204903	1091
1621.60150882455	1098.59997558594
1622.21814482364	1106
1622.83470005376	1102
1623.45117452235	1103.59997558594
1624.06756823685	1098.40002441406
1624.6838812047	1107.40002441406
1625.30011343335	1099.40002441406
1625.91626493022	1100.40002441406
1626.53233570278	1106.80004882813
1627.14832575845	1102.19995117188
1627.76423510468	1094.80004882813
1628.38006374891	1086
1628.99581169857	1095.59997558594
1629.61147896111	1082
1630.22706554397	1086.40002441406
1630.84257145457	1089.19995117188
1631.45799670038	1081.80004882813
1632.07334128881	1087.19995117188
1632.6886052273	1089.40002441406
1633.3037885233	1085.40002441406
1633.91889118425	1079.19995117188
1634.53391321757	1081.80004882813
1635.1488546307	1071.59997558594
1635.76371543108	1074.19995117188
1636.37849562616	1075
1636.99319522335	1072.19995117188
1637.60781423009	1079.40002441406
1638.22235265383	1080.19995117188
1638.83681050198	1074.59997558594
1639.451187782	1081.59997558594
1640.0654845013	1083.80004882813
1640.67970066734	1083.80004882813
1641.29383628752	1080.80004882813
1641.9078913693	1089.19995117188
1642.5218659201	1087.19995117188
1643.13575994735	1086.19995117188
1643.74957345849	1090
1644.36330646094	1100.19995117188
1644.97695896213	1102.80004882813
1645.59053096951	1103.80004882813
1646.20402249049	1102.59997558594
1646.8174335325	1103.80004882813
1647.43076410298	1097.40002441406
1648.04401420935	1093
1648.65718385905	1098.19995117188
1649.2702730595	1100.80004882813
1649.88328181812	1104
1650.49621014236	1094.59997558594
1651.10905803963	1098
1651.72182551735	1102.80004882813
1652.33451258297	1096.40002441406
1652.9471192439	1090.80004882813
1653.55964550757	1093.80004882813
1654.1720913814	1089.59997558594
1654.78445687283	1080.59997558594
1655.39674198926	1074
1656.00894673814	1073.40002441406
1656.62107112688	1067.59997558594
1657.23311516291	1067.80004882813
1657.84507885365	1064.80004882813
1658.45696220652	1063.80004882813
1659.06876522895	1059.59997558594
1659.68048792835	1061.59997558594
1660.29213031217	1056.59997558594
1660.90369238779	1057
1661.51517416267	1059.80004882813
1662.12657564421	1057
1662.73789683984	1057.80004882813
1663.34913775697	1049.80004882813
1663.96029840303	1054
1664.57137878544	1048.80004882813
1665.18237891161	1045.19995117188
1665.79329878897	1045.59997558594
1666.40413842493	1043.19995117188
1667.01489782691	1048.80004882813
1667.62557700233	1043.59997558594
1668.2361759586	1041.40002441406
1668.84669470315	1039
1669.4571332434	1034.80004882813
1670.06749158675	1037.19995117188
1670.67776974062	1039.40002441406
1671.28796771243	1041.59997558594
1671.8980855096	1046.59997558594
1672.50812313954	1046.40002441406
1673.11808060967	1052.59997558594
1673.72795792739	1047.59997558594
1674.33775510013	1045.80004882813
1674.9474721353	1049.40002441406
1675.55710904031	1040.40002441406
1676.16666582257	1034.80004882813
1676.7761424895	1034.19995117188
1677.38553904851	1031.80004882813
1677.99485550702	1026.40002441406
1678.60409187243	1031.19995117188
1679.21324815215	1028.80004882813
1679.8223243536	1030
1680.43132048419	1030.40002441406
1681.04023655132	1027
1681.64907256241	1030
1682.25782852487	1031.80004882813
1682.86650444611	1026.19995117188
1683.47510033353	1018
1684.08361619455	1017.40002441406
1684.69205203657	1022.40002441406
1685.300407867	1017.59997558594
1685.90868369325	1012.59997558594
1686.51687952272	1022
1687.12499536283	1029
1687.73303122098	1025.19995117188
1688.34098710457	1028
1688.94886302101	1032
1689.55665897772	1031.80004882813
1690.16437498208	1026.19995117188
1690.77201104152	1025.59997558594
1691.37956716342	1028.40002441406
1691.9870433552	1029.59997558594
1692.59443962426	1031.80004882813
1693.20175597801	1025.40002441406
1693.80899242384	1019
1694.41614896916	1024.80004882813
1695.02322562138	1021
1695.63022238789	1022.40002441406
1696.23713927609	1008.20001220703
1696.8439762934	1016.79998779297
1697.4507334472	1016.59997558594
1698.05741074491	1021.20001220703
1698.66400819391	1021.59997558594
1699.27052580161	1021.40002441406
1699.87696357542	1021
1700.48332152272	1029
1701.08959965092	1022.59997558594
1701.69579796742	1021
1702.30191647962	1016
1702.90795519491	1010
1703.51391412069	1015
1704.11979326437	1008.79998779297
1704.72559263332	1007.40002441406
1705.33131223496	1010.20001220703
1705.93695207668	1013.20001220703
1706.54251216588	1013.20001220703
1707.14799250994	1017.79998779297
1707.75339311628	1015.59997558594
1708.35871399227	1019
1708.96395514532	1010.79998779297
1709.56911658282	1013.40002441406
