634.948122577771	1224
635.690341530823	1224.59997558594
636.43246851086	1224
637.174503525845	1242.40002441406
637.916446583745	1237.40002441406
638.658297692538	1226.80004882813
639.400056860179	1221.40002441406
640.141724094637	1233
640.883299403885	1224.40002441406
641.62478279588	1232
642.366174278594	1223.80004882813
643.107473859989	1230.40002441406
643.848681548029	1225.80004882813
644.589797350679	1229
645.330821275901	1226.59997558594
646.071753331665	1235.59997558594
646.812593525922	1239.59997558594
647.553341866646	1229.40002441406
648.293998361798	1226.40002441406
649.03456301933	1230.19995117188
649.775035847216	1224.19995117188
650.515416853409	1228.40002441406
651.255706045874	1227.59997558594
651.995903432568	1223.19995117188
652.736009021453	1223
653.476022820486	1233.80004882813
654.215944837629	1235.19995117188
654.955775080842	1250
655.695513558081	1239.40002441406
656.435160277301	1244.40002441406
657.174715246465	1238.19995117188
657.914178473527	1237.40002441406
658.653549966449	1238.40002441406
659.392829733176	1245
660.132017781678	1253.40002441406
660.871114119901	1255
661.610118755803	1251.80004882813
662.349031697343	1252.59997558594
663.087852952468	1252
663.826582529139	1267
664.565220435305	1253.80004882813
665.30376667892	1254
666.04222126794	1250
666.780584210316	1244.80004882813
667.518855514	1247.40002441406
668.25703518694	1240.40002441406
668.995123237096	1240.40002441406
669.733119672413	1246.19995117188
670.471024500842	1246.40002441406
671.208837730333	1237.80004882813
671.946559368839	1250
672.684189424308	1233.19995117188
673.421727904689	1245.59997558594
674.159174817929	1252.19995117188
674.896530171977	1256.19995117188
675.633793974786	1253.59997558594
676.370966234295	1258.40002441406
677.108046958461	1260
677.845036155219	1254.80004882813
678.581933832528	1273
679.318739998323	1262
680.055454660558	1255.80004882813
680.792077827172	1255.59997558594
681.528609506116	1252.59997558594
682.265049705331	1258.80004882813
683.001398432759	1256.59997558594
683.737655696349	1259.80004882813
684.47382150404	1247.80004882813
685.20989586378	1243.59997558594
685.945878783503	1246.80004882813
686.68177027116	1250.19995117188
687.417570334688	1254.19995117188
688.153278982032	1263.19995117188
688.888896221129	1249.59997558594
689.624422059921	1245.59997558594
690.359856506349	1238.40002441406
691.095199568354	1251
691.830451253874	1253.80004882813
692.565611570844	1248.59997558594
693.300680527212	1262.80004882813
694.03565813091	1254.40002441406
694.770544389877	1257.40002441406
695.505339312053	1263.40002441406
696.240042905372	1245.59997558594
696.974655177772	1259.40002441406
697.70917613719	1249.80004882813
698.443605791561	1255.40002441406
699.177944148826	1256.80004882813
699.912191216909	1254.59997558594
700.646347003755	1264.19995117188
701.380411517295	1262.80004882813
702.114384765465	1260.80004882813
702.848266756195	1259.59997558594
703.582057497421	1262.59997558594
704.315756997074	1254
705.049365263089	1269.19995117188
705.782882303399	1260.19995117188
706.516308125936	1262.80004882813
707.249642738626	1255
707.982886149403	1256.40002441406
708.716038366204	1256
709.449099396949	1256.59997558594
710.182069249577	1252.19995117188
710.914947932009	1262.59997558594
711.647735452181	1261.80004882813
712.380431818022	1263.59997558594
713.113037037454	1267
713.845551118411	1250.80004882813
714.577974068818	1271.59997558594
715.310305896604	1268
716.042546609694	1267.40002441406
716.774696216013	1257.19995117188
717.506754723493	1274
718.238722140053	1259.59997558594
718.970598473624	1261.19995117188
719.702383732127	1254.40002441406
720.43407792349	1268.59997558594
721.165681055634	1269.80004882813
721.897193136486	1263.19995117188
722.628614173966	1268
723.359944175997	1273.59997558594
724.091183150505	1267.40002441406
724.822331105412	1258.19995117188
725.553388048638	1248.80004882813
726.284353988106	1269.59997558594
727.015228931734	1275.59997558594
727.746012887449	1279
728.476705863162	1283
729.207307866803	1274.19995117188
729.937818906289	1268.19995117188
730.668238989535	1261.80004882813
731.398568124459	1265.80004882813
732.128806318986	1250.59997558594
732.858953581034	1246.19995117188
733.589009918514	1246.80004882813
734.318975339348	1246.40002441406
735.048849851452	1248.80004882813
735.778633462744	1249.80004882813
736.508326181137	1263.40002441406
737.237928014549	1259
737.967438970897	1259.19995117188
738.696859058095	1265.19995117188
739.426188284054	1260.59997558594
740.155426656692	1259.59997558594
740.884574183922	1263.59997558594
741.613630873659	1252.59997558594
742.342596733815	1243.40002441406
743.071471772302	1250.19995117188
743.800255997034	1257.59997558594
744.528949415921	1260.40002441406
745.257552036877	1270
745.986063867811	1278.80004882813
746.714484916638	1267.80004882813
747.442815191261	1268
748.171054699597	1262.80004882813
748.899203449554	1259.19995117188
749.627261449039	1263
750.355228705966	1264
751.083105228239	1267.80004882813
751.810891023765	1275.19995117188
752.538586100459	1270.59997558594
753.266190466218	1272.80004882813
753.99370412896	1270
754.721127096582	1281
755.448459377	1277.40002441406
756.175700978114	1276.80004882813
756.902851907828	1270.80004882813
757.629912174055	1261.59997558594
758.356881784688	1264
759.083760747639	1267
759.810549070817	1261.59997558594
760.537246762113	1263.59997558594
761.263853829442	1260.80004882813
761.990370280698	1259
762.716796123791	1269.19995117188
763.443131366618	1266.80004882813
764.169376017082	1263.80004882813
764.895530083085	1273.59997558594
765.621593572527	1276.19995117188
766.347566493312	1285.59997558594
767.073448853336	1286.80004882813
767.799240660502	1285
768.524941922707	1305
769.250552647854	1302.59997558594
769.976072843836	1330.59997558594
770.701502518551	1328.40002441406
771.426841679905	1326.19995117188
772.152090335793	1332
772.877248494107	1338
773.602316162747	1335.19995117188
774.327293349609	1339.80004882813
775.052180062592	1339.80004882813
775.776976309589	1336.40002441406
776.501682098496	1329.19995117188
777.226297437206	1332.59997558594
777.950822333616	1331.80004882813
778.675256795621	1324.59997558594
779.399600831111	1318
780.123854447983	1314.59997558594
780.84801765413	1304
781.572090457441	1309
782.296072865811	1294.59997558594
783.019964887131	1292
783.743766529297	1284.59997558594
784.467477800194	1281.80004882813
785.191098707719	1285.80004882813
785.914629259756	1291.40002441406
786.638069464194	1289
787.361419328932	1272.80004882813
788.084678861852	1273.80004882813
788.807848070845	1273.19995117188
789.530926963798	1262.19995117188
790.253915548602	1264.80004882813
790.976813833144	1266
791.699621825307	1259.40002441406
792.422339532986	1265
793.144966964061	1271
793.86750412642	1271.19995117188
794.589951027946	1260.80004882813
795.312307676536	1265.19995117188
796.03457408006	1254.40002441406
796.756750246417	1264.80004882813
797.478836183477	1250.40002441406
798.200831899137	1259.80004882813
798.92273740127	1256.40002441406
799.644552697769	1263.80004882813
800.36627779651	1263.19995117188
801.087912705374	1272.59997558594
801.809457432251	1254.40002441406
802.530911985017	1269.40002441406
803.252276371558	1268.40002441406
803.973550599748	1270.59997558594
804.694734677472	1277.59997558594
805.415828612611	1275.19995117188
806.136832413045	1273.59997558594
806.857746086646	1269
807.578569641305	1265.40002441406
808.299303084892	1280
809.019946425289	1278.19995117188
809.740499670372	1279.80004882813
810.460962828022	1271
811.181335906114	1268.59997558594
811.901618912524	1264.59997558594
812.621811855131	1267.80004882813
813.341914741809	1271.59997558594
814.061927580433	1273.19995117188
814.781850378881	1269.80004882813
815.501683145025	1267.40002441406
816.221425886743	1263.59997558594
816.941078611903	1264.40002441406
817.660641328387	1262.59997558594
818.380114044065	1249.59997558594
819.099496766808	1274.59997558594
819.818789504492	1255.19995117188
820.53799226499	1259.40002441406
821.257105056168	1272.19995117188
821.976127885904	1263.59997558594
822.695060762064	1272.80004882813
823.413903692525	1276.80004882813
824.132656685151	1260.59997558594
824.851319747817	1265.59997558594
825.569892888388	1258
826.288376114739	1248
827.006769434737	1244.59997558594
827.725072856249	1254
828.443286387142	1251.40002441406
829.161410035285	1251.59997558594
829.87944380855	1265.80004882813
830.597387714798	1255.59997558594
831.315241761898	1275
832.033005957715	1288.40002441406
832.750680310119	1270.19995117188
833.468264826969	1278
834.18575951614	1276
834.903164385486	1268.19995117188
835.620479442878	1271.40002441406
836.337704696181	1270
837.054840153255	1265.19995117188
837.771885821962	1263.59997558594
838.488841710172	1255.59997558594
839.20570782574	1254
839.922484176531	1265
840.639170770409	1254.40002441406
841.355767615231	1266
842.072274718864	1266.19995117188
842.788692089164	1262.80004882813
843.505019733993	1253.40002441406
844.221257661209	1253.19995117188
844.937405878676	1256.40002441406
845.65346439425	1262.80004882813
846.369433215789	1261.59997558594
847.085312351156	1260.59997558594
847.801101808205	1274.80004882813
848.516801594793	1267.19995117188
849.232411718781	1255.80004882813
849.947932188021	1266.59997558594
850.663363010376	1260.19995117188
851.378704193698	1255
852.093955745842	1259.59997558594
852.809117674669	1266.19995117188
853.524189988028	1251.80004882813
854.239172693778	1256.40002441406
854.954065799768	1250.80004882813
855.668869313857	1256.59997558594
856.383583243899	1260
857.098207597743	1247.40002441406
857.812742383246	1248.59997558594
858.527187608255	1263.19995117188
859.241543280628	1264.19995117188
859.955809408218	1272.40002441406
860.669985998868	1265.40002441406
861.384073060437	1253.59997558594
862.098070600772	1254
862.811978627724	1244.40002441406
863.52579714914	1245.80004882813
864.239526172873	1236.19995117188
864.953165706776	1241.59997558594
865.666715758687	1251.40002441406
866.380176336464	1257.19995117188
867.093547447951	1257.40002441406
867.806829100996	1259.19995117188
868.520021303444	1277
869.233124063149	1264.80004882813
869.94613738795	1258.80004882813
870.659061285693	1246.40002441406
871.37189576423	1258.80004882813
872.084640831403	1251.19995117188
872.797296495057	1238.80004882813
873.509862763039	1243.80004882813
874.22233964319	1249.80004882813
874.934727143353	1255
875.647025271374	1263.59997558594
876.359234035097	1266.80004882813
877.071353442361	1268.59997558594
877.783383501015	1280.40002441406
878.495324218895	1273.80004882813
879.207175603844	1272.19995117188
879.918937663705	1264.19995117188
880.630610406318	1258
881.342193839524	1254.40002441406
882.053687971161	1248.19995117188
882.765092809069	1259.59997558594
883.476408361091	1254.19995117188
884.187634635066	1260.40002441406
884.898771638828	1262.80004882813
885.609819380221	1251.19995117188
886.320777867076	1262.19995117188
887.031647107236	1250
887.742427108536	1265.40002441406
888.453117878816	1258
889.16371942591	1260.59997558594
889.874231757652	1267.80004882813
890.584654881883	1265.80004882813
891.294988806434	1245.80004882813
892.005233539141	1262
892.715389087837	1267
893.42545546036	1269
894.135432664543	1267
894.845320708216	1273.59997558594
895.555119599216	1264.19995117188
896.264829345375	1268.59997558594
896.974449954526	1262.19995117188
897.683981434496	1268
898.393423793125	1258.40002441406
899.102777038235	1273
899.812041177664	1267.40002441406
900.521216219239	1265.40002441406
901.230302170793	1263
901.939299040155	1260
902.64820683515	1248
903.357025563612	1248.59997558594
904.065755233368	1238.19995117188
904.774395852247	1233.19995117188
905.482947428076	1242.19995117188
906.191409968682	1245
906.899783481897	1242.80004882813
907.608067975538	1258.80004882813
908.316263457443	1259.80004882813
909.02436993543	1271.59997558594
909.732387417327	1262.19995117188
910.440315910959	1271.59997558594
911.148155424154	1263
911.855905964731	1267.80004882813
912.563567540521	1274.40002441406
913.271140159339	1269
913.978623829017	1270.80004882813
914.686018557374	1262.59997558594
915.393324352237	1268
916.100541221421	1269.40002441406
916.807669172752	1278.40002441406
917.514708214054	1262.40002441406
918.221658353142	1263
918.928519597843	1268.80004882813
919.635291955976	1270
920.341975435358	1265.19995117188
921.048570043813	1259
921.75507578916	1257.59997558594
922.461492679212	1274.19995117188
923.167820721795	1285.19995117188
923.874059924726	1273.59997558594
924.58021029582	1277.19995117188
925.286271842893	1279
925.992244573769	1275.80004882813
926.698128496262	1274.40002441406
927.403923618184	1279.19995117188
928.109629947355	1286.40002441406
928.815247491593	1270.80004882813
929.520776258708	1269.80004882813
930.226216256519	1265.40002441406
930.931567492841	1268.19995117188
931.636829975482	1269.40002441406
932.342003712263	1255.59997558594
933.047088710995	1253.80004882813
933.752084979491	1256.59997558594
934.456992525564	1263.19995117188
935.161811357024	1263
935.866541481688	1268.40002441406
936.571182907363	1263.59997558594
937.275735641861	1270
937.980199692995	1263.19995117188
938.684575068572	1263.40002441406
939.388861776411	1261.19995117188
940.093059824311	1248
940.797169220085	1259
941.501189971544	1258.59997558594
942.205122086495	1256
942.908965572751	1264.59997558594
943.612720438111	1267.59997558594
944.316386690391	1255
945.019964337391	1255.80004882813
945.723453386924	1262.19995117188
946.426853846795	1250.40002441406
947.130165724808	1252
947.83338902877	1257.40002441406
948.536523766488	1246.80004882813
949.239569945764	1248.40002441406
949.942527574402	1242.40002441406
950.64539666021	1253.40002441406
951.348177210993	1243.19995117188
952.050869234548	1251.80004882813
952.753472738683	1243.80004882813
953.455987731199	1241
954.158414219898	1239.19995117188
954.860752212587	1245
955.563001717061	1248.80004882813
956.265162741124	1253.40002441406
956.967235292576	1254
957.669219379224	1260
958.371115008857	1255.80004882813
959.072922189283	1246.40002441406
959.774640928301	1249.19995117188
960.476271233708	1252.19995117188
961.177813113301	1240.80004882813
961.879266574882	1242.19995117188
962.580631626248	1245.19995117188
963.281908275194	1232.59997558594
963.98309652952	1236.40002441406
964.684196397022	1237.19995117188
965.3852078855	1247.80004882813
966.086131002745	1239.59997558594
966.786965756555	1238.59997558594
967.487712154726	1241.59997558594
968.188370205055	1234.19995117188
968.888939915331	1237
969.589421293352	1236.40002441406
970.289814346909	1239.80004882813
970.990119083801	1238.59997558594
971.690335511819	1233.80004882813
972.39046363875	1248.59997558594
973.090503472398	1248.59997558594
973.790455020545	1249
974.490318290987	1246.19995117188
975.190093291516	1252.80004882813
975.889780029923	1247.40002441406
976.589378513998	1237.59997558594
977.288888751527	1240.40002441406
977.988310750308	1245
978.687644518122	1241.59997558594
979.386890062767	1242.80004882813
980.086047392025	1233.40002441406
980.785116513689	1239.59997558594
981.484097435542	1243.80004882813
982.182990165377	1246.40002441406
982.88179471098	1242
983.580511080137	1234
984.279139280632	1235.19995117188
984.977679320253	1239.59997558594
985.67613120679	1228.40002441406
986.374494948027	1232.40002441406
987.072770551745	1253.19995117188
987.770958025731	1243
988.469057377772	1245.40002441406
989.167068615649	1241.80004882813
989.864991747145	1234
990.562826780047	1235.80004882813
991.260573722134	1233.59997558594
991.958232581195	1234.19995117188
992.655803365003	1237.59997558594
993.353286081346	1233
994.050680738006	1238
994.74798734276	1238.19995117188
995.44520590339	1236
996.142336427681	1231.40002441406
996.839378923407	1239.59997558594
997.536333398348	1239.80004882813
998.233199860289	1241.40002441406
998.929978317004	1241
999.626668776274	1234
1000.32327124587	1238.59997558594
1001.01978573359	1230.19995117188
1001.71621224718	1225.59997558594
1002.41255079445	1217.59997558594
1003.10880138315	1226.40002441406
1003.80496402107	1231.40002441406
1004.50103871599	1237.19995117188
1005.19702547567	1238.19995117188
1005.8929243079	1238.59997558594
1006.58873522045	1243.80004882813
1007.2844582211	1233.59997558594
1007.98009331761	1240.19995117188
1008.67564051776	1233
1009.37109982933	1244.80004882813
1010.06647126009	1242
1010.7617548178	1249.19995117188
1011.45695051026	1254.19995117188
1012.15205834522	1245
1012.84707833045	1240.59997558594
1013.54201047373	1245.59997558594
1014.23685478284	1246
1014.93161126553	1249.59997558594
1015.62627992959	1242.59997558594
1016.32086078277	1236
1017.01535383285	1238.80004882813
1017.70975908761	1245.40002441406
1018.40407655479	1246.19995117188
1019.09830624219	1252
1019.79244815755	1239.40002441406
1020.48650230866	1250.40002441406
1021.18046870328	1247.80004882813
1021.87434734917	1253.59997558594
1022.56813825411	1242
1023.26184142584	1242.19995117188
1023.95545687216	1240.19995117188
1024.64898460082	1240
1025.34242461957	1241
1026.0357769362	1244.59997558594
1026.72904155846	1232.19995117188
1027.42221849412	1242.80004882813
1028.11530775094	1239.80004882813
1028.80830933668	1234.19995117188
1029.50122325911	1231
1030.19404952599	1227.19995117188
1030.88678814508	1235.19995117188
1031.57943912414	1227.19995117188
1032.27200247093	1228.59997558594
1032.96447819323	1233.80004882813
1033.65686629878	1238.19995117188
1034.34916679534	1237
1035.04137969068	1234.80004882813
1035.73350499256	1239.59997558594
1036.42554270874	1239.19995117188
1037.11749284697	1228.80004882813
1037.80935541501	1224.40002441406
1038.50113042062	1238
1039.19281787156	1233
1039.88441777559	1234
1040.57593014046	1226.40002441406
1041.26735497393	1238
1041.95869228376	1236.40002441406
1042.6499420777	1233.40002441406
1043.3411043635	1229.80004882813
1044.03217914893	1222
1044.72316644174	1223.59997558594
1045.41406624968	1234
1046.1048785805	1224.80004882813
1046.79560344197	1237.19995117188
1047.48624084182	1234
1048.17679078783	1229.80004882813
1048.86725328774	1225.80004882813
1049.55762834929	1228.80004882813
1050.24791598025	1225.80004882813
1050.93811618837	1228.59997558594
1051.62822898139	1227.19995117188
1052.31825436707	1223.40002441406
1053.00819235315	1225.59997558594
1053.6980429474	1232.19995117188
1054.38780615755	1233.40002441406
1055.07748199136	1221.80004882813
1055.76707045658	1226.40002441406
1056.45657156095	1227.19995117188
1057.14598531222	1222.19995117188
1057.83531171814	1223.19995117188
1058.52455078646	1230.80004882813
1059.21370252494	1230.40002441406
1059.90276694129	1229.59997558594
1060.5917440433	1232.40002441406
1061.28063383868	1225.80004882813
1061.9694363352	1219.59997558594
1062.65815154059	1228.59997558594
1063.34677946261	1216.19995117188
1064.03532010899	1219.80004882813
1064.72377348748	1209.80004882813
1065.41213960583	1219.40002441406
1066.10041847177	1218.80004882813
1066.78861009306	1227
1067.47671447743	1217.59997558594
1068.16473163263	1218.59997558594
1068.85266156639	1224.40002441406
1069.54050428647	1236.80004882813
1070.2282598006	1239.40002441406
1070.91592811652	1244.59997558594
1071.60350924198	1241.59997558594
1072.29100318471	1228.59997558594
1072.97840995245	1229
1073.66572955295	1228.80004882813
1074.35296199394	1223
1075.04010728316	1221
1075.72716542836	1227.80004882813
1076.41413643726	1228.19995117188
1077.10102031761	1214.80004882813
1077.78781707715	1218.80004882813
1078.4745267236	1228
1079.16114926471	1216.19995117188
1079.84768470822	1225.19995117188
1080.53413306185	1218.40002441406
1081.22049433336	1236.59997558594
1081.90676853046	1223.19995117188
1082.5929556609	1225
1083.27905573241	1235.40002441406
1083.96506875272	1229.80004882813
1084.65099472957	1217.40002441406
1085.3368336707	1223
1086.02258558383	1232.80004882813
1086.70825047669	1223.40002441406
1087.39382835703	1217
1088.07931923257	1222
1088.76472311104	1217.40002441406
1089.45004000018	1226.59997558594
1090.13526990771	1230
1090.82041284137	1243
1091.50546880889	1237.80004882813
1092.19043781799	1229
1092.87531987642	1229.40002441406
1093.56011499188	1219.40002441406
1094.24482317212	1218.19995117188
1094.92944442486	1214.80004882813
1095.61397875783	1218.80004882813
1096.29842617876	1217
1096.98278669537	1216.19995117188
1097.6670603154	1204.80004882813
1098.35124704656	1213.80004882813
1099.03534689659	1222.40002441406
1099.71935987322	1226
1100.40328598416	1224.59997558594
1101.08712523713	1228.59997558594
1101.77087763988	1229.40002441406
1102.45454320012	1226.59997558594
1103.13812192557	1217.40002441406
1103.82161382396	1223.80004882813
1104.50501890301	1212.40002441406
1105.18833717045	1208.80004882813
1105.87156863399	1202.80004882813
1106.55471330137	1213.19995117188
1107.2377711803	1208
1107.9207422785	1213.59997558594
1108.60362660369	1227
1109.2864241636	1232
1109.96913496594	1228.59997558594
1110.65175901844	1222.40002441406
1111.33429632882	1227.19995117188
1112.01674690479	1218.80004882813
1112.69911075408	1227.19995117188
1113.38138788439	1221.80004882813
1114.06357830346	1228
1114.745682019	1219
1115.42769903872	1221.80004882813
1116.10962937035	1218.59997558594
1116.7914730216	1224.59997558594
1117.47323000018	1232.59997558594
1118.15490031382	1223.19995117188
1118.83648397022	1234.80004882813
1119.51798097712	1229.59997558594
1120.1993913422	1226.40002441406
1120.88071507321	1235.40002441406
1121.56195217784	1231.59997558594
1122.24310266381	1230.59997558594
1122.92416653884	1225.80004882813
1123.60514381064	1232.59997558594
1124.28603448692	1222.80004882813
1124.9668385754	1225
1125.64755608378	1231.40002441406
1126.32818701978	1225
1127.00873139111	1228.19995117188
1127.68918920548	1226
1128.3695604706	1225.40002441406
1129.04984519419	1220.59997558594
1129.73004338394	1235.59997558594
1130.41015504758	1233.59997558594
1131.09018019281	1236.40002441406
1131.77011882734	1229.19995117188
1132.44997095888	1232.80004882813
1133.12973659514	1225.40002441406
1133.80941574381	1217
1134.48900841263	1223
1135.16851460927	1228.80004882813
1135.84793434147	1218.59997558594
1136.52726761692	1214.80004882813
1137.20651444333	1227
1137.8856748284	1231.40002441406
1138.56474877984	1218.80004882813
1139.24373630536	1215
1139.92263741265	1225.80004882813
1140.60145210943	1223
1141.28018040339	1222.19995117188
1141.95882230225	1204.80004882813
1142.6373778137	1218
1143.31584694545	1215
1143.99422970519	1216.80004882813
1144.67252610064	1215.80004882813
1145.35073613949	1229
1146.02885982944	1217.19995117188
1146.7068971782	1219
1147.38484819347	1216.19995117188
1148.06271288294	1223.19995117188
1148.74049125432	1209.80004882813
1149.41818331531	1211.19995117188
1150.0957890736	1204.40002441406
1150.77330853689	1211.19995117188
1151.45074171289	1214.59997558594
1152.12808860928	1204.80004882813
1152.80534923378	1207.59997558594
1153.48252359407	1206.19995117188
1154.15961169786	1200
1154.83661355283	1189.59997558594
1155.51352916669	1205
1156.19035854713	1212.40002441406
1156.86710170185	1211.40002441406
1157.54375863855	1215.80004882813
1158.22032936491	1209.19995117188
1158.89681388863	1195.19995117188
1159.57321221741	1206
1160.24952435894	1209.59997558594
1160.92575032092	1217
1161.60189011103	1218.19995117188
1162.27794373697	1218.40002441406
1162.95391120644	1210.59997558594
1163.62979252712	1216.59997558594
1164.3055877067	1215.80004882813
1164.98129675288	1225.80004882813
1165.65691967336	1231
1166.33245647581	1213
1167.00790716792	1220
1167.6832717574	1213.19995117188
1168.35855025193	1223.80004882813
1169.0337426592	1224.59997558594
1169.70884898689	1226.40002441406
1170.3838692427	1222.19995117188
1171.05880343431	1227.40002441406
1171.73365156941	1220.40002441406
1172.40841365569	1219.80004882813
1173.08308970083	1213.80004882813
1173.75767971253	1218
1174.43218369847	1220
1175.10660166633	1228.59997558594
1175.7809336238	1230.19995117188
1176.45517957857	1239.19995117188
1177.12933953832	1241.19995117188
1177.80341351073	1251.59997558594
1178.47740150349	1248.80004882813
1179.15130352429	1241.59997558594
1179.8251195808	1238.80004882813
1180.49884968071	1242.19995117188
1181.1724938317	1240.19995117188
1181.84605204145	1237
1182.51952431766	1234.19995117188
1183.19291066799	1233.40002441406
1183.86621110013	1251.19995117188
1184.53942562176	1235.19995117188
1185.21255424057	1246
1185.88559696422	1250.19995117188
1186.55855380041	1239.19995117188
1187.2314247568	1238.59997558594
1187.90420984109	1253.40002441406
1188.57690906095	1251.59997558594
1189.24952242405	1245.19995117188
1189.92204993808	1246.40002441406
1190.59449161071	1245.19995117188
1191.26684744962	1243.19995117188
1191.93911746249	1248.80004882813
1192.61130165699	1248.80004882813
1193.28340004081	1240.19995117188
1193.95541262161	1239
1194.62733940707	1242.80004882813
1195.29918040487	1240.19995117188
1195.97093562269	1250
1196.64260506819	1256.59997558594
1197.31418874905	1249.59997558594
1197.98568667295	1248
1198.65709884755	1249.59997558594
1199.32842528053	1244.80004882813
1199.99966597957	1234.19995117188
1200.67082095234	1227.80004882813
1201.3418902065	1234.80004882813
1202.01287374974	1228.40002441406
1202.68377158971	1221.19995117188
1203.3545837341	1217.19995117188
1204.02531019057	1209.59997558594
1204.6959509668	1219
1205.36650607045	1214.80004882813
1206.03697550919	1216
1206.70735929069	1213.59997558594
1207.37765742263	1208.59997558594
1208.04786991266	1217
1208.71799676846	1209.59997558594
1209.38803799769	1206.59997558594
1210.05799360803	1203.80004882813
1210.72786360714	1207.19995117188
1211.39764800268	1215.80004882813
1212.06734680233	1219
1212.73696001375	1205.80004882813
1213.4064876446	1198.80004882813
1214.07592970255	1214.40002441406
1214.74528619526	1216.59997558594
1215.4145571304	1214.80004882813
1216.08374251564	1219.19995117188
1216.75284235863	1214.80004882813
1217.42185666704	1214.59997558594
1218.09078544854	1213
1218.75962871078	1203.59997558594
1219.42838646143	1204.19995117188
1220.09705870816	1212.19995117188
1220.76564545861	1205.19995117188
1221.43414672046	1208.80004882813
1222.10256250136	1204.40002441406
1222.77089280898	1201.19995117188
1223.43913765098	1205.40002441406
1224.107297035	1208
1224.77537096873	1211.19995117188
1225.44335945981	1195.59997558594
1226.1112625159	1199.19995117188
1226.77908014467	1203.59997558594
1227.44681235376	1205.19995117188
1228.11445915085	1204.80004882813
1228.78202054357	1209
1229.44949653961	1210.19995117188
1230.11688714659	1211
1230.7841923722	1212
1231.45141222407	1219
1232.11854670988	1207.19995117188
1232.78559583726	1212
1233.45255961388	1212.80004882813
1234.1194380474	1209
1234.78623114546	1207.40002441406
1235.45293891572	1205.59997558594
1236.11956136583	1219
1236.78609850345	1220.19995117188
1237.45255033623	1211
1238.11891687182	1212.80004882813
1238.78519811788	1193.59997558594
1239.45139408205	1202
1240.11750477198	1193
1240.78353019534	1186.40002441406
1241.44947035976	1197.19995117188
1242.11532527291	1197.19995117188
1242.78109494242	1201.59997558594
1243.44677937595	1205.19995117188
1244.11237858115	1206
1244.77789256567	1196.40002441406
1245.44332133715	1198.59997558594
1246.10866490325	1202.40002441406
1246.7739232716	1198.19995117188
1247.43909644987	1204.19995117188
1248.10418444569	1201.40002441406
1248.76918726671	1207.59997558594
1249.43410492059	1197.40002441406
1250.09893741496	1203.40002441406
1250.76368475747	1203
1251.42834695576	1198.80004882813
1252.09292401749	1201.19995117188
1252.75741595029	1209.40002441406
1253.42182276182	1199.59997558594
1254.08614445971	1193
1254.75038105161	1195.19995117188
1255.41453254515	1197.19995117188
1256.07859894799	1207.19995117188
1256.74258026777	1206
1257.40647651213	1199.80004882813
1258.0702876887	1206.19995117188
1258.73401380514	1207.80004882813
1259.39765486908	1196.19995117188
1260.06121088817	1206.80004882813
1260.72468187004	1194
1261.38806782233	1193.40002441406
1262.05136875269	1197.40002441406
1262.71458466875	1204.80004882813
1263.37771557815	1198.80004882813
1264.04076148854	1202.19995117188
1264.70372240753	1204.80004882813
1265.3665983428	1205.59997558594
1266.02938930195	1205.59997558594
1266.69209529263	1208.80004882813
1267.35471632249	1209.40002441406
1268.01725239914	1204.80004882813
1268.67970353024	1202.40002441406
1269.34206972342	1197.59997558594
1270.00435098631	1204.59997558594
1270.66654732655	1198.59997558594
1271.32865875177	1203.80004882813
1271.9906852696	1200.19995117188
1272.65262688768	1196.80004882813
1273.31448361365	1193.40002441406
1273.97625545514	1203.19995117188
1274.63794241978	1198.59997558594
1275.2995445152	1194.19995117188
1275.96106174903	1186.19995117188
1276.62249412892	1190
1277.28384166248	1188.80004882813
1277.94510435735	1195.59997558594
1278.60628222116	1196.40002441406
1279.26737526155	1200.40002441406
1279.92838348613	1189.59997558594
1280.58930690255	1195.19995117188
1281.25014551842	1204.19995117188
1281.91089934139	1193.19995117188
1282.57156837907	1205.59997558594
1283.2321526391	1204.19995117188
1283.89265212911	1208
1284.55306685671	1205.19995117188
1285.21339682955	1197
1285.87364205525	1191.19995117188
1286.53380254142	1185
1287.19387829571	1184.19995117188
1287.85386932573	1183.19995117188
1288.51377563911	1180.80004882813
1289.17359724348	1188.59997558594
1289.83333414646	1186.59997558594
1290.49298635567	1194
1291.15255387874	1193.19995117188
1291.8120367233	1189.40002441406
1292.47143489696	1197.40002441406
1293.13074840736	1194.80004882813
1293.7899772621	1196
1294.44912146882	1197
1295.10818103513	1186
1295.76715596866	1200.40002441406
1296.42604627704	1203.59997558594
1297.08485196787	1199.80004882813
1297.74357304878	1203.19995117188
1298.4022095274	1197.59997558594
1299.06076141134	1206.80004882813
1299.71922870821	1205
1300.37761142565	1215
1301.03590957126	1215.59997558594
1301.69412315268	1218
1302.3522521775	1224.59997558594
1303.01029665336	1214.19995117188
1303.66825658787	1218
1304.32613198865	1211.19995117188
1304.98392286332	1215.40002441406
1305.64162921948	1221
1306.29925106476	1218.19995117188
1306.95678840677	1223.19995117188
1307.61424125312	1220
1308.27160961145	1206.80004882813
1308.92889348934	1201.80004882813
1309.58609289443	1198.80004882813
1310.24320783432	1215.59997558594
1310.90023831664	1211.59997558594
1311.55718434898	1223.80004882813
1312.21404593897	1212.19995117188
1312.87082309421	1211.80004882813
1313.52751582233	1227.59997558594
1314.18412413092	1226.40002441406
1314.84064802761	1218.59997558594
1315.49708752	1222.40002441406
1316.1534426157	1231.19995117188
1316.80971332233	1226
1317.46589964749	1225.59997558594
1318.1220015988	1220.40002441406
1318.77801918386	1225.80004882813
1319.43395241028	1225.40002441406
1320.08980128567	1229.19995117188
1320.74556581764	1212.40002441406
1321.4012460138	1220.40002441406
1322.05684188176	1225.19995117188
1322.71235342911	1224
1323.36778066347	1222
1324.02312359245	1215
1324.67838222365	1212.59997558594
1325.33355656468	1218.19995117188
1325.98864662314	1215.19995117188
1326.64365240663	1215.80004882813
1327.29857392277	1217
1327.95341117915	1210.19995117188
1328.60816418339	1202.19995117188
1329.26283294308	1196
1329.91741746582	1183.40002441406
1330.57191775923	1190
1331.2263338309	1190.40002441406
1331.88066568843	1185.40002441406
1332.53491333943	1185.59997558594
1333.1890767915	1196.80004882813
1333.84315605224	1201
1334.49715112925	1196.59997558594
1335.15106203013	1206.59997558594
1335.80488876249	1211.19995117188
1336.45863133391	1215.59997558594
1337.112289752	1212.80004882813
1337.76586402437	1210
1338.4193541586	1212.80004882813
1339.0727601623	1210.40002441406
1339.72608204306	1215.40002441406
1340.37931980849	1214.19995117188
1341.03247346617	1217.40002441406
1341.68554302372	1219.80004882813
1342.33852848871	1221.40002441406
1342.99142986876	1224.59997558594
1343.64424717145	1220.19995117188
1344.29698040438	1222.59997558594
1344.94962957515	1223
1345.60219469135	1223
1346.25467576058	1234.40002441406
1346.90707279042	1218.59997558594
1347.55938578848	1212.40002441406
1348.21161476235	1208.19995117188
1348.86375971962	1219.19995117188
1349.51582066787	1216.19995117188
1350.16779761472	1221
1350.81969056774	1219.19995117188
1351.47149953453	1225.59997558594
1352.12322452269	1228
1352.77486553979	1229
1353.42642259344	1240.80004882813
1354.07789569122	1233.59997558594
1354.72928484072	1231
1355.38059004953	1226
1356.03181132525	1232.59997558594
1356.68294867545	1233
1357.33400210773	1249.40002441406
1357.98497162968	1232.80004882813
1358.63585724889	1233.40002441406
1359.28665897294	1241.80004882813
1359.93737680942	1245.59997558594
1360.58801076591	1247.40002441406
1361.23856085001	1250.19995117188
1361.88902706929	1268
1362.53940943135	1267
1363.18970794377	1261.80004882813
1363.83992261413	1268.40002441406
1364.49005345003	1262.80004882813
1365.14010045904	1263.80004882813
1365.79006364874	1269.40002441406
1366.43994302673	1251.59997558594
1367.08973860058	1249
1367.73945037788	1250.19995117188
1368.38907836621	1239.19995117188
1369.03862257315	1237
1369.68808300629	1230.40002441406
1370.3374596732	1238.19995117188
1370.98675258148	1224.80004882813
1371.63596173868	1223
1372.28508715241	1216.59997558594
1372.93412883024	1206.59997558594
1373.58308677974	1226.19995117188
1374.2319610085	1208.40002441406
1374.8807515241	1207.59997558594
1375.52945833412	1208.80004882813
1376.17808144612	1210
1376.82662086771	1211
1377.47507660644	1203
1378.12344866989	1202.80004882813
1378.77173706565	1204
1379.41994180129	1200.19995117188
1380.06806288439	1198.80004882813
1380.71610032252	1203
1381.36405412326	1187.80004882813
1382.01192429419	1191.80004882813
1382.65971084287	1202.19995117188
1383.30741377688	1191.59997558594
1383.95503310381	1191
1384.60256883121	1194.19995117188
1385.25002096667	1192.19995117188
1385.89738951775	1197.19995117188
1386.54467449204	1198.40002441406
1387.19187589709	1200.19995117188
1387.8389937405	1190
1388.48602802982	1192
1389.13297877262	1182
1389.77984597649	1192
1390.42662964899	1191
1391.07332979768	1186.59997558594
1391.71994643015	1189.40002441406
1392.36647955395	1180.80004882813
1393.01292917667	1188.19995117188
1393.65929530586	1186
1394.3055779491	1196
1394.95177711395	1193.80004882813
1395.59789280799	1191.59997558594
1396.24392503877	1191.19995117188
1396.88987381387	1192
1397.53573914086	1192.80004882813
1398.1815210273	1190.80004882813
1398.82721948075	1191.59997558594
1399.47283450878	1188
1400.11836611897	1186.19995117188
1400.76381431886	1189
1401.40917911603	1187.59997558594
1402.05446051805	1172.19995117188
1402.69965853247	1183.80004882813
1403.34477316686	1185
1403.98980442878	1190.19995117188
1404.6347523258	1176
1405.27961686548	1171.19995117188
1405.92439805538	1177
1406.56909590306	1174
1407.21371041608	1178.19995117188
1407.85824160202	1172.40002441406
1408.50268946841	1176.19995117188
1409.14705402284	1175.80004882813
1409.79133527285	1179.19995117188
1410.43553322601	1177.80004882813
1411.07964788987	1178.80004882813
1411.723679272	1174
1412.36762737996	1171
1413.01149222129	1173
1413.65527380357	1177.80004882813
1414.29897213435	1176
1414.94258722118	1185.80004882813
1415.58611907163	1189.80004882813
1416.22956769325	1173.59997558594
1416.87293309359	1183.59997558594
1417.51621528021	1182.40002441406
1418.15941426067	1189.59997558594
1418.80253004253	1181.40002441406
1419.44556263333	1185.19995117188
1420.08851204063	1183.40002441406
1420.731378272	1189.19995117188
1421.37416133497	1190
1422.0168612371	1189.80004882813
1422.65947798596	1186.59997558594
1423.30201158908	1202.40002441406
1423.94446205403	1185.59997558594
1424.58682938835	1191.40002441406
1425.2291135996	1187.40002441406
1425.87131469532	1195.40002441406
1426.51343268308	1192.40002441406
1427.15546757042	1180.59997558594
1427.79741936488	1180.80004882813
1428.43928807403	1185.80004882813
1429.0810737054	1180.40002441406
1429.72277626656	1178.59997558594
1430.36439576504	1193
1431.00593220841	1180.59997558594
1431.64738560419	1178.19995117188
1432.28875595995	1172.80004882813
1432.93004328324	1168.19995117188
1433.57124758159	1164.59997558594
1434.21236886255	1163
1434.85340713368	1159.19995117188
1435.49436240252	1165
1436.13523467661	1173.59997558594
1436.77602396349	1169.59997558594
1437.41673027073	1173.80004882813
1438.05735360585	1182.80004882813
1438.69789397641	1179.40002441406
1439.33835138994	1176.59997558594
1439.978725854	1169.59997558594
1440.61901737612	1176.80004882813
1441.25922596385	1176.19995117188
1441.89935162473	1170.40002441406
1442.53939436631	1171.80004882813
1443.17935419612	1170.80004882813
1443.81923112171	1169.59997558594
1444.45902515061	1181.80004882813
1445.09873629038	1185
1445.73836454854	1188.80004882813
1446.37790993265	1192.80004882813
1447.01737245024	1187.59997558594
1447.65675210885	1184
1448.29604891602	1177.80004882813
1448.93526287928	1178.40002441406
1449.57439400618	1170.59997558594
1450.21344230426	1169.59997558594
1450.85240778105	1165.80004882813
1451.49129044409	1166.59997558594
1452.13009030092	1161.59997558594
1452.76880735907	1163.40002441406
1453.40744162608	1167.40002441406
1454.04599310949	1167
1454.68446181683	1172.59997558594
1455.32284775564	1185.40002441406
1455.96115093345	1180.59997558594
1456.5993713578	1179.19995117188
1457.23750903623	1174.19995117188
1457.87556397626	1181.59997558594
1458.51353618543	1173.59997558594
1459.15142567127	1182.80004882813
1459.78923244132	1185.59997558594
1460.42695650311	1171.40002441406
1461.06459786417	1181.19995117188
1461.70215653203	1177.19995117188
1462.33963251423	1182.19995117188
1462.97702581829	1180
1463.61433645175	1180.80004882813
1464.25156442214	1164.80004882813
1464.88870973699	1178.19995117188
1465.52577240382	1172
1466.16275243017	1172.80004882813
1466.79964982356	1166.19995117188
1467.43646459154	1171.19995117188
1468.07319674161	1169
1468.70984628132	1170
1469.34641321818	1158.59997558594
1469.98289755974	1160
1470.6192993135	1168.19995117188
1471.25561848701	1169
1471.89185508779	1165.80004882813
1472.52800912336	1160
1473.16408060124	1158.40002441406
1473.80006952897	1165.59997558594
1474.43597591407	1164.59997558594
1475.07179976406	1163.59997558594
1475.70754108647	1167.40002441406
1476.34319988883	1169
1476.97877617865	1168.19995117188
1477.61426996345	1165.19995117188
1478.24968125077	1165
1478.88501004812	1170.59997558594
1479.52025636303	1167.40002441406
1480.15542020302	1173.40002441406
1480.79050157561	1179
1481.42550048832	1177.80004882813
1482.06041694867	1172.80004882813
1482.69525096418	1168.19995117188
1483.33000254237	1180.19995117188
1483.96467169077	1166.59997558594
1484.59925841689	1169.80004882813
1485.23376272825	1170
1485.86818463237	1163.19995117188
1486.50252413677	1162
1487.13678124896	1163.59997558594
1487.77095597646	1165.19995117188
1488.4050483268	1166.19995117188
1489.03905830749	1164.19995117188
1489.67298592604	1171.40002441406
1490.30683118996	1177.80004882813
1490.9405941068	1178
1491.57427468403	1171
1492.2078729292	1181.59997558594
1492.84138884981	1179.40002441406
1493.47482245338	1179.80004882813
1494.10817374742	1190.40002441406
1494.74144273944	1184.80004882813
1495.37462943696	1186.59997558594
1496.0077338475	1194.80004882813
1496.64075597856	1193.19995117188
1497.27369583765	1173
1497.9065534323	1177.80004882813
1498.53932877001	1176.59997558594
1499.17202185829	1186.40002441406
1499.80463270465	1184.59997558594
1500.43716131661	1183.80004882813
1501.06960770167	1183.40002441406
1501.70197186735	1197.80004882813
1502.33425382116	1203.59997558594
1502.96645357059	1195
1503.59857112317	1200.40002441406
1504.23060648641	1209.59997558594
1504.8625596678	1211.59997558594
1505.49443067486	1208.19995117188
1506.1262195151	1204.80004882813
1506.75792619602	1208.59997558594
1507.38955072513	1215.80004882813
1508.02109310993	1208.59997558594
1508.65255335794	1198.40002441406
1509.28393147666	1190.59997558594
1509.91522747359	1192.80004882813
1510.54644135624	1193.19995117188
1511.17757313212	1198.59997558594
1511.80862280872	1195.19995117188
1512.43959039356	1189.80004882813
1513.07047589413	1188.80004882813
1513.70127931795	1186.80004882813
1514.33200067251	1181.80004882813
1514.96263996531	1179.80004882813
1515.59319720386	1180.59997558594
1516.22367239567	1174.19995117188
1516.85406554822	1175
1517.48437666903	1169.80004882813
1518.1146057656	1183.80004882813
1518.74475284542	1172.80004882813
1519.374817916	1174.19995117188
1520.00480098483	1161.40002441406
1520.63470205942	1171.40002441406
1521.26452114726	1162
1521.89425825586	1171.40002441406
1522.52391339271	1172
1523.15348656531	1168.59997558594
1523.78297778116	1167.80004882813
1524.41238704775	1163.40002441406
1525.04171437259	1173
1525.67095976317	1161.59997558594
1526.30012322699	1159
1526.92920477154	1157
1527.55820440432	1165
1528.18712213283	1166.80004882813
1528.81595796455	1151
1529.44471190699	1154.19995117188
1530.07338396764	1162.40002441406
1530.70197415399	1162
1531.33048247353	1160.40002441406
1531.95890893377	1167.19995117188
1532.58725354219	1161.19995117188
1533.21551630629	1166.40002441406
1533.84369723356	1160
1534.47179633148	1161.19995117188
1535.09981360757	1158.80004882813
1535.72774906929	1150.59997558594
1536.35560272415	1167
1536.98337457963	1164
1537.61106464323	1174.80004882813
1538.23867292243	1174.19995117188
1538.86619942473	1168.40002441406
1539.49364415762	1167
1540.12100712857	1161.19995117188
1540.74828834509	1156
1541.37548781466	1150
1542.00260554478	1149.80004882813
1542.62964154291	1144.59997558594
1543.25659581655	1148.80004882813
1543.8834683732	1153.80004882813
1544.51025922034	1146
1545.13696836544	1142.40002441406
1545.76359581601	1153.40002441406
1546.39014157952	1159.59997558594
1547.01660566345	1149.59997558594
1547.64298807531	1150.40002441406
1548.26928882255	1159.40002441406
1548.89550791269	1163.80004882813
1549.52164535318	1164.19995117188
1550.14770115153	1150.59997558594
1550.77367531521	1138.59997558594
1551.39956785171	1141.19995117188
1552.0253787685	1151.80004882813
1552.65110807307	1146
1553.2767557729	1140.40002441406
1553.90232187548	1146.80004882813
1554.52780638828	1143.19995117188
1555.15320931879	1138.40002441406
1555.77853067447	1139.19995117188
1556.40377046282	1136.80004882813
1557.02892869132	1134.80004882813
1557.65400536744	1140
1558.27900049866	1138.80004882813
1558.90391409247	1148.59997558594
1559.52874615633	1145.59997558594
1560.15349669773	1149.19995117188
1560.77816572414	1143.40002441406
1561.40275324305	1141.59997558594
1562.02725926192	1146.19995117188
1562.65168378824	1145.19995117188
1563.27602682948	1150.19995117188
1563.90028839311	1143.59997558594
1564.52446848662	1145.19995117188
1565.14856711748	1145
1565.77258429316	1150.40002441406
1566.39652002113	1150.19995117188
1567.02037430887	1157.40002441406
1567.64414716387	1155.19995117188
1568.26783859357	1163
1568.89144860547	1160
1569.51497720703	1153.80004882813
1570.13842440573	1151.19995117188
1570.76179020904	1157.19995117188
1571.38507462442	1155.40002441406
1572.00827765936	1160.19995117188
1572.63139932132	1157
1573.25443961777	1152
1573.87739855618	1155
1574.50027614402	1151
1575.12307238877	1143.80004882813
1575.74578729789	1152.59997558594
1576.36842087885	1147
1576.99097313912	1143.19995117188
1577.61344408616	1147.80004882813
1578.23583372745	1144.40002441406
1578.85814207046	1144.59997558594
1579.48036912264	1158.80004882813
1580.10251489147	1149.80004882813
1580.72457938441	1149
1581.34656260893	1136.40002441406
1581.9684645725	1140
1582.59028528258	1140.80004882813
1583.21202474663	1134.19995117188
1583.83368297212	1137.80004882813
1584.45525996652	1132.80004882813
1585.07675573728	1137.19995117188
1585.69817029188	1124.80004882813
1586.31950363778	1129
1586.94075578243	1124.40002441406
1587.5619267333	1129.40002441406
1588.18301649786	1120
1588.80402508357	1118.19995117188
1589.42495249788	1114
1590.04579874826	1116.40002441406
1590.66656384217	1117.59997558594
1591.28724778707	1112
1591.90785059042	1110.40002441406
1592.52837225968	1114.59997558594
1593.14881280232	1120
1593.76917222578	1117.80004882813
1594.38945053753	1117.80004882813
1595.00964774502	1127.40002441406
1595.62976385573	1126
1596.24979887709	1128
1596.86975281657	1122.80004882813
1597.48962568164	1121.59997558594
1598.10941747974	1125.80004882813
1598.72912821832	1122
1599.34875790486	1121.59997558594
1599.9683065468	1109.59997558594
1600.58777415159	1113.59997558594
1601.2071607267	1112.40002441406
1601.82646627958	1116.59997558594
1602.44569081769	1113
1603.06483434846	1127.40002441406
1603.68389687937	1132
1604.30287841786	1120.19995117188
1604.92177897139	1120.19995117188
1605.54059854741	1116.19995117188
1606.15933715337	1131.59997558594
1606.77799479672	1123.40002441406
1607.39657148492	1132.80004882813
1608.01506722542	1125.40002441406
1608.63348202566	1123.19995117188
1609.2518158931	1125.59997558594
1609.87006883519	1124.80004882813
1610.48824085939	1121.59997558594
1611.10633197312	1126.40002441406
1611.72434218386	1115.59997558594
1612.34227149904	1113.80004882813
1612.96011992612	1118.19995117188
1613.57788747254	1119.19995117188
1614.19557414575	1120.19995117188
1614.8131799532	1114.80004882813
1615.43070490234	1119
1616.04814900061	1122.80004882813
1616.66551225545	1114.59997558594
1617.28279467433	1110.59997558594
1617.89999626467	1113.80004882813
1618.51711703393	1117.19995117188
1619.13415698955	1116.40002441406
1619.75111613898	1115.80004882813
1620.36799448966	1122.59997558594
1620.98479204903	1118.59997558594
1621.60150882455	1120.80004882813
1622.21814482364	1119.40002441406
1622.83470005376	1116.59997558594
1623.45117452235	1125
1624.06756823685	1126.19995117188
1624.6838812047	1127.80004882813
1625.30011343335	1122
1625.91626493022	1127.40002441406
1626.53233570278	1132
1627.14832575845	1128.80004882813
1627.76423510468	1127.19995117188
1628.38006374891	1119.59997558594
1628.99581169857	1119.80004882813
1629.61147896111	1118.40002441406
1630.22706554397	1116.80004882813
1630.84257145457	1111.19995117188
1631.45799670038	1105.19995117188
1632.07334128881	1111.19995117188
1632.6886052273	1108
1633.3037885233	1099.80004882813
1633.91889118425	1106.59997558594
1634.53391321757	1096.40002441406
1635.1488546307	1092.40002441406
1635.76371543108	1092.19995117188
1636.37849562616	1100.19995117188
1636.99319522335	1099
1637.60781423009	1108.59997558594
1638.22235265383	1109
1638.83681050198	1105.80004882813
1639.451187782	1109.19995117188
1640.0654845013	1100.40002441406
1640.67970066734	1115.80004882813
1641.29383628752	1104.19995117188
1641.9078913693	1120.19995117188
1642.5218659201	1109.40002441406
1643.13575994735	1114.80004882813
1643.74957345849	1123.40002441406
1644.36330646094	1115.40002441406
1644.97695896213	1124.40002441406
1645.59053096951	1129.40002441406
1646.20402249049	1124.40002441406
1646.8174335325	1119.80004882813
1647.43076410298	1130.59997558594
1648.04401420935	1130.40002441406
1648.65718385905	1123.19995117188
1649.2702730595	1128.80004882813
1649.88328181812	1121.59997558594
1650.49621014236	1128.40002441406
1651.10905803963	1126.40002441406
1651.72182551735	1128.80004882813
1652.33451258297	1122
1652.9471192439	1124.40002441406
1653.55964550757	1123
1654.1720913814	1107.19995117188
1654.78445687283	1108
1655.39674198926	1103.80004882813
1656.00894673814	1100
1656.62107112688	1097.40002441406
1657.23311516291	1108.80004882813
1657.84507885365	1093.19995117188
1658.45696220652	1090.40002441406
1659.06876522895	1083.59997558594
1659.68048792835	1083.19995117188
1660.29213031217	1086.80004882813
1660.90369238779	1083.80004882813
1661.51517416267	1087.80004882813
1662.12657564421	1090.40002441406
1662.73789683984	1078.40002441406
1663.34913775697	1070.19995117188
1663.96029840303	1076.40002441406
1664.57137878544	1084
1665.18237891161	1066.59997558594
1665.79329878897	1073.40002441406
1666.40413842493	1070.19995117188
1667.01489782691	1073.40002441406
1667.62557700233	1069.19995117188
1668.2361759586	1065.19995117188
1668.84669470315	1064.40002441406
1669.4571332434	1064.59997558594
1670.06749158675	1065.40002441406
1670.67776974062	1057.40002441406
1671.28796771243	1063.80004882813
1671.8980855096	1069.40002441406
1672.50812313954	1067
1673.11808060967	1079.19995117188
1673.72795792739	1074
1674.33775510013	1067
1674.9474721353	1066.19995117188
1675.55710904031	1056.80004882813
1676.16666582257	1056.80004882813
1676.7761424895	1053.19995117188
1677.38553904851	1050.59997558594
1677.99485550702	1046
1678.60409187243	1042.80004882813
1679.21324815215	1045.19995117188
1679.8223243536	1046.80004882813
1680.43132048419	1051.19995117188
1681.04023655132	1053.40002441406
1681.64907256241	1056.59997558594
1682.25782852487	1049.40002441406
1682.86650444611	1045.80004882813
1683.47510033353	1045.19995117188
1684.08361619455	1042.59997558594
1684.69205203657	1038.59997558594
1685.300407867	1037.59997558594
1685.90868369325	1042.59997558594
1686.51687952272	1038.80004882813
1687.12499536283	1043
1687.73303122098	1047.59997558594
1688.34098710457	1044.19995117188
1688.94886302101	1050.59997558594
1689.55665897772	1051
1690.16437498208	1055.59997558594
1690.77201104152	1048.59997558594
1691.37956716342	1045.40002441406
1691.9870433552	1046.40002441406
1692.59443962426	1040.80004882813
1693.20175597801	1043.19995117188
1693.80899242384	1043.59997558594
1694.41614896916	1046.19995117188
1695.02322562138	1041.19995117188
1695.63022238789	1040.80004882813
1696.23713927609	1042
1696.8439762934	1037.59997558594
1697.4507334472	1038
1698.05741074491	1034.80004882813
1698.66400819391	1047.59997558594
1699.27052580161	1043.80004882813
1699.87696357542	1052.40002441406
1700.48332152272	1047.19995117188
1701.08959965092	1039.40002441406
1701.69579796742	1045.80004882813
1702.30191647962	1038.59997558594
1702.90795519491	1038.40002441406
1703.51391412069	1035.80004882813
1704.11979326437	1023.40002441406
1704.72559263332	1031
1705.33131223496	1029.80004882813
1705.93695207668	1033.40002441406
1706.54251216588	1035
1707.14799250994	1032.19995117188
1707.75339311628	1042
1708.35871399227	1032.80004882813
1708.96395514532	1034.80004882813
1709.56911658282	1038
