634.948122577771	1352.59997558594
635.690341530823	1362.40002441406
636.43246851086	1375.80004882813
637.174503525845	1383
637.916446583745	1368.80004882813
638.658297692538	1353
639.400056860179	1357.40002441406
640.141724094637	1361.80004882813
640.883299403885	1353.19995117188
641.62478279588	1362.40002441406
642.366174278594	1357.80004882813
643.107473859989	1353.19995117188
643.848681548029	1358.59997558594
644.589797350679	1355.80004882813
645.330821275901	1366
646.071753331665	1367.40002441406
646.812593525922	1367.80004882813
647.553341866646	1368.59997558594
648.293998361798	1361.80004882813
649.03456301933	1352.40002441406
649.775035847216	1335
650.515416853409	1356.19995117188
651.255706045874	1348.80004882813
651.995903432568	1346
652.736009021453	1360
653.476022820486	1363
654.215944837629	1369.40002441406
654.955775080842	1376.40002441406
655.695513558081	1361.80004882813
656.435160277301	1385.19995117188
657.174715246465	1384.19995117188
657.914178473527	1372.40002441406
658.653549966449	1374.80004882813
659.392829733176	1373
660.132017781678	1381
660.871114119901	1378.19995117188
661.610118755803	1385.80004882813
662.349031697343	1374.80004882813
663.087852952468	1392.59997558594
663.826582529139	1392.80004882813
664.565220435305	1392
665.30376667892	1391.80004882813
666.04222126794	1389.59997558594
666.780584210316	1389.40002441406
667.518855514	1392.19995117188
668.25703518694	1385.59997558594
668.995123237096	1382.80004882813
669.733119672413	1388.19995117188
670.471024500842	1401.40002441406
671.208837730333	1394
671.946559368839	1387
672.684189424308	1380.80004882813
673.421727904689	1378
674.159174817929	1374.40002441406
674.896530171977	1381
675.633793974786	1380.19995117188
676.370966234295	1397.19995117188
677.108046958461	1394
677.845036155219	1405.80004882813
678.581933832528	1405.19995117188
679.318739998323	1414.59997558594
680.055454660558	1406.80004882813
680.792077827172	1389.40002441406
681.528609506116	1393.80004882813
682.265049705331	1410
683.001398432759	1390.59997558594
683.737655696349	1395.80004882813
684.47382150404	1386.19995117188
685.20989586378	1387
685.945878783503	1380
686.68177027116	1393
687.417570334688	1388.40002441406
688.153278982032	1395.59997558594
688.888896221129	1390.40002441406
689.624422059921	1380.40002441406
690.359856506349	1381
691.095199568354	1371.80004882813
691.830451253874	1372.80004882813
692.565611570844	1399.59997558594
693.300680527212	1399.59997558594
694.03565813091	1394.19995117188
694.770544389877	1406.40002441406
695.505339312053	1399.19995117188
696.240042905372	1403.59997558594
696.974655177772	1404.19995117188
697.70917613719	1393
698.443605791561	1390.59997558594
699.177944148826	1392.40002441406
699.912191216909	1385
700.646347003755	1390.40002441406
701.380411517295	1393.40002441406
702.114384765465	1390.19995117188
702.848266756195	1384.80004882813
703.582057497421	1392.59997558594
704.315756997074	1395.40002441406
705.049365263089	1405.80004882813
705.782882303399	1402.59997558594
706.516308125936	1396.59997558594
707.249642738626	1403.80004882813
707.982886149403	1404.59997558594
708.716038366204	1404.19995117188
709.449099396949	1402.19995117188
710.182069249577	1400.19995117188
710.914947932009	1399.40002441406
711.647735452181	1400.19995117188
712.380431818022	1402.80004882813
713.113037037454	1412.19995117188
713.845551118411	1407.19995117188
714.577974068818	1408.80004882813
715.310305896604	1416.19995117188
716.042546609694	1414
716.774696216013	1404.80004882813
717.506754723493	1400
718.238722140053	1397.80004882813
718.970598473624	1398.19995117188
719.702383732127	1389.40002441406
720.43407792349	1394
721.165681055634	1401.19995117188
721.897193136486	1408.19995117188
722.628614173966	1397
723.359944175997	1409.80004882813
724.091183150505	1406.59997558594
724.822331105412	1402.19995117188
725.553388048638	1404.19995117188
726.284353988106	1422
727.015228931734	1424.40002441406
727.746012887449	1429.19995117188
728.476705863162	1425.59997558594
729.207307866803	1423.40002441406
729.937818906289	1410
730.668238989535	1404.59997558594
731.398568124459	1408
732.128806318986	1414.19995117188
732.858953581034	1411
733.589009918514	1409.59997558594
734.318975339348	1392.80004882813
735.048849851452	1393
735.778633462744	1400.19995117188
736.508326181137	1390.19995117188
737.237928014549	1397.40002441406
737.967438970897	1403.19995117188
738.696859058095	1410.80004882813
739.426188284054	1404
740.155426656692	1403.59997558594
740.884574183922	1390.59997558594
741.613630873659	1379.80004882813
742.342596733815	1374.59997558594
743.071471772302	1378
743.800255997034	1387.19995117188
744.528949415921	1395.19995117188
745.257552036877	1402
745.986063867811	1399.19995117188
746.714484916638	1419.19995117188
747.442815191261	1408.59997558594
748.171054699597	1398.59997558594
748.899203449554	1386.80004882813
749.627261449039	1399.59997558594
750.355228705966	1388.80004882813
751.083105228239	1388.19995117188
751.810891023765	1399
752.538586100459	1401.59997558594
753.266190466218	1417.80004882813
753.99370412896	1411.40002441406
754.721127096582	1404
755.448459377	1423.80004882813
756.175700978114	1410.19995117188
756.902851907828	1412.80004882813
757.629912174055	1409.40002441406
758.356881784688	1401.40002441406
759.083760747639	1400.80004882813
759.810549070817	1395.80004882813
760.537246762113	1404.40002441406
761.263853829442	1393.59997558594
761.990370280698	1396.19995117188
762.716796123791	1406.59997558594
763.443131366618	1392
764.169376017082	1417.80004882813
764.895530083085	1419.59997558594
765.621593572527	1417.80004882813
766.347566493312	1427
767.073448853336	1430
767.799240660502	1429.80004882813
768.524941922707	1446.40002441406
769.250552647854	1451.40002441406
769.976072843836	1453.19995117188
770.701502518551	1460.80004882813
771.426841679905	1468.40002441406
772.152090335793	1469.59997558594
772.877248494107	1468.80004882813
773.602316162747	1467
774.327293349609	1472.40002441406
775.052180062592	1487.59997558594
775.776976309589	1496.59997558594
776.501682098496	1499.40002441406
777.226297437206	1487.19995117188
777.950822333616	1500.40002441406
778.675256795621	1485.59997558594
779.399600831111	1484.59997558594
780.123854447983	1470.80004882813
780.84801765413	1452.59997558594
781.572090457441	1442.40002441406
782.296072865811	1426
783.019964887131	1433.40002441406
783.743766529297	1427.40002441406
784.467477800194	1433
785.191098707719	1425.59997558594
785.914629259756	1438.19995117188
786.638069464194	1428.19995117188
787.361419328932	1420.40002441406
788.084678861852	1408.19995117188
788.807848070845	1408
789.530926963798	1398.40002441406
790.253915548602	1403.40002441406
790.976813833144	1402.19995117188
791.699621825307	1414
792.422339532986	1433
793.144966964061	1414
793.86750412642	1408.40002441406
794.589951027946	1397.80004882813
795.312307676536	1392.19995117188
796.03457408006	1397.59997558594
796.756750246417	1394.59997558594
797.478836183477	1389.59997558594
798.200831899137	1394.40002441406
798.92273740127	1384.59997558594
799.644552697769	1386
800.36627779651	1405
801.087912705374	1402.59997558594
801.809457432251	1399.19995117188
802.530911985017	1403
803.252276371558	1402
803.973550599748	1408.19995117188
804.694734677472	1424
805.415828612611	1406
806.136832413045	1416.80004882813
806.857746086646	1417.40002441406
807.578569641305	1412.59997558594
808.299303084892	1415.40002441406
809.019946425289	1414.19995117188
809.740499670372	1406
810.460962828022	1414.59997558594
811.181335906114	1409.59997558594
811.901618912524	1401.19995117188
812.621811855131	1407.19995117188
813.341914741809	1407
814.061927580433	1414.80004882813
814.781850378881	1403.80004882813
815.501683145025	1404.80004882813
816.221425886743	1391.40002441406
816.941078611903	1388.19995117188
817.660641328387	1398.19995117188
818.380114044065	1381
819.099496766808	1384
819.818789504492	1385.40002441406
820.53799226499	1393.80004882813
821.257105056168	1402.40002441406
821.976127885904	1411.19995117188
822.695060762064	1424.40002441406
823.413903692525	1415.40002441406
824.132656685151	1408.19995117188
824.851319747817	1394.40002441406
825.569892888388	1376.59997558594
826.288376114739	1379
827.006769434737	1376.59997558594
827.725072856249	1371.59997558594
828.443286387142	1388
829.161410035285	1375.40002441406
829.87944380855	1384
830.597387714798	1395.80004882813
831.315241761898	1395.59997558594
832.033005957715	1405.19995117188
832.750680310119	1411.59997558594
833.468264826969	1405.80004882813
834.18575951614	1414
834.903164385486	1413
835.620479442878	1406.40002441406
836.337704696181	1402.40002441406
837.054840153255	1402.40002441406
837.771885821962	1393.80004882813
838.488841710172	1389.19995117188
839.20570782574	1374.19995117188
839.922484176531	1376.40002441406
840.639170770409	1372
841.355767615231	1372.19995117188
842.072274718864	1375.40002441406
842.788692089164	1381
843.505019733993	1378.80004882813
844.221257661209	1373.19995117188
844.937405878676	1356.19995117188
845.65346439425	1363
846.369433215789	1362.80004882813
847.085312351156	1378
847.801101808205	1385
848.516801594793	1383.80004882813
849.232411718781	1389.19995117188
849.947932188021	1389
850.663363010376	1398.59997558594
851.378704193698	1397.59997558594
852.093955745842	1402.19995117188
852.809117674669	1386.80004882813
853.524189988028	1382
854.239172693778	1382.80004882813
854.954065799768	1382.59997558594
855.668869313857	1370.80004882813
856.383583243899	1376.59997558594
857.098207597743	1381.80004882813
857.812742383246	1380.40002441406
858.527187608255	1378.80004882813
859.241543280628	1390
859.955809408218	1382.19995117188
860.669985998868	1380
861.384073060437	1392
862.098070600772	1388
862.811978627724	1382.80004882813
863.52579714914	1381.59997558594
864.239526172873	1364.40002441406
864.953165706776	1364.40002441406
865.666715758687	1361.40002441406
866.380176336464	1379
867.093547447951	1385.59997558594
867.806829100996	1387
868.520021303444	1403.40002441406
869.233124063149	1402.19995117188
869.94613738795	1384.40002441406
870.659061285693	1397.59997558594
871.37189576423	1389.59997558594
872.084640831403	1387.19995117188
872.797296495057	1378.80004882813
873.509862763039	1383
874.22233964319	1373.80004882813
874.934727143353	1389.40002441406
875.647025271374	1398.19995117188
876.359234035097	1394.80004882813
877.071353442361	1403.19995117188
877.783383501015	1410.40002441406
878.495324218895	1396.80004882813
879.207175603844	1398.59997558594
879.918937663705	1394.59997558594
880.630610406318	1391
881.342193839524	1379.59997558594
882.053687971161	1373.40002441406
882.765092809069	1370.19995117188
883.476408361091	1374.59997558594
884.187634635066	1368.80004882813
884.898771638828	1377.40002441406
885.609819380221	1377.19995117188
886.320777867076	1382.40002441406
887.031647107236	1374.19995117188
887.742427108536	1372.80004882813
888.453117878816	1371.59997558594
889.16371942591	1372.80004882813
889.874231757652	1380
890.584654881883	1393.80004882813
891.294988806434	1389.59997558594
892.005233539141	1382
892.715389087837	1394.40002441406
893.42545546036	1405.19995117188
894.135432664543	1398.19995117188
894.845320708216	1406.80004882813
895.555119599216	1402.40002441406
896.264829345375	1396.59997558594
896.974449954526	1388.19995117188
897.683981434496	1390.80004882813
898.393423793125	1388.19995117188
899.102777038235	1381.19995117188
899.812041177664	1402.19995117188
900.521216219239	1392.80004882813
901.230302170793	1388.40002441406
901.939299040155	1375.40002441406
902.64820683515	1370.40002441406
903.357025563612	1365.59997558594
904.065755233368	1367.19995117188
904.774395852247	1359.19995117188
905.482947428076	1370.40002441406
906.191409968682	1377.80004882813
906.899783481897	1384.40002441406
907.608067975538	1390.40002441406
908.316263457443	1396.80004882813
909.02436993543	1396
909.732387417327	1397.80004882813
910.440315910959	1390.19995117188
911.148155424154	1401.80004882813
911.855905964731	1380
912.563567540521	1385.80004882813
913.271140159339	1386.40002441406
913.978623829017	1386
914.686018557374	1389.19995117188
915.393324352237	1382
916.100541221421	1374.19995117188
916.807669172752	1381.59997558594
917.514708214054	1382.59997558594
918.221658353142	1382.80004882813
918.928519597843	1379.80004882813
919.635291955976	1376.59997558594
920.341975435358	1392.40002441406
921.048570043813	1380.19995117188
921.75507578916	1386.40002441406
922.461492679212	1387.40002441406
923.167820721795	1380.59997558594
923.874059924726	1386.19995117188
924.58021029582	1380.80004882813
925.286271842893	1389.19995117188
925.992244573769	1377.19995117188
926.698128496262	1366.19995117188
927.403923618184	1374.59997558594
928.109629947355	1380
928.815247491593	1380.59997558594
929.520776258708	1389
930.226216256519	1367.80004882813
930.931567492841	1389.19995117188
931.636829975482	1379.59997558594
932.342003712263	1389
933.047088710995	1374.40002441406
933.752084979491	1382.19995117188
934.456992525564	1381.19995117188
935.161811357024	1386.59997558594
935.866541481688	1370.80004882813
936.571182907363	1367.80004882813
937.275735641861	1375
937.980199692995	1361.59997558594
938.684575068572	1381.59997558594
939.388861776411	1360.19995117188
940.093059824311	1359.80004882813
940.797169220085	1357.80004882813
941.501189971544	1356.59997558594
942.205122086495	1370.59997558594
942.908965572751	1370
943.612720438111	1367.19995117188
944.316386690391	1367.40002441406
945.019964337391	1373
945.723453386924	1380.80004882813
946.426853846795	1386.59997558594
947.130165724808	1368.80004882813
947.83338902877	1356.40002441406
948.536523766488	1365.19995117188
949.239569945764	1373.59997558594
949.942527574402	1377.19995117188
950.64539666021	1357.80004882813
951.348177210993	1365.59997558594
952.050869234548	1356.59997558594
952.753472738683	1365.40002441406
953.455987731199	1366.40002441406
954.158414219898	1350.40002441406
954.860752212587	1358.19995117188
955.563001717061	1354.80004882813
956.265162741124	1358.40002441406
956.967235292576	1362.40002441406
957.669219379224	1374.59997558594
958.371115008857	1373.80004882813
959.072922189283	1368.19995117188
959.774640928301	1364.80004882813
960.476271233708	1374.59997558594
961.177813113301	1362.40002441406
961.879266574882	1355.19995117188
962.580631626248	1355.59997558594
963.281908275194	1350.80004882813
963.98309652952	1351.19995117188
964.684196397022	1347.19995117188
965.3852078855	1341.40002441406
966.086131002745	1341.19995117188
966.786965756555	1341.80004882813
967.487712154726	1344.40002441406
968.188370205055	1358.59997558594
968.888939915331	1340.59997558594
969.589421293352	1349.19995117188
970.289814346909	1353.80004882813
970.990119083801	1354.19995117188
971.690335511819	1346.80004882813
972.39046363875	1357.59997558594
973.090503472398	1344.40002441406
973.790455020545	1365.19995117188
974.490318290987	1352.59997558594
975.190093291516	1355.80004882813
975.889780029923	1350.40002441406
976.589378513998	1346.80004882813
977.288888751527	1360.40002441406
977.988310750308	1352.59997558594
978.687644518122	1355.19995117188
979.386890062767	1353.19995117188
980.086047392025	1342.80004882813
980.785116513689	1334
981.484097435542	1343.40002441406
982.182990165377	1349
982.88179471098	1340.59997558594
983.580511080137	1354
984.279139280632	1343
984.977679320253	1355.40002441406
985.67613120679	1348.19995117188
986.374494948027	1347.40002441406
987.072770551745	1354.59997558594
987.770958025731	1355.40002441406
988.469057377772	1352.80004882813
989.167068615649	1358.40002441406
989.864991747145	1344.80004882813
990.562826780047	1343.19995117188
991.260573722134	1346.40002441406
991.958232581195	1349.59997558594
992.655803365003	1332
993.353286081346	1344.80004882813
994.050680738006	1358
994.74798734276	1353.80004882813
995.44520590339	1369.40002441406
996.142336427681	1350.19995117188
996.839378923407	1343
997.536333398348	1358.19995117188
998.233199860289	1350.19995117188
998.929978317004	1347.40002441406
999.626668776274	1346.80004882813
1000.32327124587	1327.19995117188
1001.01978573359	1328.59997558594
1001.71621224718	1331.80004882813
1002.41255079445	1312.40002441406
1003.10880138315	1321.80004882813
1003.80496402107	1333
1004.50103871599	1334.19995117188
1005.19702547567	1343.19995117188
1005.8929243079	1343.19995117188
1006.58873522045	1341
1007.2844582211	1348.59997558594
1007.98009331761	1358
1008.67564051776	1347.80004882813
1009.37109982933	1350
1010.06647126009	1369
1010.7617548178	1357.40002441406
1011.45695051026	1362.40002441406
1012.15205834522	1354.40002441406
1012.84707833045	1356
1013.54201047373	1363.59997558594
1014.23685478284	1346.19995117188
1014.93161126553	1346.19995117188
1015.62627992959	1341.59997558594
1016.32086078277	1338
1017.01535383285	1329
1017.70975908761	1347.19995117188
1018.40407655479	1351.40002441406
1019.09830624219	1363.59997558594
1019.79244815755	1357.59997558594
1020.48650230866	1345.59997558594
1021.18046870328	1367.59997558594
1021.87434734917	1360.80004882813
1022.56813825411	1345.59997558594
1023.26184142584	1341.40002441406
1023.95545687216	1336.19995117188
1024.64898460082	1338.59997558594
1025.34242461957	1348.80004882813
1026.0357769362	1343.59997558594
1026.72904155846	1343.19995117188
1027.42221849412	1345
1028.11530775094	1339.59997558594
1028.80830933668	1354.40002441406
1029.50122325911	1343.80004882813
1030.19404952599	1332.80004882813
1030.88678814508	1337.40002441406
1031.57943912414	1332.19995117188
1032.27200247093	1333.80004882813
1032.96447819323	1331
1033.65686629878	1342
1034.34916679534	1344
1035.04137969068	1347.59997558594
1035.73350499256	1341.59997558594
1036.42554270874	1340.40002441406
1037.11749284697	1337.59997558594
1037.80935541501	1324.40002441406
1038.50113042062	1331.19995117188
1039.19281787156	1325
1039.88441777559	1332.40002441406
1040.57593014046	1313.59997558594
1041.26735497393	1314.80004882813
1041.95869228376	1327
1042.6499420777	1326
1043.3411043635	1332.59997558594
1044.03217914893	1323.80004882813
1044.72316644174	1323.40002441406
1045.41406624968	1323.59997558594
1046.1048785805	1338.19995117188
1046.79560344197	1325.40002441406
1047.48624084182	1327.59997558594
1048.17679078783	1316.40002441406
1048.86725328774	1309.80004882813
1049.55762834929	1320.59997558594
1050.24791598025	1316.40002441406
1050.93811618837	1314.59997558594
1051.62822898139	1309.19995117188
1052.31825436707	1305.80004882813
1053.00819235315	1320
1053.6980429474	1323
1054.38780615755	1331.40002441406
1055.07748199136	1329.80004882813
1055.76707045658	1326.80004882813
1056.45657156095	1327.80004882813
1057.14598531222	1337.80004882813
1057.83531171814	1337
1058.52455078646	1339.19995117188
1059.21370252494	1333.59997558594
1059.90276694129	1324.59997558594
1060.5917440433	1329
1061.28063383868	1330.59997558594
1061.9694363352	1330
1062.65815154059	1333.19995117188
1063.34677946261	1327.40002441406
1064.03532010899	1316.59997558594
1064.72377348748	1313.80004882813
1065.41213960583	1324.19995117188
1066.10041847177	1315.19995117188
1066.78861009306	1312
1067.47671447743	1321.80004882813
1068.16473163263	1307.59997558594
1068.85266156639	1317.40002441406
1069.54050428647	1315.80004882813
1070.2282598006	1334
1070.91592811652	1325
1071.60350924198	1322.80004882813
1072.29100318471	1325
1072.97840995245	1326.40002441406
1073.66572955295	1317.80004882813
1074.35296199394	1317.19995117188
1075.04010728316	1313.80004882813
1075.72716542836	1310
1076.41413643726	1305.80004882813
1077.10102031761	1305.59997558594
1077.78781707715	1308
1078.4745267236	1301.59997558594
1079.16114926471	1309
1079.84768470822	1308.40002441406
1080.53413306185	1307.80004882813
1081.22049433336	1315.40002441406
1081.90676853046	1319.59997558594
1082.5929556609	1324.59997558594
1083.27905573241	1330.19995117188
1083.96506875272	1326.59997558594
1084.65099472957	1324.19995117188
1085.3368336707	1336.19995117188
1086.02258558383	1327.80004882813
1086.70825047669	1313.59997558594
1087.39382835703	1314.59997558594
1088.07931923257	1302.19995117188
1088.76472311104	1303.40002441406
1089.45004000018	1319.40002441406
1090.13526990771	1315
1090.82041284137	1315.40002441406
1091.50546880889	1312.40002441406
1092.19043781799	1321.59997558594
1092.87531987642	1327.80004882813
1093.56011499188	1307
1094.24482317212	1301.19995117188
1094.92944442486	1305.80004882813
1095.61397875783	1300.80004882813
1096.29842617876	1295
1096.98278669537	1304.40002441406
1097.6670603154	1298.80004882813
1098.35124704656	1305.59997558594
1099.03534689659	1297
1099.71935987322	1297.80004882813
1100.40328598416	1310.80004882813
1101.08712523713	1312.40002441406
1101.77087763988	1310.40002441406
1102.45454320012	1319.40002441406
1103.13812192557	1309.80004882813
1103.82161382396	1322.40002441406
1104.50501890301	1317
1105.18833717045	1304.80004882813
1105.87156863399	1318.80004882813
1106.55471330137	1305.80004882813
1107.2377711803	1314
1107.9207422785	1306.59997558594
1108.60362660369	1302
1109.2864241636	1314
1109.96913496594	1312.59997558594
1110.65175901844	1320.59997558594
1111.33429632882	1317.80004882813
1112.01674690479	1301.80004882813
1112.69911075408	1304.19995117188
1113.38138788439	1293.19995117188
1114.06357830346	1307.40002441406
1114.745682019	1312
1115.42769903872	1303
1116.10962937035	1306
1116.7914730216	1306.80004882813
1117.47323000018	1306.19995117188
1118.15490031382	1316.80004882813
1118.83648397022	1307
1119.51798097712	1310
1120.1993913422	1322
1120.88071507321	1319.59997558594
1121.56195217784	1321.59997558594
1122.24310266381	1314.59997558594
1122.92416653884	1322.40002441406
1123.60514381064	1322.40002441406
1124.28603448692	1300.59997558594
1124.9668385754	1320
1125.64755608378	1312.40002441406
1126.32818701978	1301.40002441406
1127.00873139111	1311.19995117188
1127.68918920548	1306.80004882813
1128.3695604706	1313.59997558594
1129.04984519419	1305.59997558594
1129.73004338394	1313.40002441406
1130.41015504758	1322.59997558594
1131.09018019281	1321.40002441406
1131.77011882734	1307.59997558594
1132.44997095888	1296.19995117188
1133.12973659514	1305.59997558594
1133.80941574381	1300.59997558594
1134.48900841263	1299.59997558594
1135.16851460927	1306
1135.84793434147	1293.80004882813
1136.52726761692	1288.59997558594
1137.20651444333	1299
1137.8856748284	1298.59997558594
1138.56474877984	1301.80004882813
1139.24373630536	1307.40002441406
1139.92263741265	1296.40002441406
1140.60145210943	1304.80004882813
1141.28018040339	1307
1141.95882230225	1313.19995117188
1142.6373778137	1296
1143.31584694545	1307.59997558594
1143.99422970519	1305
1144.67252610064	1309.19995117188
1145.35073613949	1297.80004882813
1146.02885982944	1288.19995117188
1146.7068971782	1294.80004882813
1147.38484819347	1291.80004882813
1148.06271288294	1284.40002441406
1148.74049125432	1298.40002441406
1149.41818331531	1296.19995117188
1150.0957890736	1286.40002441406
1150.77330853689	1279.19995117188
1151.45074171289	1288.19995117188
1152.12808860928	1280.40002441406
1152.80534923378	1293
1153.48252359407	1280
1154.15961169786	1277.40002441406
1154.83661355283	1286.40002441406
1155.51352916669	1283.19995117188
1156.19035854713	1292
1156.86710170185	1298.59997558594
1157.54375863855	1294.59997558594
1158.22032936491	1288.40002441406
1158.89681388863	1286.80004882813
1159.57321221741	1283.40002441406
1160.24952435894	1289.19995117188
1160.92575032092	1284.19995117188
1161.60189011103	1279.80004882813
1162.27794373697	1285.19995117188
1162.95391120644	1284.19995117188
1163.62979252712	1287
1164.3055877067	1291.80004882813
1164.98129675288	1291.40002441406
1165.65691967336	1297
1166.33245647581	1290.59997558594
1167.00790716792	1294.59997558594
1167.6832717574	1289.80004882813
1168.35855025193	1302.19995117188
1169.0337426592	1292.19995117188
1169.70884898689	1291.80004882813
1170.3838692427	1290.80004882813
1171.05880343431	1280.19995117188
1171.73365156941	1282
1172.40841365569	1283
1173.08308970083	1284.80004882813
1173.75767971253	1280.19995117188
1174.43218369847	1274.40002441406
1175.10660166633	1302.19995117188
1175.7809336238	1293.80004882813
1176.45517957857	1305.59997558594
1177.12933953832	1317
1177.80341351073	1312.59997558594
1178.47740150349	1314.59997558594
1179.15130352429	1306.40002441406
1179.8251195808	1302
1180.49884968071	1303.40002441406
1181.1724938317	1312.40002441406
1181.84605204145	1307.19995117188
1182.51952431766	1298.59997558594
1183.19291066799	1293.40002441406
1183.86621110013	1302
1184.53942562176	1304.19995117188
1185.21255424057	1296.40002441406
1185.88559696422	1302
1186.55855380041	1318.19995117188
1187.2314247568	1326.59997558594
1187.90420984109	1319.59997558594
1188.57690906095	1315.19995117188
1189.24952242405	1315.59997558594
1189.92204993808	1321.40002441406
1190.59449161071	1306.59997558594
1191.26684744962	1308.40002441406
1191.93911746249	1306.40002441406
1192.61130165699	1299.40002441406
1193.28340004081	1300
1193.95541262161	1287.40002441406
1194.62733940707	1281
1195.29918040487	1296.59997558594
1195.97093562269	1300.40002441406
1196.64260506819	1293.19995117188
1197.31418874905	1314.19995117188
1197.98568667295	1313.19995117188
1198.65709884755	1304
1199.32842528053	1301
1199.99966597957	1302.59997558594
1200.67082095234	1289
1201.3418902065	1287.80004882813
1202.01287374974	1287.19995117188
1202.68377158971	1284.40002441406
1203.3545837341	1272.59997558594
1204.02531019057	1273.80004882813
1204.6959509668	1269.19995117188
1205.36650607045	1270
1206.03697550919	1268.80004882813
1206.70735929069	1276
1207.37765742263	1273.40002441406
1208.04786991266	1263.59997558594
1208.71799676846	1262.19995117188
1209.38803799769	1260.19995117188
1210.05799360803	1269.19995117188
1210.72786360714	1270.59997558594
1211.39764800268	1268.19995117188
1212.06734680233	1280.19995117188
1212.73696001375	1275.59997558594
1213.4064876446	1273.19995117188
1214.07592970255	1269.80004882813
1214.74528619526	1274.40002441406
1215.4145571304	1268.80004882813
1216.08374251564	1279
1216.75284235863	1280.80004882813
1217.42185666704	1269
1218.09078544854	1268.40002441406
1218.75962871078	1266.40002441406
1219.42838646143	1271.19995117188
1220.09705870816	1276.80004882813
1220.76564545861	1277.59997558594
1221.43414672046	1263.40002441406
1222.10256250136	1262
1222.77089280898	1275.40002441406
1223.43913765098	1268.80004882813
1224.107297035	1273.80004882813
1224.77537096873	1271.59997558594
1225.44335945981	1263.40002441406
1226.1112625159	1264.19995117188
1226.77908014467	1266.19995117188
1227.44681235376	1273
1228.11445915085	1269.59997558594
1228.78202054357	1269
1229.44949653961	1275.40002441406
1230.11688714659	1276.40002441406
1230.7841923722	1281.80004882813
1231.45141222407	1279
1232.11854670988	1271.40002441406
1232.78559583726	1267.80004882813
1233.45255961388	1288.19995117188
1234.1194380474	1265.19995117188
1234.78623114546	1260
1235.45293891572	1261.80004882813
1236.11956136583	1277
1236.78609850345	1276
1237.45255033623	1273
1238.11891687182	1255.59997558594
1238.78519811788	1266.59997558594
1239.45139408205	1255.80004882813
1240.11750477198	1256.80004882813
1240.78353019534	1250
1241.44947035976	1250.19995117188
1242.11532527291	1260
1242.78109494242	1256.40002441406
1243.44677937595	1266.80004882813
1244.11237858115	1262
1244.77789256567	1260
1245.44332133715	1266.80004882813
1246.10866490325	1260.19995117188
1246.7739232716	1266.40002441406
1247.43909644987	1270.40002441406
1248.10418444569	1261.59997558594
1248.76918726671	1260.19995117188
1249.43410492059	1252.80004882813
1250.09893741496	1272.40002441406
1250.76368475747	1260.59997558594
1251.42834695576	1263.40002441406
1252.09292401749	1254.19995117188
1252.75741595029	1259.80004882813
1253.42182276182	1263
1254.08614445971	1245.19995117188
1254.75038105161	1251.59997558594
1255.41453254515	1261.19995117188
1256.07859894799	1259.19995117188
1256.74258026777	1255
1257.40647651213	1264.40002441406
1258.0702876887	1258.19995117188
1258.73401380514	1262
1259.39765486908	1259.80004882813
1260.06121088817	1261.40002441406
1260.72468187004	1263.59997558594
1261.38806782233	1251.59997558594
1262.05136875269	1253.19995117188
1262.71458466875	1257.19995117188
1263.37771557815	1254.40002441406
1264.04076148854	1256.19995117188
1264.70372240753	1252.80004882813
1265.3665983428	1272
1266.02938930195	1275.40002441406
1266.69209529263	1271
1267.35471632249	1260.80004882813
1268.01725239914	1262
1268.67970353024	1251.19995117188
1269.34206972342	1242.59997558594
1270.00435098631	1256.40002441406
1270.66654732655	1247
1271.32865875177	1252
1271.9906852696	1246.19995117188
1272.65262688768	1250.80004882813
1273.31448361365	1237
1273.97625545514	1247.80004882813
1274.63794241978	1246.19995117188
1275.2995445152	1245.19995117188
1275.96106174903	1248
1276.62249412892	1231
1277.28384166248	1236
1277.94510435735	1244.19995117188
1278.60628222116	1255.80004882813
1279.26737526155	1245.80004882813
1279.92838348613	1262.59997558594
1280.58930690255	1252.80004882813
1281.25014551842	1260.59997558594
1281.91089934139	1250.59997558594
1282.57156837907	1244.80004882813
1283.2321526391	1243.40002441406
1283.89265212911	1251.19995117188
1284.55306685671	1260.19995117188
1285.21339682955	1241.80004882813
1285.87364205525	1258.80004882813
1286.53380254142	1249.19995117188
1287.19387829571	1241
1287.85386932573	1227.59997558594
1288.51377563911	1237.59997558594
1289.17359724348	1232.19995117188
1289.83333414646	1239
1290.49298635567	1246.40002441406
1291.15255387874	1230.40002441406
1291.8120367233	1236
1292.47143489696	1238.59997558594
1293.13074840736	1254.59997558594
1293.7899772621	1243.80004882813
1294.44912146882	1252.19995117188
1295.10818103513	1240.80004882813
1295.76715596866	1245.80004882813
1296.42604627704	1235.40002441406
1297.08485196787	1234.80004882813
1297.74357304878	1230.40002441406
1298.4022095274	1238
1299.06076141134	1256
1299.71922870821	1244.80004882813
1300.37761142565	1253.59997558594
1301.03590957126	1255.40002441406
1301.69412315268	1262.80004882813
1302.3522521775	1253.40002441406
1303.01029665336	1261.40002441406
1303.66825658787	1258.80004882813
1304.32613198865	1259.80004882813
1304.98392286332	1254.40002441406
1305.64162921948	1256.80004882813
1306.29925106476	1274.80004882813
1306.95678840677	1265.80004882813
1307.61424125312	1264
1308.27160961145	1260
1308.92889348934	1257.59997558594
1309.58609289443	1254.59997558594
1310.24320783432	1256.40002441406
1310.90023831664	1247.59997558594
1311.55718434898	1262.19995117188
1312.21404593897	1255.40002441406
1312.87082309421	1260
1313.52751582233	1252
1314.18412413092	1268.19995117188
1314.84064802761	1263
1315.49708752	1268.59997558594
1316.1534426157	1272.19995117188
1316.80971332233	1269.59997558594
1317.46589964749	1267.80004882813
1318.1220015988	1276.19995117188
1318.77801918386	1271.59997558594
1319.43395241028	1262
1320.08980128567	1270.59997558594
1320.74556581764	1257.19995117188
1321.4012460138	1269
1322.05684188176	1271.80004882813
1322.71235342911	1277.19995117188
1323.36778066347	1273.59997558594
1324.02312359245	1266.59997558594
1324.67838222365	1265.80004882813
1325.33355656468	1270.19995117188
1325.98864662314	1254.59997558594
1326.64365240663	1252.59997558594
1327.29857392277	1249.40002441406
1327.95341117915	1255.59997558594
1328.60816418339	1245.80004882813
1329.26283294308	1235.19995117188
1329.91741746582	1235.59997558594
1330.57191775923	1223.40002441406
1331.2263338309	1230
1331.88066568843	1221.19995117188
1332.53491333943	1218
1333.1890767915	1242
1333.84315605224	1239.80004882813
1334.49715112925	1239.80004882813
1335.15106203013	1256.19995117188
1335.80488876249	1250.80004882813
1336.45863133391	1259.80004882813
1337.112289752	1250.80004882813
1337.76586402437	1255
1338.4193541586	1250
1339.0727601623	1250.40002441406
1339.72608204306	1243.80004882813
1340.37931980849	1250.80004882813
1341.03247346617	1251.40002441406
1341.68554302372	1253
1342.33852848871	1258.40002441406
1342.99142986876	1256.40002441406
1343.64424717145	1254.59997558594
1344.29698040438	1244.59997558594
1344.94962957515	1252.40002441406
1345.60219469135	1251.19995117188
1346.25467576058	1265.59997558594
1346.90707279042	1256.80004882813
1347.55938578848	1254.80004882813
1348.21161476235	1250.40002441406
1348.86375971962	1246
1349.51582066787	1246.59997558594
1350.16779761472	1255.40002441406
1350.81969056774	1259.40002441406
1351.47149953453	1263.59997558594
1352.12322452269	1266.40002441406
1352.77486553979	1272.19995117188
1353.42642259344	1275
1354.07789569122	1267.59997558594
1354.72928484072	1276.40002441406
1355.38059004953	1262.19995117188
1356.03181132525	1269.59997558594
1356.68294867545	1270.40002441406
1357.33400210773	1276.59997558594
1357.98497162968	1275
1358.63585724889	1276.40002441406
1359.28665897294	1269.40002441406
1359.93737680942	1285.19995117188
1360.58801076591	1288.80004882813
1361.23856085001	1305.80004882813
1361.88902706929	1301.40002441406
1362.53940943135	1295.19995117188
1363.18970794377	1306.80004882813
1363.83992261413	1297.59997558594
1364.49005345003	1306
1365.14010045904	1308.59997558594
1365.79006364874	1301.40002441406
1366.43994302673	1300.59997558594
1367.08973860058	1299.19995117188
1367.73945037788	1278
1368.38907836621	1282
1369.03862257315	1273.19995117188
1369.68808300629	1268.59997558594
1370.3374596732	1270.80004882813
1370.98675258148	1261.40002441406
1371.63596173868	1259.19995117188
1372.28508715241	1260.59997558594
1372.93412883024	1250.80004882813
1373.58308677974	1253.40002441406
1374.2319610085	1249
1374.8807515241	1245.40002441406
1375.52945833412	1252.59997558594
1376.17808144612	1253.40002441406
1376.82662086771	1261
1377.47507660644	1242
1378.12344866989	1243.80004882813
1378.77173706565	1239
1379.41994180129	1237.80004882813
1380.06806288439	1232
1380.71610032252	1235.19995117188
1381.36405412326	1233.80004882813
1382.01192429419	1226.59997558594
1382.65971084287	1232.80004882813
1383.30741377688	1231.40002441406
1383.95503310381	1231.19995117188
1384.60256883121	1220.59997558594
1385.25002096667	1236.40002441406
1385.89738951775	1227.19995117188
1386.54467449204	1228.19995117188
1387.19187589709	1225
1387.8389937405	1212.40002441406
1388.48602802982	1216.59997558594
1389.13297877262	1221.40002441406
1389.77984597649	1225.19995117188
1390.42662964899	1225.40002441406
1391.07332979768	1228.19995117188
1391.71994643015	1218
1392.36647955395	1221.80004882813
1393.01292917667	1217.59997558594
1393.65929530586	1223.19995117188
1394.3055779491	1222.40002441406
1394.95177711395	1222.59997558594
1395.59789280799	1223.59997558594
1396.24392503877	1217
1396.88987381387	1225
1397.53573914086	1216
1398.1815210273	1229.19995117188
1398.82721948075	1222.40002441406
1399.47283450878	1234.80004882813
1400.11836611897	1223
1400.76381431886	1221.19995117188
1401.40917911603	1227.59997558594
1402.05446051805	1223.40002441406
1402.69965853247	1222.19995117188
1403.34477316686	1224.19995117188
1403.98980442878	1227.19995117188
1404.6347523258	1218.59997558594
1405.27961686548	1213.40002441406
1405.92439805538	1214
1406.56909590306	1206.19995117188
1407.21371041608	1211.80004882813
1407.85824160202	1201.59997558594
1408.50268946841	1206
1409.14705402284	1207.59997558594
1409.79133527285	1200.59997558594
1410.43553322601	1204.80004882813
1411.07964788987	1203.40002441406
1411.723679272	1203.19995117188
1412.36762737996	1199.59997558594
1413.01149222129	1201.40002441406
1413.65527380357	1205.80004882813
1414.29897213435	1198.80004882813
1414.94258722118	1206
1415.58611907163	1211.19995117188
1416.22956769325	1215.19995117188
1416.87293309359	1226.59997558594
1417.51621528021	1212.19995117188
1418.15941426067	1216.19995117188
1418.80253004253	1209
1419.44556263333	1210.80004882813
1420.08851204063	1221.80004882813
1420.731378272	1217
1421.37416133497	1223.40002441406
1422.0168612371	1223.19995117188
1422.65947798596	1220.80004882813
1423.30201158908	1222
1423.94446205403	1220.80004882813
1424.58682938835	1231.40002441406
1425.2291135996	1220
1425.87131469532	1226
1426.51343268308	1213.59997558594
1427.15546757042	1209.40002441406
1427.79741936488	1206.40002441406
1428.43928807403	1203.40002441406
1429.0810737054	1212.40002441406
1429.72277626656	1215.59997558594
1430.36439576504	1211.59997558594
1431.00593220841	1201.59997558594
1431.64738560419	1211
1432.28875595995	1206.80004882813
1432.93004328324	1204.40002441406
1433.57124758159	1208.19995117188
1434.21236886255	1191.59997558594
1434.85340713368	1197.40002441406
1435.49436240252	1187
1436.13523467661	1198.19995117188
1436.77602396349	1192.59997558594
1437.41673027073	1198.40002441406
1438.05735360585	1201.40002441406
1438.69789397641	1199.40002441406
1439.33835138994	1207.40002441406
1439.978725854	1208.19995117188
1440.61901737612	1199.19995117188
1441.25922596385	1200.19995117188
1441.89935162473	1192.59997558594
1442.53939436631	1194.80004882813
1443.17935419612	1193.59997558594
1443.81923112171	1204
1444.45902515061	1211.19995117188
1445.09873629038	1205.40002441406
1445.73836454854	1215.40002441406
1446.37790993265	1221.80004882813
1447.01737245024	1220.40002441406
1447.65675210885	1215
1448.29604891602	1216.19995117188
1448.93526287928	1199.40002441406
1449.57439400618	1199
1450.21344230426	1189.40002441406
1450.85240778105	1200
1451.49129044409	1190.80004882813
1452.13009030092	1187
1452.76880735907	1183.80004882813
1453.40744162608	1197.59997558594
1454.04599310949	1189.19995117188
1454.68446181683	1191.40002441406
1455.32284775564	1198
1455.96115093345	1199.80004882813
1456.5993713578	1197.40002441406
1457.23750903623	1197
1457.87556397626	1196.19995117188
1458.51353618543	1199.19995117188
1459.15142567127	1193.40002441406
1459.78923244132	1195.59997558594
1460.42695650311	1195.19995117188
1461.06459786417	1196
1461.70215653203	1195
1462.33963251423	1200
1462.97702581829	1193.80004882813
1463.61433645175	1206.59997558594
1464.25156442214	1209.59997558594
1464.88870973699	1211.19995117188
1465.52577240382	1206.19995117188
1466.16275243017	1197
1466.79964982356	1198.59997558594
1467.43646459154	1193.80004882813
1468.07319674161	1192.40002441406
1468.70984628132	1203
1469.34641321818	1196.40002441406
1469.98289755974	1198.59997558594
1470.6192993135	1202
1471.25561848701	1205.19995117188
1471.89185508779	1196.40002441406
1472.52800912336	1202.59997558594
1473.16408060124	1200.80004882813
1473.80006952897	1194.19995117188
1474.43597591407	1192.40002441406
1475.07179976406	1200.19995117188
1475.70754108647	1195.19995117188
1476.34319988883	1197
1476.97877617865	1187.80004882813
1477.61426996345	1189.59997558594
1478.24968125077	1194.40002441406
1478.88501004812	1200.59997558594
1479.52025636303	1191.80004882813
1480.15542020302	1189.80004882813
1480.79050157561	1198.80004882813
1481.42550048832	1196.40002441406
1482.06041694867	1187.40002441406
1482.69525096418	1190.80004882813
1483.33000254237	1195.80004882813
1483.96467169077	1186.59997558594
1484.59925841689	1195.40002441406
1485.23376272825	1185
1485.86818463237	1194.59997558594
1486.50252413677	1184.19995117188
1487.13678124896	1185.19995117188
1487.77095597646	1186.40002441406
1488.4050483268	1191.19995117188
1489.03905830749	1189.40002441406
1489.67298592604	1197.40002441406
1490.30683118996	1195.80004882813
1490.9405941068	1196
1491.57427468403	1205.59997558594
1492.2078729292	1204.40002441406
1492.84138884981	1194.80004882813
1493.47482245338	1196.19995117188
1494.10817374742	1204.19995117188
1494.74144273944	1203.59997558594
1495.37462943696	1204.80004882813
1496.0077338475	1195
1496.64075597856	1202.19995117188
1497.27369583765	1195.19995117188
1497.9065534323	1198.40002441406
1498.53932877001	1206.59997558594
1499.17202185829	1192.59997558594
1499.80463270465	1189.59997558594
1500.43716131661	1201
1501.06960770167	1201.40002441406
1501.70197186735	1207.59997558594
1502.33425382116	1200.19995117188
1502.96645357059	1214.80004882813
1503.59857112317	1210.40002441406
1504.23060648641	1211.59997558594
1504.8625596678	1212.40002441406
1505.49443067486	1219.59997558594
1506.1262195151	1223.40002441406
1506.75792619602	1226.19995117188
1507.38955072513	1229.19995117188
1508.02109310993	1231.59997558594
1508.65255335794	1231
1509.28393147666	1224.59997558594
1509.91522747359	1219.80004882813
1510.54644135624	1217.19995117188
1511.17757313212	1213
1511.80862280872	1208.40002441406
1512.43959039356	1207.80004882813
1513.07047589413	1207.40002441406
1513.70127931795	1209
1514.33200067251	1202.80004882813
1514.96263996531	1191.80004882813
1515.59319720386	1197
1516.22367239567	1178
1516.85406554822	1183.80004882813
1517.48437666903	1185
1518.1146057656	1187.80004882813
1518.74475284542	1185.80004882813
1519.374817916	1187.19995117188
1520.00480098483	1189.19995117188
1520.63470205942	1180.19995117188
1521.26452114726	1182
1521.89425825586	1183.80004882813
1522.52391339271	1183.40002441406
1523.15348656531	1181.19995117188
1523.78297778116	1176
1524.41238704775	1183.80004882813
1525.04171437259	1177.80004882813
1525.67095976317	1172
1526.30012322699	1175.19995117188
1526.92920477154	1174
1527.55820440432	1169.40002441406
1528.18712213283	1170
1528.81595796455	1166.59997558594
1529.44471190699	1172.80004882813
1530.07338396764	1170.40002441406
1530.70197415399	1175
1531.33048247353	1183.40002441406
1531.95890893377	1181.19995117188
1532.58725354219	1179.40002441406
1533.21551630629	1181.19995117188
1533.84369723356	1188.59997558594
1534.47179633148	1178.19995117188
1535.09981360757	1169.19995117188
1535.72774906929	1171
1536.35560272415	1180.80004882813
1536.98337457963	1175.80004882813
1537.61106464323	1194.40002441406
1538.23867292243	1183.80004882813
1538.86619942473	1179.80004882813
1539.49364415762	1183.19995117188
1540.12100712857	1180.19995117188
1540.74828834509	1169.59997558594
1541.37548781466	1172
1542.00260554478	1160.19995117188
1542.62964154291	1160
1543.25659581655	1164.19995117188
1543.8834683732	1154.40002441406
1544.51025922034	1157
1545.13696836544	1150.19995117188
1545.76359581601	1161.59997558594
1546.39014157952	1164
1547.01660566345	1166.19995117188
1547.64298807531	1167.59997558594
1548.26928882255	1182.80004882813
1548.89550791269	1180.59997558594
1549.52164535318	1180.59997558594
1550.14770115153	1176
1550.77367531521	1168.80004882813
1551.39956785171	1165.59997558594
1552.0253787685	1159
1552.65110807307	1170.59997558594
1553.2767557729	1159
1553.90232187548	1149.40002441406
1554.52780638828	1155.80004882813
1555.15320931879	1163.80004882813
1555.77853067447	1159
1556.40377046282	1161.59997558594
1557.02892869132	1159.19995117188
1557.65400536744	1154
1558.27900049866	1159
1558.90391409247	1160.59997558594
1559.52874615633	1158.59997558594
1560.15349669773	1161.19995117188
1560.77816572414	1157.19995117188
1561.40275324305	1160.80004882813
1562.02725926192	1168
1562.65168378824	1166
1563.27602682948	1165
1563.90028839311	1159
1564.52446848662	1165.80004882813
1565.14856711748	1156.19995117188
1565.77258429316	1163.80004882813
1566.39652002113	1160.19995117188
1567.02037430887	1164.59997558594
1567.64414716387	1165.59997558594
1568.26783859357	1171.19995117188
1568.89144860547	1173
1569.51497720703	1168.59997558594
1570.13842440573	1168.59997558594
1570.76179020904	1173
1571.38507462442	1166.59997558594
1572.00827765936	1170.40002441406
1572.63139932132	1173.40002441406
1573.25443961777	1168
1573.87739855618	1165.40002441406
1574.50027614402	1155.59997558594
1575.12307238877	1160.80004882813
1575.74578729789	1168
1576.36842087885	1155
1576.99097313912	1152.80004882813
1577.61344408616	1156.80004882813
1578.23583372745	1160.40002441406
1578.85814207046	1163.40002441406
1579.48036912264	1166
1580.10251489147	1163.40002441406
1580.72457938441	1173.40002441406
1581.34656260893	1155.59997558594
1581.9684645725	1153
1582.59028528258	1156.80004882813
1583.21202474663	1158.19995117188
1583.83368297212	1152
1584.45525996652	1163.19995117188
1585.07675573728	1152.59997558594
1585.69817029188	1152
1586.31950363778	1151.80004882813
1586.94075578243	1138.40002441406
1587.5619267333	1139
1588.18301649786	1137.59997558594
1588.80402508357	1135.19995117188
1589.42495249788	1139.59997558594
1590.04579874826	1132.40002441406
1590.66656384217	1127.19995117188
1591.28724778707	1135
1591.90785059042	1134.59997558594
1592.52837225968	1133.80004882813
1593.14881280232	1124.80004882813
1593.76917222578	1134
1594.38945053753	1137.40002441406
1595.00964774502	1137.40002441406
1595.62976385573	1141.19995117188
1596.24979887709	1143.40002441406
1596.86975281657	1148.40002441406
1597.48962568164	1146.40002441406
1598.10941747974	1139.19995117188
1598.72912821832	1131.59997558594
1599.34875790486	1123.59997558594
1599.9683065468	1125.80004882813
1600.58777415159	1116.19995117188
1601.2071607267	1123.80004882813
1601.82646627958	1129.59997558594
1602.44569081769	1133
1603.06483434846	1136
1603.68389687937	1130.19995117188
1604.30287841786	1132
1604.92177897139	1126.19995117188
1605.54059854741	1124
1606.15933715337	1128.19995117188
1606.77799479672	1128.40002441406
1607.39657148492	1136
1608.01506722542	1130.80004882813
1608.63348202566	1135.40002441406
1609.2518158931	1132.59997558594
1609.87006883519	1137.19995117188
1610.48824085939	1129.80004882813
1611.10633197312	1130
1611.72434218386	1124
1612.34227149904	1121.19995117188
1612.96011992612	1128.19995117188
1613.57788747254	1120.59997558594
1614.19557414575	1127.59997558594
1614.8131799532	1123
1615.43070490234	1127.19995117188
1616.04814900061	1127
1616.66551225545	1145.80004882813
1617.28279467433	1132.19995117188
1617.89999626467	1130.59997558594
1618.51711703393	1128.59997558594
1619.13415698955	1133.40002441406
1619.75111613898	1134.59997558594
1620.36799448966	1129.59997558594
1620.98479204903	1132
1621.60150882455	1136
1622.21814482364	1148
1622.83470005376	1147.80004882813
1623.45117452235	1141.40002441406
1624.06756823685	1144
1624.6838812047	1135
1625.30011343335	1143.80004882813
1625.91626493022	1134.59997558594
1626.53233570278	1142.19995117188
1627.14832575845	1141
1627.76423510468	1144.80004882813
1628.38006374891	1139.80004882813
1628.99581169857	1132.80004882813
1629.61147896111	1125.80004882813
1630.22706554397	1133.19995117188
1630.84257145457	1125.19995117188
1631.45799670038	1122
1632.07334128881	1122.80004882813
1632.6886052273	1115.40002441406
1633.3037885233	1120.80004882813
1633.91889118425	1112
1634.53391321757	1111.80004882813
1635.1488546307	1108.19995117188
1635.76371543108	1099.59997558594
1636.37849562616	1097.19995117188
1636.99319522335	1108.19995117188
1637.60781423009	1118.59997558594
1638.22235265383	1111.40002441406
1638.83681050198	1121.80004882813
1639.451187782	1123.59997558594
1640.0654845013	1121.80004882813
1640.67970066734	1119.59997558594
1641.29383628752	1124.19995117188
1641.9078913693	1119.40002441406
1642.5218659201	1117.19995117188
1643.13575994735	1129.40002441406
1643.74957345849	1126
1644.36330646094	1125.80004882813
1644.97695896213	1129.80004882813
1645.59053096951	1136.40002441406
1646.20402249049	1136.19995117188
1646.8174335325	1139.19995117188
1647.43076410298	1138.19995117188
1648.04401420935	1139.80004882813
1648.65718385905	1142.80004882813
1649.2702730595	1137.80004882813
1649.88328181812	1143.19995117188
1650.49621014236	1148.19995117188
1651.10905803963	1142.19995117188
1651.72182551735	1143
1652.33451258297	1145.80004882813
1652.9471192439	1137.59997558594
1653.55964550757	1134.40002441406
1654.1720913814	1129.40002441406
1654.78445687283	1126.59997558594
1655.39674198926	1129.19995117188
1656.00894673814	1121.59997558594
1656.62107112688	1109.59997558594
1657.23311516291	1109.19995117188
1657.84507885365	1105.59997558594
1658.45696220652	1100
1659.06876522895	1095.19995117188
1659.68048792835	1096.59997558594
1660.29213031217	1100.40002441406
1660.90369238779	1104.40002441406
1661.51517416267	1110.80004882813
1662.12657564421	1105.40002441406
1662.73789683984	1099
1663.34913775697	1095.59997558594
1663.96029840303	1094.40002441406
1664.57137878544	1090
1665.18237891161	1086.80004882813
1665.79329878897	1089.40002441406
1666.40413842493	1084
1667.01489782691	1086.59997558594
1667.62557700233	1091.40002441406
1668.2361759586	1088.19995117188
1668.84669470315	1082
1669.4571332434	1078.59997558594
1670.06749158675	1073.80004882813
1670.67776974062	1080.19995117188
1671.28796771243	1081.40002441406
1671.8980855096	1077.80004882813
1672.50812313954	1085.80004882813
1673.11808060967	1086
1673.72795792739	1090.59997558594
1674.33775510013	1086.40002441406
1674.9474721353	1083.80004882813
1675.55710904031	1073.59997558594
1676.16666582257	1070.59997558594
1676.7761424895	1064.40002441406
1677.38553904851	1067.80004882813
1677.99485550702	1056.19995117188
1678.60409187243	1055
1679.21324815215	1062.80004882813
1679.8223243536	1060.59997558594
1680.43132048419	1066.59997558594
1681.04023655132	1066.19995117188
1681.64907256241	1069.80004882813
1682.25782852487	1058.40002441406
1682.86650444611	1060.40002441406
1683.47510033353	1056.80004882813
1684.08361619455	1048
1684.69205203657	1051.19995117188
1685.300407867	1044.59997558594
1685.90868369325	1046.19995117188
1686.51687952272	1046.59997558594
1687.12499536283	1046
1687.73303122098	1060.80004882813
1688.34098710457	1058.19995117188
1688.94886302101	1053.40002441406
1689.55665897772	1056.80004882813
1690.16437498208	1061.59997558594
1690.77201104152	1064
1691.37956716342	1058.59997558594
1691.9870433552	1057.59997558594
1692.59443962426	1058.19995117188
1693.20175597801	1064.59997558594
1693.80899242384	1060.40002441406
1694.41614896916	1066.59997558594
1695.02322562138	1053.19995117188
1695.63022238789	1054.19995117188
1696.23713927609	1060.40002441406
1696.8439762934	1050.80004882813
1697.4507334472	1055.19995117188
1698.05741074491	1052.80004882813
1698.66400819391	1053.19995117188
1699.27052580161	1063
1699.87696357542	1063.80004882813
1700.48332152272	1066.19995117188
1701.08959965092	1061.80004882813
1701.69579796742	1063.80004882813
1702.30191647962	1058
1702.90795519491	1047.19995117188
1703.51391412069	1045.80004882813
1704.11979326437	1048.80004882813
1704.72559263332	1044.80004882813
1705.33131223496	1041.80004882813
1705.93695207668	1049.40002441406
1706.54251216588	1049
1707.14799250994	1041.59997558594
1707.75339311628	1049.80004882813
1708.35871399227	1038
1708.96395514532	1047.40002441406
1709.56911658282	1042.59997558594
