634.948122577771	1218.80004882813
635.690341530823	1229.80004882813
636.43246851086	1221.19995117188
637.174503525845	1220.40002441406
637.916446583745	1224.40002441406
638.658297692538	1225.40002441406
639.400056860179	1221.80004882813
640.141724094637	1218.80004882813
640.883299403885	1212.40002441406
641.62478279588	1226.19995117188
642.366174278594	1224.59997558594
643.107473859989	1224
643.848681548029	1217.40002441406
644.589797350679	1217.59997558594
645.330821275901	1224
646.071753331665	1229.59997558594
646.812593525922	1225.19995117188
647.553341866646	1216.40002441406
648.293998361798	1210.19995117188
649.03456301933	1207.19995117188
649.775035847216	1198.80004882813
650.515416853409	1209
651.255706045874	1203
651.995903432568	1208.59997558594
652.736009021453	1213.59997558594
653.476022820486	1208.19995117188
654.215944837629	1219.19995117188
654.955775080842	1221.59997558594
655.695513558081	1222.40002441406
656.435160277301	1227.80004882813
657.174715246465	1217.40002441406
657.914178473527	1216
658.653549966449	1230.80004882813
659.392829733176	1241.59997558594
660.132017781678	1228.59997558594
660.871114119901	1236.40002441406
661.610118755803	1232.40002441406
662.349031697343	1235
663.087852952468	1224.80004882813
663.826582529139	1233.80004882813
664.565220435305	1231.59997558594
665.30376667892	1232.40002441406
666.04222126794	1232.19995117188
666.780584210316	1230
667.518855514	1240.59997558594
668.25703518694	1229.59997558594
668.995123237096	1226.19995117188
669.733119672413	1226.40002441406
670.471024500842	1236
671.208837730333	1234.40002441406
671.946559368839	1241.80004882813
672.684189424308	1237
673.421727904689	1225.19995117188
674.159174817929	1234.19995117188
674.896530171977	1221.19995117188
675.633793974786	1228.59997558594
676.370966234295	1235.59997558594
677.108046958461	1231.80004882813
677.845036155219	1233
678.581933832528	1232.80004882813
679.318739998323	1249
680.055454660558	1241.59997558594
680.792077827172	1240.19995117188
681.528609506116	1236
682.265049705331	1242
683.001398432759	1242
683.737655696349	1237.40002441406
684.47382150404	1232
685.20989586378	1229.80004882813
685.945878783503	1232.59997558594
686.68177027116	1240
687.417570334688	1243.40002441406
688.153278982032	1244
688.888896221129	1245.80004882813
689.624422059921	1241.80004882813
690.359856506349	1231.40002441406
691.095199568354	1232.19995117188
691.830451253874	1234.80004882813
692.565611570844	1233.80004882813
693.300680527212	1235.40002441406
694.03565813091	1231
694.770544389877	1233.59997558594
695.505339312053	1237.40002441406
696.240042905372	1232.59997558594
696.974655177772	1238.19995117188
697.70917613719	1241.40002441406
698.443605791561	1229.59997558594
699.177944148826	1231
699.912191216909	1230
700.646347003755	1235.59997558594
701.380411517295	1235
702.114384765465	1230.40002441406
702.848266756195	1243.19995117188
703.582057497421	1248.80004882813
704.315756997074	1248.40002441406
705.049365263089	1251.40002441406
705.782882303399	1252.80004882813
706.516308125936	1248.40002441406
707.249642738626	1252.80004882813
707.982886149403	1243.59997558594
708.716038366204	1239.19995117188
709.449099396949	1235
710.182069249577	1240.59997558594
710.914947932009	1227.19995117188
711.647735452181	1235.40002441406
712.380431818022	1241.19995117188
713.113037037454	1250.80004882813
713.845551118411	1240.59997558594
714.577974068818	1268.40002441406
715.310305896604	1259.80004882813
716.042546609694	1254.59997558594
716.774696216013	1245.40002441406
717.506754723493	1239.80004882813
718.238722140053	1248.80004882813
718.970598473624	1236.80004882813
719.702383732127	1241.80004882813
720.43407792349	1243.80004882813
721.165681055634	1249
721.897193136486	1242
722.628614173966	1250
723.359944175997	1248.40002441406
724.091183150505	1240.80004882813
724.822331105412	1241.80004882813
725.553388048638	1248.40002441406
726.284353988106	1249
727.015228931734	1260.59997558594
727.746012887449	1263
728.476705863162	1265
729.207307866803	1249.19995117188
729.937818906289	1258.19995117188
730.668238989535	1253.59997558594
731.398568124459	1251.59997558594
732.128806318986	1236.59997558594
732.858953581034	1244.40002441406
733.589009918514	1241
734.318975339348	1247.40002441406
735.048849851452	1244.19995117188
735.778633462744	1242.40002441406
736.508326181137	1246.80004882813
737.237928014549	1254.80004882813
737.967438970897	1256.59997558594
738.696859058095	1258.19995117188
739.426188284054	1255.59997558594
740.155426656692	1257.19995117188
740.884574183922	1239.59997558594
741.613630873659	1233.40002441406
742.342596733815	1232.59997558594
743.071471772302	1237
743.800255997034	1246.40002441406
744.528949415921	1235.80004882813
745.257552036877	1248.40002441406
745.986063867811	1264
746.714484916638	1255.80004882813
747.442815191261	1257
748.171054699597	1252.80004882813
748.899203449554	1246.40002441406
749.627261449039	1267.19995117188
750.355228705966	1234.19995117188
751.083105228239	1249.19995117188
751.810891023765	1243
752.538586100459	1248
753.266190466218	1260.59997558594
753.99370412896	1247.59997558594
754.721127096582	1244.19995117188
755.448459377	1246
756.175700978114	1248.19995117188
756.902851907828	1246.40002441406
757.629912174055	1243
758.356881784688	1252.19995117188
759.083760747639	1250.19995117188
759.810549070817	1246
760.537246762113	1253.40002441406
761.263853829442	1254.59997558594
761.990370280698	1259.59997558594
762.716796123791	1252.80004882813
763.443131366618	1246.40002441406
764.169376017082	1258.40002441406
764.895530083085	1254.40002441406
765.621593572527	1263.80004882813
766.347566493312	1270.40002441406
767.073448853336	1271.40002441406
767.799240660502	1278.40002441406
768.524941922707	1277.19995117188
769.250552647854	1282.40002441406
769.976072843836	1291.59997558594
770.701502518551	1295.19995117188
771.426841679905	1300
772.152090335793	1314.19995117188
772.877248494107	1315.80004882813
773.602316162747	1303.59997558594
774.327293349609	1303.40002441406
775.052180062592	1304.59997558594
775.776976309589	1315.59997558594
776.501682098496	1322.19995117188
777.226297437206	1318
777.950822333616	1315.59997558594
778.675256795621	1312.59997558594
779.399600831111	1307.19995117188
780.123854447983	1298
780.84801765413	1288
781.572090457441	1283
782.296072865811	1274.59997558594
783.019964887131	1267.80004882813
783.743766529297	1271.40002441406
784.467477800194	1269.19995117188
785.191098707719	1266
785.914629259756	1262.19995117188
786.638069464194	1260
787.361419328932	1245.19995117188
788.084678861852	1254.80004882813
788.807848070845	1247.40002441406
789.530926963798	1248
790.253915548602	1260.40002441406
790.976813833144	1269.19995117188
791.699621825307	1268
792.422339532986	1279.59997558594
793.144966964061	1272
793.86750412642	1254.80004882813
794.589951027946	1241.40002441406
795.312307676536	1248.40002441406
796.03457408006	1237.80004882813
796.756750246417	1248.80004882813
797.478836183477	1246.40002441406
798.200831899137	1239.40002441406
798.92273740127	1238.19995117188
799.644552697769	1237
800.36627779651	1238
801.087912705374	1238.19995117188
801.809457432251	1238.80004882813
802.530911985017	1238
803.252276371558	1231
803.973550599748	1240.59997558594
804.694734677472	1252
805.415828612611	1254.19995117188
806.136832413045	1255.80004882813
806.857746086646	1255.80004882813
807.578569641305	1262.59997558594
808.299303084892	1248.59997558594
809.019946425289	1247.80004882813
809.740499670372	1248.40002441406
810.460962828022	1257.80004882813
811.181335906114	1245.80004882813
811.901618912524	1250.59997558594
812.621811855131	1249.80004882813
813.341914741809	1255.19995117188
814.061927580433	1252.19995117188
814.781850378881	1261.40002441406
815.501683145025	1260.80004882813
816.221425886743	1245.80004882813
816.941078611903	1238.19995117188
817.660641328387	1244
818.380114044065	1235.19995117188
819.099496766808	1242.59997558594
819.818789504492	1241.59997558594
820.53799226499	1250.19995117188
821.257105056168	1246
821.976127885904	1262.40002441406
822.695060762064	1261
823.413903692525	1259
824.132656685151	1260.80004882813
824.851319747817	1242.40002441406
825.569892888388	1235
826.288376114739	1230.59997558594
827.006769434737	1222
827.725072856249	1219
828.443286387142	1229
829.161410035285	1229.19995117188
829.87944380855	1234.40002441406
830.597387714798	1231.80004882813
831.315241761898	1249.80004882813
832.033005957715	1253.80004882813
832.750680310119	1247.19995117188
833.468264826969	1248.59997558594
834.18575951614	1262.19995117188
834.903164385486	1258.80004882813
835.620479442878	1243
836.337704696181	1239
837.054840153255	1245.59997558594
837.771885821962	1231
838.488841710172	1234.59997558594
839.20570782574	1232.80004882813
839.922484176531	1244
840.639170770409	1233.19995117188
841.355767615231	1232.80004882813
842.072274718864	1238.19995117188
842.788692089164	1228
843.505019733993	1232.59997558594
844.221257661209	1228.40002441406
844.937405878676	1230.59997558594
845.65346439425	1232.40002441406
846.369433215789	1226.19995117188
847.085312351156	1238.59997558594
847.801101808205	1235.80004882813
848.516801594793	1241.80004882813
849.232411718781	1246
849.947932188021	1254.59997558594
850.663363010376	1251.40002441406
851.378704193698	1256.59997558594
852.093955745842	1249.59997558594
852.809117674669	1248.40002441406
853.524189988028	1240.80004882813
854.239172693778	1240.80004882813
854.954065799768	1249
855.668869313857	1247.80004882813
856.383583243899	1242.19995117188
857.098207597743	1238
857.812742383246	1224.40002441406
858.527187608255	1237.59997558594
859.241543280628	1246.19995117188
859.955809408218	1255
860.669985998868	1256.80004882813
861.384073060437	1260.40002441406
862.098070600772	1248.59997558594
862.811978627724	1248.19995117188
863.52579714914	1235
864.239526172873	1236.80004882813
864.953165706776	1224
865.666715758687	1219.40002441406
866.380176336464	1235.59997558594
867.093547447951	1241.59997558594
867.806829100996	1238.80004882813
868.520021303444	1240.59997558594
869.233124063149	1236.59997558594
869.94613738795	1229.19995117188
870.659061285693	1230
871.37189576423	1223
872.084640831403	1232.19995117188
872.797296495057	1229.40002441406
873.509862763039	1222.59997558594
874.22233964319	1226
874.934727143353	1228.80004882813
875.647025271374	1235.80004882813
876.359234035097	1244.19995117188
877.071353442361	1267.40002441406
877.783383501015	1257
878.495324218895	1257.80004882813
879.207175603844	1254.80004882813
879.918937663705	1258
880.630610406318	1247.40002441406
881.342193839524	1237.80004882813
882.053687971161	1237.19995117188
882.765092809069	1233.59997558594
883.476408361091	1237.59997558594
884.187634635066	1231.80004882813
884.898771638828	1240.59997558594
885.609819380221	1243.59997558594
886.320777867076	1243.59997558594
887.031647107236	1240.80004882813
887.742427108536	1240.19995117188
888.453117878816	1239.19995117188
889.16371942591	1242.59997558594
889.874231757652	1243
890.584654881883	1249
891.294988806434	1251.80004882813
892.005233539141	1251.80004882813
892.715389087837	1257
893.42545546036	1246.40002441406
894.135432664543	1246.40002441406
894.845320708216	1256.40002441406
895.555119599216	1243
896.264829345375	1248
896.974449954526	1243.19995117188
897.683981434496	1240.19995117188
898.393423793125	1247.80004882813
899.102777038235	1242.40002441406
899.812041177664	1247.59997558594
900.521216219239	1246.80004882813
901.230302170793	1241
901.939299040155	1243.59997558594
902.64820683515	1242.19995117188
903.357025563612	1227.19995117188
904.065755233368	1238.19995117188
904.774395852247	1232
905.482947428076	1223
906.191409968682	1224.19995117188
906.899783481897	1245
907.608067975538	1253.80004882813
908.316263457443	1259.40002441406
909.02436993543	1253.80004882813
909.732387417327	1256.19995117188
910.440315910959	1254.19995117188
911.148155424154	1246.80004882813
911.855905964731	1242.80004882813
912.563567540521	1239.80004882813
913.271140159339	1245.59997558594
913.978623829017	1240
914.686018557374	1235.59997558594
915.393324352237	1246.19995117188
916.100541221421	1242.59997558594
916.807669172752	1250.80004882813
917.514708214054	1246.80004882813
918.221658353142	1246.40002441406
918.928519597843	1249
919.635291955976	1252.59997558594
920.341975435358	1257.59997558594
921.048570043813	1245
921.75507578916	1252.40002441406
922.461492679212	1241
923.167820721795	1251
923.874059924726	1251.19995117188
924.58021029582	1245
925.286271842893	1250.19995117188
925.992244573769	1244.19995117188
926.698128496262	1239.19995117188
927.403923618184	1232
928.109629947355	1237.80004882813
928.815247491593	1242.80004882813
929.520776258708	1243.40002441406
930.226216256519	1250.40002441406
930.931567492841	1238.40002441406
931.636829975482	1229.59997558594
932.342003712263	1225
933.047088710995	1229.19995117188
933.752084979491	1229.40002441406
934.456992525564	1243
935.161811357024	1230.80004882813
935.866541481688	1237
936.571182907363	1237
937.275735641861	1236.19995117188
937.980199692995	1239
938.684575068572	1239.59997558594
939.388861776411	1238.40002441406
940.093059824311	1239.59997558594
940.797169220085	1230
941.501189971544	1229.80004882813
942.205122086495	1238
942.908965572751	1231
943.612720438111	1226.40002441406
944.316386690391	1233.80004882813
945.019964337391	1234.59997558594
945.723453386924	1231.59997558594
946.426853846795	1238.19995117188
947.130165724808	1240.40002441406
947.83338902877	1229.80004882813
948.536523766488	1231
949.239569945764	1234.19995117188
949.942527574402	1236.40002441406
950.64539666021	1234
951.348177210993	1239.40002441406
952.050869234548	1236.59997558594
952.753472738683	1213.19995117188
953.455987731199	1218.59997558594
954.158414219898	1207.40002441406
954.860752212587	1216.80004882813
955.563001717061	1221
956.265162741124	1229.19995117188
956.967235292576	1225
957.669219379224	1219.59997558594
958.371115008857	1229.80004882813
959.072922189283	1225.80004882813
959.774640928301	1226.59997558594
960.476271233708	1223
961.177813113301	1224.19995117188
961.879266574882	1219.40002441406
962.580631626248	1211.80004882813
963.281908275194	1218
963.98309652952	1217.19995117188
964.684196397022	1220
965.3852078855	1215
966.086131002745	1219.19995117188
966.786965756555	1218.19995117188
967.487712154726	1213
968.188370205055	1213
968.888939915331	1208.19995117188
969.589421293352	1221.59997558594
970.289814346909	1222.19995117188
970.990119083801	1217.19995117188
971.690335511819	1218.40002441406
972.39046363875	1225.19995117188
973.090503472398	1219.40002441406
973.790455020545	1233.19995117188
974.490318290987	1230.19995117188
975.190093291516	1225.59997558594
975.889780029923	1229.40002441406
976.589378513998	1220.59997558594
977.288888751527	1223.59997558594
977.988310750308	1218.59997558594
978.687644518122	1219.19995117188
979.386890062767	1216.40002441406
980.086047392025	1210.59997558594
980.785116513689	1206.40002441406
981.484097435542	1203.19995117188
982.182990165377	1208.19995117188
982.88179471098	1213.80004882813
983.580511080137	1213.59997558594
984.279139280632	1216.59997558594
984.977679320253	1217.19995117188
985.67613120679	1219.59997558594
986.374494948027	1217.19995117188
987.072770551745	1216.80004882813
987.770958025731	1224
988.469057377772	1228.80004882813
989.167068615649	1229
989.864991747145	1216.80004882813
990.562826780047	1213.59997558594
991.260573722134	1214
991.958232581195	1214
992.655803365003	1209.59997558594
993.353286081346	1222
994.050680738006	1222.19995117188
994.74798734276	1226.80004882813
995.44520590339	1217.59997558594
996.142336427681	1218
996.839378923407	1218.40002441406
997.536333398348	1224.19995117188
998.233199860289	1221.40002441406
998.929978317004	1226
999.626668776274	1209.19995117188
1000.32327124587	1209.80004882813
1001.01978573359	1200
1001.71621224718	1206.59997558594
1002.41255079445	1206.19995117188
1003.10880138315	1202.19995117188
1003.80496402107	1199
1004.50103871599	1203.59997558594
1005.19702547567	1211
1005.8929243079	1211.40002441406
1006.58873522045	1218.40002441406
1007.2844582211	1211.40002441406
1007.98009331761	1218.19995117188
1008.67564051776	1222.59997558594
1009.37109982933	1220.80004882813
1010.06647126009	1226.80004882813
1010.7617548178	1234.19995117188
1011.45695051026	1229.80004882813
1012.15205834522	1231.19995117188
1012.84707833045	1230.80004882813
1013.54201047373	1228.59997558594
1014.23685478284	1229.59997558594
1014.93161126553	1228.19995117188
1015.62627992959	1226.40002441406
1016.32086078277	1219.40002441406
1017.01535383285	1219.59997558594
1017.70975908761	1222.80004882813
1018.40407655479	1226.19995117188
1019.09830624219	1220.19995117188
1019.79244815755	1223.19995117188
1020.48650230866	1216.59997558594
1021.18046870328	1223.59997558594
1021.87434734917	1228.40002441406
1022.56813825411	1214.59997558594
1023.26184142584	1208.40002441406
1023.95545687216	1216.40002441406
1024.64898460082	1216.80004882813
1025.34242461957	1214.80004882813
1026.0357769362	1217.19995117188
1026.72904155846	1213
1027.42221849412	1222.59997558594
1028.11530775094	1216.19995117188
1028.80830933668	1223
1029.50122325911	1216.40002441406
1030.19404952599	1211
1030.88678814508	1210.19995117188
1031.57943912414	1209.40002441406
1032.27200247093	1199.59997558594
1032.96447819323	1212
1033.65686629878	1222.40002441406
1034.34916679534	1217.40002441406
1035.04137969068	1221.80004882813
1035.73350499256	1217.19995117188
1036.42554270874	1221.80004882813
1037.11749284697	1212.59997558594
1037.80935541501	1212.80004882813
1038.50113042062	1204.59997558594
1039.19281787156	1207.59997558594
1039.88441777559	1203.40002441406
1040.57593014046	1200.80004882813
1041.26735497393	1191.80004882813
1041.95869228376	1201.19995117188
1042.6499420777	1201
1043.3411043635	1201.40002441406
1044.03217914893	1201.40002441406
1044.72316644174	1209.40002441406
1045.41406624968	1199.80004882813
1046.1048785805	1206.59997558594
1046.79560344197	1210.40002441406
1047.48624084182	1215
1048.17679078783	1204.80004882813
1048.86725328774	1209.80004882813
1049.55762834929	1208.40002441406
1050.24791598025	1201.40002441406
1050.93811618837	1197.80004882813
1051.62822898139	1195.19995117188
1052.31825436707	1199.59997558594
1053.00819235315	1196.80004882813
1053.6980429474	1192
1054.38780615755	1211.40002441406
1055.07748199136	1202.19995117188
1055.76707045658	1203.40002441406
1056.45657156095	1195.19995117188
1057.14598531222	1199.80004882813
1057.83531171814	1202.19995117188
1058.52455078646	1198.80004882813
1059.21370252494	1204.19995117188
1059.90276694129	1198
1060.5917440433	1213.40002441406
1061.28063383868	1216.40002441406
1061.9694363352	1222
1062.65815154059	1213.19995117188
1063.34677946261	1208
1064.03532010899	1207.59997558594
1064.72377348748	1203.19995117188
1065.41213960583	1201
1066.10041847177	1201.59997558594
1066.78861009306	1194.40002441406
1067.47671447743	1196.59997558594
1068.16473163263	1196.59997558594
1068.85266156639	1199
1069.54050428647	1202.59997558594
1070.2282598006	1211.59997558594
1070.91592811652	1202.19995117188
1071.60350924198	1208.59997558594
1072.29100318471	1210.80004882813
1072.97840995245	1205.19995117188
1073.66572955295	1197.19995117188
1074.35296199394	1204.40002441406
1075.04010728316	1195.59997558594
1075.72716542836	1201.19995117188
1076.41413643726	1190.19995117188
1077.10102031761	1185
1077.78781707715	1175.40002441406
1078.4745267236	1181
1079.16114926471	1189.80004882813
1079.84768470822	1193.40002441406
1080.53413306185	1193.80004882813
1081.22049433336	1187.40002441406
1081.90676853046	1189
1082.5929556609	1205.19995117188
1083.27905573241	1216
1083.96506875272	1208.40002441406
1084.65099472957	1205.80004882813
1085.3368336707	1215.19995117188
1086.02258558383	1222.40002441406
1086.70825047669	1203.40002441406
1087.39382835703	1199
1088.07931923257	1187
1088.76472311104	1190
1089.45004000018	1198
1090.13526990771	1208.59997558594
1090.82041284137	1202.19995117188
1091.50546880889	1202.19995117188
1092.19043781799	1208.19995117188
1092.87531987642	1209.80004882813
1093.56011499188	1206.80004882813
1094.24482317212	1198.59997558594
1094.92944442486	1182
1095.61397875783	1190.59997558594
1096.29842617876	1185.59997558594
1096.98278669537	1194.80004882813
1097.6670603154	1188.80004882813
1098.35124704656	1185.40002441406
1099.03534689659	1188.19995117188
1099.71935987322	1184
1100.40328598416	1192.40002441406
1101.08712523713	1192.19995117188
1101.77087763988	1208.59997558594
1102.45454320012	1198.80004882813
1103.13812192557	1205.19995117188
1103.82161382396	1197
1104.50501890301	1199
1105.18833717045	1189.80004882813
1105.87156863399	1200.40002441406
1106.55471330137	1202.80004882813
1107.2377711803	1195.40002441406
1107.9207422785	1189.40002441406
1108.60362660369	1199
1109.2864241636	1213.19995117188
1109.96913496594	1199.19995117188
1110.65175901844	1211.19995117188
1111.33429632882	1205
1112.01674690479	1199
1112.69911075408	1194.19995117188
1113.38138788439	1193.19995117188
1114.06357830346	1189.59997558594
1114.745682019	1185.80004882813
1115.42769903872	1190.19995117188
1116.10962937035	1202.59997558594
1116.7914730216	1206.19995117188
1117.47323000018	1205.40002441406
1118.15490031382	1198.80004882813
1118.83648397022	1204.40002441406
1119.51798097712	1202.19995117188
1120.1993913422	1195.40002441406
1120.88071507321	1198
1121.56195217784	1205.80004882813
1122.24310266381	1211.80004882813
1122.92416653884	1205.19995117188
1123.60514381064	1201.80004882813
1124.28603448692	1193
1124.9668385754	1195.59997558594
1125.64755608378	1189.59997558594
1126.32818701978	1194.40002441406
1127.00873139111	1194.40002441406
1127.68918920548	1203
1128.3695604706	1195.19995117188
1129.04984519419	1183.40002441406
1129.73004338394	1202
1130.41015504758	1202.80004882813
1131.09018019281	1202.59997558594
1131.77011882734	1204.59997558594
1132.44997095888	1198
1133.12973659514	1196.59997558594
1133.80941574381	1204.80004882813
1134.48900841263	1205
1135.16851460927	1189.80004882813
1135.84793434147	1186.59997558594
1136.52726761692	1193.80004882813
1137.20651444333	1193
1137.8856748284	1194.19995117188
1138.56474877984	1189.40002441406
1139.24373630536	1178.40002441406
1139.92263741265	1202
1140.60145210943	1194
1141.28018040339	1198.19995117188
1141.95882230225	1190.80004882813
1142.6373778137	1194.40002441406
1143.31584694545	1201.59997558594
1143.99422970519	1189.19995117188
1144.67252610064	1189.59997558594
1145.35073613949	1200.59997558594
1146.02885982944	1190.40002441406
1146.7068971782	1186.19995117188
1147.38484819347	1177.19995117188
1148.06271288294	1185.80004882813
1148.74049125432	1198.59997558594
1149.41818331531	1176.40002441406
1150.0957890736	1175.59997558594
1150.77330853689	1183.80004882813
1151.45074171289	1182.59997558594
1152.12808860928	1184.40002441406
1152.80534923378	1181.19995117188
1153.48252359407	1178.19995117188
1154.15961169786	1170.40002441406
1154.83661355283	1183.19995117188
1155.51352916669	1183.19995117188
1156.19035854713	1184
1156.86710170185	1181.40002441406
1157.54375863855	1182.40002441406
1158.22032936491	1182.80004882813
1158.89681388863	1185.19995117188
1159.57321221741	1171.59997558594
1160.24952435894	1185.80004882813
1160.92575032092	1179.59997558594
1161.60189011103	1192.40002441406
1162.27794373697	1182.40002441406
1162.95391120644	1182.59997558594
1163.62979252712	1189.59997558594
1164.3055877067	1178.19995117188
1164.98129675288	1196.19995117188
1165.65691967336	1195
1166.33245647581	1201.80004882813
1167.00790716792	1190.40002441406
1167.6832717574	1191.40002441406
1168.35855025193	1189.59997558594
1169.0337426592	1200.40002441406
1169.70884898689	1195.40002441406
1170.3838692427	1193.80004882813
1171.05880343431	1190.40002441406
1171.73365156941	1186.40002441406
1172.40841365569	1187.59997558594
1173.08308970083	1190.59997558594
1173.75767971253	1196.40002441406
1174.43218369847	1186.40002441406
1175.10660166633	1206.59997558594
1175.7809336238	1200.19995117188
1176.45517957857	1201.40002441406
1177.12933953832	1204
1177.80341351073	1202.19995117188
1178.47740150349	1215.19995117188
1179.15130352429	1208.59997558594
1179.8251195808	1201.40002441406
1180.49884968071	1207.40002441406
1181.1724938317	1197.19995117188
1181.84605204145	1193
1182.51952431766	1207.19995117188
1183.19291066799	1193.19995117188
1183.86621110013	1197.80004882813
1184.53942562176	1196.80004882813
1185.21255424057	1194
1185.88559696422	1197.19995117188
1186.55855380041	1206.19995117188
1187.2314247568	1209.40002441406
1187.90420984109	1217.59997558594
1188.57690906095	1209.80004882813
1189.24952242405	1211
1189.92204993808	1202.59997558594
1190.59449161071	1205.59997558594
1191.26684744962	1203
1191.93911746249	1198
1192.61130165699	1197
1193.28340004081	1188.80004882813
1193.95541262161	1193.19995117188
1194.62733940707	1191.59997558594
1195.29918040487	1191.40002441406
1195.97093562269	1193
1196.64260506819	1190.19995117188
1197.31418874905	1204.59997558594
1197.98568667295	1207.40002441406
1198.65709884755	1202.59997558594
1199.32842528053	1202.80004882813
1199.99966597957	1196.19995117188
1200.67082095234	1195.40002441406
1201.3418902065	1205
1202.01287374974	1195
1202.68377158971	1197.59997558594
1203.3545837341	1182.59997558594
1204.02531019057	1175.40002441406
1204.6959509668	1173
1205.36650607045	1176.80004882813
1206.03697550919	1177.80004882813
1206.70735929069	1179.80004882813
1207.37765742263	1174.40002441406
1208.04786991266	1174.80004882813
1208.71799676846	1171.59997558594
1209.38803799769	1169.40002441406
1210.05799360803	1168.19995117188
1210.72786360714	1180
1211.39764800268	1180.59997558594
1212.06734680233	1184.40002441406
1212.73696001375	1188.59997558594
1213.4064876446	1183.59997558594
1214.07592970255	1189.19995117188
1214.74528619526	1180
1215.4145571304	1176.40002441406
1216.08374251564	1172.59997558594
1216.75284235863	1179
1217.42185666704	1190
1218.09078544854	1176.59997558594
1218.75962871078	1173.19995117188
1219.42838646143	1173
1220.09705870816	1179
1220.76564545861	1172
1221.43414672046	1185.19995117188
1222.10256250136	1182.80004882813
1222.77089280898	1174
1223.43913765098	1179
1224.107297035	1180
1224.77537096873	1186.59997558594
1225.44335945981	1170.40002441406
1226.1112625159	1166.40002441406
1226.77908014467	1162.80004882813
1227.44681235376	1168.19995117188
1228.11445915085	1165.40002441406
1228.78202054357	1173.59997558594
1229.44949653961	1176.40002441406
1230.11688714659	1179.19995117188
1230.7841923722	1177
1231.45141222407	1175.19995117188
1232.11854670988	1183.19995117188
1232.78559583726	1171.40002441406
1233.45255961388	1183.59997558594
1234.1194380474	1175
1234.78623114546	1175
1235.45293891572	1175.19995117188
1236.11956136583	1183.40002441406
1236.78609850345	1183
1237.45255033623	1181
1238.11891687182	1178.19995117188
1238.78519811788	1169
1239.45139408205	1164.40002441406
1240.11750477198	1163.40002441406
1240.78353019534	1167.19995117188
1241.44947035976	1168.59997558594
1242.11532527291	1165
1242.78109494242	1177.19995117188
1243.44677937595	1170.59997558594
1244.11237858115	1174.40002441406
1244.77789256567	1167.19995117188
1245.44332133715	1175
1246.10866490325	1164.59997558594
1246.7739232716	1181
1247.43909644987	1171.40002441406
1248.10418444569	1169.80004882813
1248.76918726671	1170.19995117188
1249.43410492059	1163.59997558594
1250.09893741496	1171.40002441406
1250.76368475747	1163.59997558594
1251.42834695576	1168.59997558594
1252.09292401749	1168.59997558594
1252.75741595029	1165.59997558594
1253.42182276182	1166.59997558594
1254.08614445971	1159.80004882813
1254.75038105161	1165.59997558594
1255.41453254515	1177.59997558594
1256.07859894799	1173
1256.74258026777	1171.80004882813
1257.40647651213	1173
1258.0702876887	1162.40002441406
1258.73401380514	1168.59997558594
1259.39765486908	1169.19995117188
1260.06121088817	1172
1260.72468187004	1164.19995117188
1261.38806782233	1158.40002441406
1262.05136875269	1167.19995117188
1262.71458466875	1167
1263.37771557815	1154.19995117188
1264.04076148854	1169
1264.70372240753	1171.59997558594
1265.3665983428	1179.59997558594
1266.02938930195	1171.59997558594
1266.69209529263	1166.40002441406
1267.35471632249	1173.80004882813
1268.01725239914	1159.59997558594
1268.67970353024	1159.19995117188
1269.34206972342	1148.59997558594
1270.00435098631	1159.19995117188
1270.66654732655	1161
1271.32865875177	1163.59997558594
1271.9906852696	1163.80004882813
1272.65262688768	1158.80004882813
1273.31448361365	1157
1273.97625545514	1163
1274.63794241978	1160.19995117188
1275.2995445152	1158.19995117188
1275.96106174903	1155.19995117188
1276.62249412892	1157.40002441406
1277.28384166248	1152.59997558594
1277.94510435735	1164
1278.60628222116	1163
1279.26737526155	1164.80004882813
1279.92838348613	1161.80004882813
1280.58930690255	1161.40002441406
1281.25014551842	1165.59997558594
1281.91089934139	1160
1282.57156837907	1166.19995117188
1283.2321526391	1157.40002441406
1283.89265212911	1158.40002441406
1284.55306685671	1171
1285.21339682955	1160.80004882813
1285.87364205525	1163
1286.53380254142	1160.80004882813
1287.19387829571	1161.40002441406
1287.85386932573	1152.19995117188
1288.51377563911	1153.59997558594
1289.17359724348	1155.59997558594
1289.83333414646	1156.40002441406
1290.49298635567	1152.59997558594
1291.15255387874	1152.59997558594
1291.8120367233	1144.19995117188
1292.47143489696	1156.19995117188
1293.13074840736	1156.40002441406
1293.7899772621	1164
1294.44912146882	1163.40002441406
1295.10818103513	1154
1295.76715596866	1160.80004882813
1296.42604627704	1159.19995117188
1297.08485196787	1156.40002441406
1297.74357304878	1145.80004882813
1298.4022095274	1155.40002441406
1299.06076141134	1155.40002441406
1299.71922870821	1164.19995117188
1300.37761142565	1157.59997558594
1301.03590957126	1175.40002441406
1301.69412315268	1177.40002441406
1302.3522521775	1169.59997558594
1303.01029665336	1170.19995117188
1303.66825658787	1171.59997558594
1304.32613198865	1179.19995117188
1304.98392286332	1172
1305.64162921948	1166.40002441406
1306.29925106476	1173.80004882813
1306.95678840677	1171.19995117188
1307.61424125312	1177
1308.27160961145	1167.59997558594
1308.92889348934	1168
1309.58609289443	1154.80004882813
1310.24320783432	1167.19995117188
1310.90023831664	1158.19995117188
1311.55718434898	1154.59997558594
1312.21404593897	1169.19995117188
1312.87082309421	1181.80004882813
1313.52751582233	1168.40002441406
1314.18412413092	1159.19995117188
1314.84064802761	1168.80004882813
1315.49708752	1177.59997558594
1316.1534426157	1178.19995117188
1316.80971332233	1175.40002441406
1317.46589964749	1175.80004882813
1318.1220015988	1180.19995117188
1318.77801918386	1177.80004882813
1319.43395241028	1175.80004882813
1320.08980128567	1180.59997558594
1320.74556581764	1177.59997558594
1321.4012460138	1178
1322.05684188176	1176.59997558594
1322.71235342911	1187
1323.36778066347	1178.40002441406
1324.02312359245	1173.80004882813
1324.67838222365	1182.40002441406
1325.33355656468	1176.80004882813
1325.98864662314	1171.59997558594
1326.64365240663	1175.40002441406
1327.29857392277	1180.19995117188
1327.95341117915	1172.40002441406
1328.60816418339	1158.59997558594
1329.26283294308	1149.59997558594
1329.91741746582	1149.19995117188
1330.57191775923	1146.40002441406
1331.2263338309	1142.40002441406
1331.88066568843	1144.80004882813
1332.53491333943	1155.40002441406
1333.1890767915	1147.19995117188
1333.84315605224	1148.59997558594
1334.49715112925	1153.40002441406
1335.15106203013	1154.19995117188
1335.80488876249	1158.40002441406
1336.45863133391	1161.19995117188
1337.112289752	1165.59997558594
1337.76586402437	1164.80004882813
1338.4193541586	1161.59997558594
1339.0727601623	1158.80004882813
1339.72608204306	1162.40002441406
1340.37931980849	1161.59997558594
1341.03247346617	1160.19995117188
1341.68554302372	1162.40002441406
1342.33852848871	1164.80004882813
1342.99142986876	1176.19995117188
1343.64424717145	1174
1344.29698040438	1167
1344.94962957515	1174.19995117188
1345.60219469135	1170.59997558594
1346.25467576058	1168.40002441406
1346.90707279042	1172.59997558594
1347.55938578848	1170.59997558594
1348.21161476235	1164
1348.86375971962	1157.80004882813
1349.51582066787	1171
1350.16779761472	1164.40002441406
1350.81969056774	1176.80004882813
1351.47149953453	1182.40002441406
1352.12322452269	1181
1352.77486553979	1184
1353.42642259344	1178.40002441406
1354.07789569122	1183.59997558594
1354.72928484072	1179.59997558594
1355.38059004953	1177.80004882813
1356.03181132525	1186.80004882813
1356.68294867545	1177
1357.33400210773	1187.59997558594
1357.98497162968	1194.59997558594
1358.63585724889	1186
1359.28665897294	1189.19995117188
1359.93737680942	1189.19995117188
1360.58801076591	1195
1361.23856085001	1188.19995117188
1361.88902706929	1195.80004882813
1362.53940943135	1198.19995117188
1363.18970794377	1202.40002441406
1363.83992261413	1208.59997558594
1364.49005345003	1211.59997558594
1365.14010045904	1212.80004882813
1365.79006364874	1201.80004882813
1366.43994302673	1205.40002441406
1367.08973860058	1195.59997558594
1367.73945037788	1196
1368.38907836621	1186
1369.03862257315	1193.80004882813
1369.68808300629	1182.59997558594
1370.3374596732	1179.59997558594
1370.98675258148	1186.80004882813
1371.63596173868	1160.80004882813
1372.28508715241	1173.40002441406
1372.93412883024	1166.40002441406
1373.58308677974	1167.19995117188
1374.2319610085	1166.40002441406
1374.8807515241	1158.59997558594
1375.52945833412	1162.40002441406
1376.17808144612	1159.59997558594
1376.82662086771	1157.19995117188
1377.47507660644	1158
1378.12344866989	1150.19995117188
1378.77173706565	1152.80004882813
1379.41994180129	1151.19995117188
1380.06806288439	1150.19995117188
1380.71610032252	1143.59997558594
1381.36405412326	1143.19995117188
1382.01192429419	1146.40002441406
1382.65971084287	1148.59997558594
1383.30741377688	1146
1383.95503310381	1150.59997558594
1384.60256883121	1145.40002441406
1385.25002096667	1147.40002441406
1385.89738951775	1149.19995117188
1386.54467449204	1148
1387.19187589709	1136.19995117188
1387.8389937405	1135.59997558594
1388.48602802982	1150
1389.13297877262	1144.59997558594
1389.77984597649	1144
1390.42662964899	1148.40002441406
1391.07332979768	1145.80004882813
1391.71994643015	1142
1392.36647955395	1135.59997558594
1393.01292917667	1144
1393.65929530586	1142
1394.3055779491	1136.19995117188
1394.95177711395	1130
1395.59789280799	1134.19995117188
1396.24392503877	1142.40002441406
1396.88987381387	1141
1397.53573914086	1142
1398.1815210273	1150.40002441406
1398.82721948075	1140.40002441406
1399.47283450878	1149.40002441406
1400.11836611897	1153.80004882813
1400.76381431886	1138
1401.40917911603	1147
1402.05446051805	1138.80004882813
1402.69965853247	1145.59997558594
1403.34477316686	1139.80004882813
1403.98980442878	1137
1404.6347523258	1138.40002441406
1405.27961686548	1140
1405.92439805538	1144.80004882813
1406.56909590306	1131.19995117188
1407.21371041608	1130
1407.85824160202	1127.40002441406
1408.50268946841	1127.80004882813
1409.14705402284	1130.40002441406
1409.79133527285	1131
1410.43553322601	1127.19995117188
1411.07964788987	1133
1411.723679272	1137.40002441406
1412.36762737996	1131.40002441406
1413.01149222129	1131
1413.65527380357	1136
1414.29897213435	1141.59997558594
1414.94258722118	1138.59997558594
1415.58611907163	1138
1416.22956769325	1144
1416.87293309359	1150.80004882813
1417.51621528021	1146
1418.15941426067	1145.80004882813
1418.80253004253	1142
1419.44556263333	1140
1420.08851204063	1134
1420.731378272	1134
1421.37416133497	1142.80004882813
1422.0168612371	1136.40002441406
1422.65947798596	1144.40002441406
1423.30201158908	1145.80004882813
1423.94446205403	1148.40002441406
1424.58682938835	1144.19995117188
1425.2291135996	1142.40002441406
1425.87131469532	1148
1426.51343268308	1138.19995117188
1427.15546757042	1139.80004882813
1427.79741936488	1140
1428.43928807403	1132.40002441406
1429.0810737054	1139.40002441406
1429.72277626656	1137
1430.36439576504	1138
1431.00593220841	1138
1431.64738560419	1135.19995117188
1432.28875595995	1137
1432.93004328324	1138.19995117188
1433.57124758159	1128.40002441406
1434.21236886255	1121.80004882813
1434.85340713368	1120.59997558594
1435.49436240252	1119.59997558594
1436.13523467661	1120
1436.77602396349	1122.40002441406
1437.41673027073	1118.40002441406
1438.05735360585	1129.40002441406
1438.69789397641	1132
1439.33835138994	1124.59997558594
1439.978725854	1124.19995117188
1440.61901737612	1120.19995117188
1441.25922596385	1129.40002441406
1441.89935162473	1122.19995117188
1442.53939436631	1117.40002441406
1443.17935419612	1124.80004882813
1443.81923112171	1122.40002441406
1444.45902515061	1128
1445.09873629038	1136.80004882813
1445.73836454854	1132.40002441406
1446.37790993265	1145
1447.01737245024	1137.59997558594
1447.65675210885	1142.19995117188
1448.29604891602	1138.19995117188
1448.93526287928	1129
1449.57439400618	1131.40002441406
1450.21344230426	1118.59997558594
1450.85240778105	1124.80004882813
1451.49129044409	1115.19995117188
1452.13009030092	1117
1452.76880735907	1120.80004882813
1453.40744162608	1117
1454.04599310949	1126.40002441406
1454.68446181683	1125.19995117188
1455.32284775564	1127.59997558594
1455.96115093345	1126
1456.5993713578	1128.19995117188
1457.23750903623	1136.19995117188
1457.87556397626	1123
1458.51353618543	1127.59997558594
1459.15142567127	1123.59997558594
1459.78923244132	1124.80004882813
1460.42695650311	1126.59997558594
1461.06459786417	1124.40002441406
1461.70215653203	1126.40002441406
1462.33963251423	1129.80004882813
1462.97702581829	1130.59997558594
1463.61433645175	1132
1464.25156442214	1131.19995117188
1464.88870973699	1134.40002441406
1465.52577240382	1126.80004882813
1466.16275243017	1137.19995117188
1466.79964982356	1127.19995117188
1467.43646459154	1122.80004882813
1468.07319674161	1131.59997558594
1468.70984628132	1123.80004882813
1469.34641321818	1130.19995117188
1469.98289755974	1129.80004882813
1470.6192993135	1118.19995117188
1471.25561848701	1129.80004882813
1471.89185508779	1134.59997558594
1472.52800912336	1132.80004882813
1473.16408060124	1125
1473.80006952897	1123.19995117188
1474.43597591407	1119.19995117188
1475.07179976406	1118.80004882813
1475.70754108647	1121.19995117188
1476.34319988883	1123.80004882813
1476.97877617865	1125.80004882813
1477.61426996345	1124.59997558594
1478.24968125077	1124.80004882813
1478.88501004812	1119
1479.52025636303	1131.80004882813
1480.15542020302	1130
1480.79050157561	1132.19995117188
1481.42550048832	1130
1482.06041694867	1129.40002441406
1482.69525096418	1121.40002441406
1483.33000254237	1129.59997558594
1483.96467169077	1125
1484.59925841689	1117.80004882813
1485.23376272825	1123.59997558594
1485.86818463237	1113.40002441406
1486.50252413677	1121.59997558594
1487.13678124896	1119.40002441406
1487.77095597646	1110.59997558594
1488.4050483268	1125.80004882813
1489.03905830749	1124.80004882813
1489.67298592604	1131
1490.30683118996	1134.19995117188
1490.9405941068	1130.59997558594
1491.57427468403	1133.59997558594
1492.2078729292	1131.40002441406
1492.84138884981	1124.59997558594
1493.47482245338	1131.80004882813
1494.10817374742	1125.59997558594
1494.74144273944	1131.59997558594
1495.37462943696	1137.80004882813
1496.0077338475	1133.40002441406
1496.64075597856	1130.40002441406
1497.27369583765	1135.59997558594
1497.9065534323	1136.19995117188
1498.53932877001	1124.59997558594
1499.17202185829	1123.19995117188
1499.80463270465	1134.80004882813
1500.43716131661	1139.59997558594
1501.06960770167	1132.19995117188
1501.70197186735	1135.40002441406
1502.33425382116	1135.59997558594
1502.96645357059	1139.40002441406
1503.59857112317	1140.40002441406
1504.23060648641	1145.19995117188
1504.8625596678	1136.80004882813
1505.49443067486	1148.59997558594
1506.1262195151	1151.19995117188
1506.75792619602	1150
1507.38955072513	1156.40002441406
1508.02109310993	1151.80004882813
1508.65255335794	1153.59997558594
1509.28393147666	1147.80004882813
1509.91522747359	1151
1510.54644135624	1141.59997558594
1511.17757313212	1141.19995117188
1511.80862280872	1139
1512.43959039356	1133.80004882813
1513.07047589413	1133.80004882813
1513.70127931795	1133.59997558594
1514.33200067251	1128
1514.96263996531	1135.59997558594
1515.59319720386	1127.40002441406
1516.22367239567	1120.40002441406
1516.85406554822	1125.19995117188
1517.48437666903	1117.40002441406
1518.1146057656	1132.40002441406
1518.74475284542	1122.80004882813
1519.374817916	1115.80004882813
1520.00480098483	1119.80004882813
1520.63470205942	1108.19995117188
1521.26452114726	1109.40002441406
1521.89425825586	1121
1522.52391339271	1113.80004882813
1523.15348656531	1123.19995117188
1523.78297778116	1114
1524.41238704775	1101
1525.04171437259	1102.19995117188
1525.67095976317	1108
1526.30012322699	1098.59997558594
1526.92920477154	1111
1527.55820440432	1107.40002441406
1528.18712213283	1107
1528.81595796455	1103
1529.44471190699	1107.59997558594
1530.07338396764	1107.80004882813
1530.70197415399	1109
1531.33048247353	1108
1531.95890893377	1108.80004882813
1532.58725354219	1107.19995117188
1533.21551630629	1117.40002441406
1533.84369723356	1111.59997558594
1534.47179633148	1107.59997558594
1535.09981360757	1102.40002441406
1535.72774906929	1106.40002441406
1536.35560272415	1107.40002441406
1536.98337457963	1119.59997558594
1537.61106464323	1114.80004882813
1538.23867292243	1118
1538.86619942473	1114
1539.49364415762	1116.59997558594
1540.12100712857	1118.80004882813
1540.74828834509	1114.59997558594
1541.37548781466	1114
1542.00260554478	1104.40002441406
1542.62964154291	1099
1543.25659581655	1101.40002441406
1543.8834683732	1101.40002441406
1544.51025922034	1093.59997558594
1545.13696836544	1086.80004882813
1545.76359581601	1094.59997558594
1546.39014157952	1097.59997558594
1547.01660566345	1107.19995117188
1547.64298807531	1107.40002441406
1548.26928882255	1108.40002441406
1548.89550791269	1112.80004882813
1549.52164535318	1111.40002441406
1550.14770115153	1113.19995117188
1550.77367531521	1104.59997558594
1551.39956785171	1100.19995117188
1552.0253787685	1103.80004882813
1552.65110807307	1100.80004882813
1553.2767557729	1099
1553.90232187548	1095.19995117188
1554.52780638828	1094
1555.15320931879	1094
1555.77853067447	1103
1556.40377046282	1098.40002441406
1557.02892869132	1087
1557.65400536744	1096.40002441406
1558.27900049866	1100.59997558594
1558.90391409247	1102
1559.52874615633	1096.80004882813
1560.15349669773	1099.19995117188
1560.77816572414	1095.59997558594
1561.40275324305	1091.40002441406
1562.02725926192	1101
1562.65168378824	1096
1563.27602682948	1100.40002441406
1563.90028839311	1104.19995117188
1564.52446848662	1099.19995117188
1565.14856711748	1094.80004882813
1565.77258429316	1096.19995117188
1566.39652002113	1103
1567.02037430887	1099.59997558594
1567.64414716387	1100.40002441406
1568.26783859357	1108.80004882813
1568.89144860547	1104.59997558594
1569.51497720703	1106.59997558594
1570.13842440573	1109.59997558594
1570.76179020904	1101.40002441406
1571.38507462442	1109.19995117188
1572.00827765936	1107.59997558594
1572.63139932132	1104.40002441406
1573.25443961777	1101.59997558594
1573.87739855618	1100.40002441406
1574.50027614402	1102.59997558594
1575.12307238877	1098
1575.74578729789	1099.40002441406
1576.36842087885	1094
1576.99097313912	1095.40002441406
1577.61344408616	1100
1578.23583372745	1092
1578.85814207046	1103.19995117188
1579.48036912264	1105.19995117188
1580.10251489147	1101.40002441406
1580.72457938441	1099
1581.34656260893	1087.40002441406
1581.9684645725	1088.40002441406
1582.59028528258	1093.80004882813
1583.21202474663	1089.59997558594
1583.83368297212	1089.19995117188
1584.45525996652	1091.80004882813
1585.07675573728	1094.40002441406
1585.69817029188	1085.59997558594
1586.31950363778	1086.80004882813
1586.94075578243	1079.19995117188
1587.5619267333	1085
1588.18301649786	1073.19995117188
1588.80402508357	1069.59997558594
1589.42495249788	1074.40002441406
1590.04579874826	1068.59997558594
1590.66656384217	1079.19995117188
1591.28724778707	1069.59997558594
1591.90785059042	1080.59997558594
1592.52837225968	1081.59997558594
1593.14881280232	1071.80004882813
1593.76917222578	1083.19995117188
1594.38945053753	1084.59997558594
1595.00964774502	1079.80004882813
1595.62976385573	1083.59997558594
1596.24979887709	1091.59997558594
1596.86975281657	1078.40002441406
1597.48962568164	1087
1598.10941747974	1088.80004882813
1598.72912821832	1080.19995117188
1599.34875790486	1076
1599.9683065468	1072.59997558594
1600.58777415159	1076.40002441406
1601.2071607267	1073.80004882813
1601.82646627958	1079.40002441406
1602.44569081769	1080.19995117188
1603.06483434846	1075
1603.68389687937	1072.59997558594
1604.30287841786	1083.80004882813
1604.92177897139	1078.59997558594
1605.54059854741	1078.59997558594
1606.15933715337	1071
1606.77799479672	1071.40002441406
1607.39657148492	1075.80004882813
1608.01506722542	1073.59997558594
1608.63348202566	1076.80004882813
1609.2518158931	1079.40002441406
1609.87006883519	1073.59997558594
1610.48824085939	1066.19995117188
1611.10633197312	1067.40002441406
1611.72434218386	1066
1612.34227149904	1069.19995117188
1612.96011992612	1069.19995117188
1613.57788747254	1065.59997558594
1614.19557414575	1063
1614.8131799532	1068.40002441406
1615.43070490234	1070.19995117188
1616.04814900061	1071
1616.66551225545	1071.19995117188
1617.28279467433	1066.40002441406
1617.89999626467	1071.40002441406
1618.51711703393	1074
1619.13415698955	1075.80004882813
1619.75111613898	1070
1620.36799448966	1075.40002441406
1620.98479204903	1079.19995117188
1621.60150882455	1081
1622.21814482364	1072.40002441406
1622.83470005376	1079
1623.45117452235	1076.59997558594
1624.06756823685	1080.59997558594
1624.6838812047	1079.59997558594
1625.30011343335	1078
1625.91626493022	1081.40002441406
1626.53233570278	1080.80004882813
1627.14832575845	1079.80004882813
1627.76423510468	1074
1628.38006374891	1074.80004882813
1628.99581169857	1073.40002441406
1629.61147896111	1074.59997558594
1630.22706554397	1077.19995117188
1630.84257145457	1063.19995117188
1631.45799670038	1063.19995117188
1632.07334128881	1055.80004882813
1632.6886052273	1063.19995117188
1633.3037885233	1067.59997558594
1633.91889118425	1055.40002441406
1634.53391321757	1053.19995117188
1635.1488546307	1058
1635.76371543108	1052.19995117188
1636.37849562616	1050.40002441406
1636.99319522335	1050.80004882813
1637.60781423009	1057
1638.22235265383	1062.19995117188
1638.83681050198	1054.80004882813
1639.451187782	1056.40002441406
1640.0654845013	1060.19995117188
1640.67970066734	1061
1641.29383628752	1058.40002441406
1641.9078913693	1066.59997558594
1642.5218659201	1063
1643.13575994735	1065.19995117188
1643.74957345849	1064.19995117188
1644.36330646094	1064
1644.97695896213	1067
1645.59053096951	1078.59997558594
1646.20402249049	1070.59997558594
1646.8174335325	1074.80004882813
1647.43076410298	1073.40002441406
1648.04401420935	1081.59997558594
1648.65718385905	1080.19995117188
1649.2702730595	1083.80004882813
1649.88328181812	1081.40002441406
1650.49621014236	1082
1651.10905803963	1076.19995117188
1651.72182551735	1075.40002441406
1652.33451258297	1076.19995117188
1652.9471192439	1073.59997558594
1653.55964550757	1071.19995117188
1654.1720913814	1073.59997558594
1654.78445687283	1062.19995117188
1655.39674198926	1065.40002441406
1656.00894673814	1060.80004882813
1656.62107112688	1057.80004882813
1657.23311516291	1047.80004882813
1657.84507885365	1045.19995117188
1658.45696220652	1052.59997558594
1659.06876522895	1046.19995117188
1659.68048792835	1048.80004882813
1660.29213031217	1051.59997558594
1660.90369238779	1051.40002441406
1661.51517416267	1046.40002441406
1662.12657564421	1047
1662.73789683984	1041.40002441406
1663.34913775697	1035.80004882813
1663.96029840303	1040.40002441406
1664.57137878544	1026.40002441406
1665.18237891161	1032
1665.79329878897	1038.40002441406
1666.40413842493	1035.80004882813
1667.01489782691	1040
1667.62557700233	1033.80004882813
1668.2361759586	1030.59997558594
1668.84669470315	1032.59997558594
1669.4571332434	1031
1670.06749158675	1026
1670.67776974062	1030
1671.28796771243	1031.59997558594
1671.8980855096	1028.19995117188
1672.50812313954	1027.19995117188
1673.11808060967	1034.59997558594
1673.72795792739	1032.80004882813
1674.33775510013	1033.40002441406
1674.9474721353	1028.59997558594
1675.55710904031	1031.80004882813
1676.16666582257	1023.59997558594
1676.7761424895	1018.40002441406
1677.38553904851	1011
1677.99485550702	1016.79998779297
1678.60409187243	1016.79998779297
1679.21324815215	1014.79998779297
1679.8223243536	1019.79998779297
1680.43132048419	1019.79998779297
1681.04023655132	1021.20001220703
1681.64907256241	1020.59997558594
1682.25782852487	1018
1682.86650444611	1019
1683.47510033353	1016
1684.08361619455	1012.59997558594
1684.69205203657	1012.79998779297
1685.300407867	1006.79998779297
1685.90868369325	1008.79998779297
1686.51687952272	1008.79998779297
1687.12499536283	1008.79998779297
1687.73303122098	1011.59997558594
1688.34098710457	1014.79998779297
1688.94886302101	1017.20001220703
1689.55665897772	1017.20001220703
1690.16437498208	1020.59997558594
1690.77201104152	1018
1691.37956716342	1019.20001220703
1691.9870433552	1017.40002441406
1692.59443962426	1023
1693.20175597801	1015.59997558594
1693.80899242384	1022.20001220703
1694.41614896916	1015.79998779297
1695.02322562138	1011.20001220703
1695.63022238789	1015.40002441406
1696.23713927609	1015.40002441406
1696.8439762934	1009
1697.4507334472	1008
1698.05741074491	1011.20001220703
1698.66400819391	1008.79998779297
1699.27052580161	1013
1699.87696357542	1009.79998779297
1700.48332152272	1012.20001220703
1701.08959965092	1020.20001220703
1701.69579796742	1018.59997558594
1702.30191647962	1011.40002441406
1702.90795519491	1012
1703.51391412069	1002.40002441406
1704.11979326437	1002.20001220703
1704.72559263332	1005
1705.33131223496	1003.20001220703
1705.93695207668	1004.20001220703
1706.54251216588	1001
1707.14799250994	1006
1707.75339311628	1006.79998779297
1708.35871399227	1008
1708.96395514532	1006.79998779297
1709.56911658282	1009.79998779297
