634.977642221345	868.400024414063
635.719821695905	869.200012207031
636.461909203392	869
637.203904751776	869
637.945808349023	869
638.687620003102	867.400024414063
639.42933972198	870.799987792969
640.170967513616	868.599975585938
640.912503385981	868.400024414063
641.653947347041	868
642.395299404758	869
643.13655956709	867.400024414063
643.877727842014	867.799987792969
644.61880423748	867.599975585938
645.359788761455	866.599975585938
646.100681421905	869.599975585938
646.841482226789	866.599975585938
647.582191184074	868
648.322808301711	868
649.06333358767	867.599975585938
649.803767049909	868.200012207031
650.544108696385	869
651.28435853506	868.799987792969
652.024516573894	870
652.764582820849	868.200012207031
653.504557283875	867.200012207031
654.244439970937	868.400024414063
654.984230889991	869.599975585938
655.723930048995	869
656.463537455909	867.799987792969
657.203053118683	868.799987792969
657.942477045275	868.400024414063
658.681809243647	869.400024414063
659.421049721747	869.400024414063
660.160198487535	869.400024414063
660.899255548962	867.400024414063
661.638220913985	867.400024414063
662.377094590559	869.799987792969
663.115876586631	868.799987792969
663.854566910165	869.599975585938
664.593165569107	869.599975585938
665.331672571406	869
666.07008792502	870
666.808411637902	868.599975585938
667.546643717996	869.200012207031
668.284784173258	869.599975585938
669.022833011641	868.400024414063
669.760790241089	869.400024414063
670.498655869554	869.599975585938
671.236429904987	868.599975585938
671.97411235534	868
672.711703228551	869.200012207031
673.449202532577	870.599975585938
674.186610275364	869
674.923926464857	869
675.661151109008	869.599975585938
676.398284215759	868.599975585938
677.135325793058	870
677.87227584885	869
678.609134391082	870
679.345901427696	867.400024414063
680.082576966644	868
680.819161015861	868.799987792969
681.555653583298	869.599975585938
682.292054676895	870
683.028364304594	869
683.764582474344	869.400024414063
684.500709194083	870.799987792969
685.236744471752	867.400024414063
685.972688315294	867.400024414063
686.708540732652	868.599975585938
687.444301731762	868.799987792969
688.179971320572	868.400024414063
688.915549507013	868.200012207031
689.651036299034	869.799987792969
690.386431704569	868.400024414063
691.121735731559	867.599975585938
691.85694838794	868.200012207031
692.592069681652	867.200012207031
693.327099620632	868.599975585938
694.062038212821	869
694.796885466149	868.599975585938
695.531641388561	866.799987792969
696.266305987987	868
697.000879272367	869.200012207031
697.735361249632	869
698.469751927722	869.400024414063
699.204051314568	868.200012207031
699.938259418107	867.400024414063
700.672376246272	866.400024414063
701.406401806997	868.799987792969
702.140336108212	867.400024414063
702.874179157855	867.799987792969
703.607930963856	867.799987792969
704.341591534147	868.400024414063
705.07516087666	869
705.808638999324	867
706.542025910073	867.799987792969
707.275321616841	868
708.008526127549	866.599975585938
708.741639450132	866.400024414063
709.474661592521	868.400024414063
710.207592562641	866.799987792969
710.940432368424	867.799987792969
711.673181017796	867.400024414063
712.405838518687	869.200012207031
713.138404879025	867.599975585938
713.870880106731	867.799987792969
714.603264209738	867.200012207031
715.335557195971	868.799987792969
716.067759073357	869.400024414063
716.799869849816	868
717.531889533281	869.599975585938
718.263818131673	866.599975585938
718.995655652917	868
719.727402104934	866.799987792969
720.45905749565	868.400024414063
721.19062183299	868.799987792969
721.922095124877	867.200012207031
722.653477379231	865.799987792969
723.384768603973	866.599975585938
724.11596880703	868.599975585938
724.847077996319	867
725.578096179762	868.799987792969
726.309023365281	867.799987792969
727.039859560792	867.400024414063
727.770604774222	869
728.501259013484	867.200012207031
729.231822286501	868
729.962294601191	867.200012207031
730.692675965469	868.599975585938
731.42296638726	867.599975585938
732.153165874472	865.799987792969
732.883274435032	868
733.613292076851	867.599975585938
734.343218807843	868.200012207031
735.07305463593	869
735.802799569028	867.200012207031
736.532453615048	868
737.262016781904	867.400024414063
737.991489077517	867.799987792969
738.720870509794	867
739.450161086654	868.400024414063
740.179360816009	868
740.908469705772	868.599975585938
741.637487763854	867
742.366414998168	866.799987792969
743.095251416623	868.400024414063
743.823997027137	866.400024414063
744.552651837618	867.599975585938
745.281215855978	866.599975585938
746.009689090124	867.599975585938
746.738071547964	867.799987792969
747.466363237419	867
748.194564166384	867.799987792969
748.92267434278	866
749.650693774504	866.400024414063
750.378622469476	867.400024414063
751.106460435596	867.599975585938
751.834207680771	868.200012207031
752.561864212909	867.200012207031
753.289430039919	867.799987792969
754.016905169707	868
754.744289610175	868.200012207031
755.471583369231	868
756.198786454782	867.599975585938
756.925898874728	867
757.652920636979	868.200012207031
758.379851749433	867.200012207031
759.106692219996	866.400024414063
759.833442056572	868.799987792969
760.560101267063	867.799987792969
761.28666985937	867.599975585938
762.0131478414	868.200012207031
762.739535221046	867.799987792969
763.465832006219	867.799987792969
764.192038204812	867.400024414063
764.918153824731	868.799987792969
765.644178873872	866.799987792969
766.370113360138	866.599975585938
767.095957291425	867.799987792969
767.821710675635	868.599975585938
768.547373520665	868
769.272945834415	867.400024414063
769.998427624781	867.400024414063
770.723818899658	869.599975585938
771.449119666949	868.200012207031
772.174329934546	867.799987792969
772.899449710347	867.400024414063
773.624479002248	869
774.349417818145	867
775.074266165934	866
775.799024053505	867.799987792969
776.523691488757	867.200012207031
777.248268479582	868.200012207031
777.972755033877	869.200012207031
778.69715115953	866
779.421456864441	868
780.145672156493	868.400024414063
780.869797043587	868.200012207031
781.593831533611	867.400024414063
782.317775634457	867.400024414063
783.041629354012	869.200012207031
783.765392700174	867.799987792969
784.489065680828	868.599975585938
785.212648303866	867
785.936140577177	870.200012207031
786.659542508652	867.599975585938
787.382854106174	870.200012207031
788.106075377639	865.400024414063
788.829206330928	868
789.552246973933	869
790.275197314542	867.400024414063
790.998057360638	871.599975585938
791.720827120108	869.400024414063
792.443506600841	868.200012207031
793.166095810722	867
793.888594757635	866.200012207031
794.611003449465	868.200012207031
795.333321894098	867
796.055550099417	865.599975585938
796.777688073308	866.799987792969
797.499735823654	868
798.221693358334	867.599975585938
798.943560685235	867.799987792969
799.665337812239	867
800.387024747226	869.200012207031
801.108621498075	869
801.830128072674	868.200012207031
802.551544478902	867.200012207031
803.272870724636	867.799987792969
803.994106817761	869.799987792969
804.715252766148	868
805.436308577687	867.200012207031
806.157274260251	868
806.878149821721	868.200012207031
807.598935269973	866.799987792969
808.319630612886	868.400024414063
809.040235858336	868.400024414063
809.760751014202	867
810.481176088361	867.799987792969
811.201511088685	870.400024414063
811.921756023059	867.400024414063
812.641910899347	867.599975585938
813.361975725432	869.400024414063
814.081950509188	869.200012207031
814.801835258489	867.799987792969
815.521629981206	868.599975585938
816.241334685218	867.599975585938
816.960949378392	868.400024414063
817.680474068606	867.799987792969
818.399908763731	869.799987792969
819.11925347164	867.400024414063
819.838508200202	867.799987792969
820.55767295729	868.200012207031
821.276747750778	867.200012207031
821.995732588531	868.400024414063
822.714627478425	867.200012207031
823.433432428327	869.400024414063
824.152147446105	866.599975585938
824.870772539632	866.400024414063
825.589307716775	867.400024414063
826.307752985404	865.599975585938
827.026108353378	868.799987792969
827.744373828579	867.400024414063
828.462549418867	866.200012207031
829.180635132107	867.400024414063
829.898630976168	867.400024414063
830.616536958915	867.799987792969
831.334353088218	868.400024414063
832.052079371938	866.599975585938
832.769715817942	867.400024414063
833.487262434092	869
834.204719228255	868.599975585938
834.922086208293	867.400024414063
835.639363382073	867
836.356550757456	865
837.073648342304	867
837.790656144484	867.200012207031
838.507574171847	869
839.22440243227	866.200012207031
839.941140933601	867.400024414063
840.657789683706	867.200012207031
841.374348690448	867.799987792969
842.090817961686	869
842.807197505276	867.799987792969
843.523487329083	868.400024414063
844.23968744096	867.599975585938
844.955797848771	868.400024414063
845.671818560374	868.400024414063
846.387749583622	868.799987792969
847.103590926378	868.400024414063
847.819342596497	869
848.535004601833	867.599975585938
849.25057695025	868
849.966059649598	868
850.681452707735	866.799987792969
851.396756132513	868
852.111969931789	868.599975585938
852.827094113419	867.799987792969
853.542128685257	869.599975585938
854.257073655158	869
854.971929030969	867.200012207031
855.686694820551	869.599975585938
856.40137103175	868.599975585938
857.115957672423	868.200012207031
857.830454750423	869.599975585938
858.544862273597	868.400024414063
859.259180249797	866.799987792969
859.97340868688	868.799987792969
860.687547592688	869.200012207031
861.401596975075	868
862.115556841891	868.799987792969
862.829427200985	869.200012207031
863.543208060205	868.799987792969
864.256899427402	868
864.970501310423	870.200012207031
865.684013717114	868.400024414063
866.397436655325	868.799987792969
867.110770132901	868.799987792969
867.824014157691	868.799987792969
868.537168737542	869.200012207031
869.250233880299	870.400024414063
869.963209593803	869.799987792969
870.676095885902	868.400024414063
871.388892764445	867.400024414063
872.101600237276	867.799987792969
872.814218312233	869.799987792969
873.526746997165	868.799987792969
874.239186299914	869.200012207031
874.951536228323	868
875.663796790231	869
876.375967993487	869.799987792969
877.088049845928	868.799987792969
877.8000423554	869
878.511945529739	868.799987792969
879.22375937679	870.400024414063
879.935483904388	870.799987792969
880.64711912038	868.799987792969
881.358665032604	870.400024414063
882.070121648892	869.200012207031
882.78148897709	871.400024414063
883.492767025039	868.799987792969
884.203955800571	870.799987792969
884.915055311525	868.599975585938
885.626065565741	870.799987792969
886.336986571053	869.400024414063
887.047818335298	868.599975585938
887.758560866315	869.400024414063
888.469214171937	869.400024414063
889.179778260005	866.799987792969
889.890253138347	869
890.600638814803	868.599975585938
891.310935297204	869.400024414063
892.021142593385	870
892.731260711183	869
893.441289658429	869.200012207031
894.15122944295	870
894.861080072591	869.200012207031
895.570841555173	870.400024414063
896.280513898534	870
896.990097110503	870.200012207031
897.699591198913	868
898.408996171595	869.400024414063
899.118312036375	869.799987792969
899.827538801089	871
900.536676473561	868.200012207031
901.245725061628	868.200012207031
901.954684573109	870.400024414063
902.663555015838	868.400024414063
903.372336397644	870.599975585938
904.081028726351	872.200012207031
904.789632009793	869.200012207031
905.49814625579	868.599975585938
906.20657147217	868.799987792969
906.914907666765	868.400024414063
907.623154847391	869.799987792969
908.331313021885	870.200012207031
909.039382198064	868
909.747362383754	869.599975585938
910.455253586782	870.400024414063
911.163055814972	869.200012207031
911.870769076143	869.799987792969
912.578393378126	869.599975585938
913.285928728738	869.200012207031
913.993375135802	869.400024414063
914.700732607145	869.799987792969
915.408001150579	869.799987792969
916.115180773937	869.200012207031
916.822271485037	868
917.529273291693	869.200012207031
918.236186201733	870
918.943010222971	868.400024414063
919.649745363234	869
920.356391630333	869.599975585938
921.062949032096	868.599975585938
921.769417576333	869.400024414063
922.475797270864	869.400024414063
923.182088123512	868.400024414063
923.888290142089	869
924.594403334414	867.200012207031
925.300427708304	870.200012207031
926.006363271572	869.400024414063
926.712210032039	869
927.417967997522	868.599975585938
928.123637175827	867.200012207031
928.829217574776	868.599975585938
929.534709202184	867.799987792969
930.240112065859	869
930.945426173621	867.599975585938
931.650651533283	867.599975585938
932.355788152653	868.799987792969
933.060836039547	868.200012207031
933.765795201776	869.200012207031
934.470665647153	868
935.175447383492	869
935.880140418599	867
936.584744760286	868.799987792969
937.289260416366	867.799987792969
937.993687394647	867.799987792969
938.698025702939	869
939.402275349051	870.200012207031
940.106436340793	868.599975585938
940.810508685976	869.599975585938
941.5144923924	870.200012207031
942.21838746788	867.400024414063
942.922193920223	868.599975585938
943.625911757231	869
944.329540986716	867.799987792969
945.033081616484	867.799987792969
945.736533654334	869.599975585938
946.439897108083	869.400024414063
947.143171985529	869
947.846358294477	870.400024414063
948.549456042732	869.400024414063
949.2524652381	868.400024414063
949.955385888382	867.400024414063
950.658218001384	867.599975585938
951.360961584907	868.400024414063
952.063616646755	869
952.766183194733	869
953.468661236636	869.599975585938
954.171050780271	868.799987792969
954.873351833437	869.599975585938
955.575564403935	871
956.277688499565	868.200012207031
956.97972412813	868.400024414063
957.681671297424	868.799987792969
958.383530015255	868.200012207031
959.085300289414	870.599975585938
959.786982127703	868.400024414063
960.488575537918	871.200012207031
961.190080527859	867.400024414063
961.891497105327	868.799987792969
962.592825278111	868.200012207031
963.294065054012	869.400024414063
963.995216440829	869.599975585938
964.696279446353	869.599975585938
965.397254078383	868.599975585938
966.098140344714	868.599975585938
966.798938253139	870.200012207031
967.499647811456	868.200012207031
968.200269027458	867.599975585938
968.900801908937	869.599975585938
969.601246463685	868.200012207031
970.3016026995	869
971.001870624169	869.400024414063
971.702050245491	867.400024414063
972.402141571249	869.599975585938
973.102144609245	870.200012207031
973.802059367267	867.200012207031
974.501885853103	868.200012207031
975.201624074541	870.200012207031
975.901274039379	870.200012207031
976.600835755399	869.799987792969
977.3003092304	867.799987792969
977.999694472158	867.400024414063
978.698991488473	868.200012207031
979.39820028713	867.599975585938
980.097320875915	868.599975585938
980.796353262618	869
981.495297455024	870
982.194153460919	868.200012207031
982.892921288093	870.200012207031
983.591600944331	867.200012207031
984.290192437419	867.400024414063
984.98869577514	869.200012207031
985.687110965282	869.599975585938
986.385438015629	869.599975585938
987.083676933961	868.599975585938
987.781827728069	868.799987792969
988.479890405732	870
989.177864974732	869.200012207031
989.875751442857	868.200012207031
990.573549817888	868.599975585938
991.271260107602	869.599975585938
991.968882319786	868
992.666416462217	867.400024414063
993.363862542681	868.599975585938
994.061220568959	868.799987792969
994.758490548823	868.799987792969
995.455672490061	869.200012207031
996.152766400451	868.799987792969
996.849772287773	869.400024414063
997.5466901598	868.799987792969
998.243520024317	866.799987792969
998.940261889097	867.599975585938
999.636915761923	867.799987792969
1000.33348165057	867
1001.02995956281	868.599975585938
1001.72634950643	867.400024414063
1002.42265148919	869.599975585938
1003.11886551889	868
1003.81499160328	869.599975585938
1004.51102975015	869
1005.20697996727	868.599975585938
1005.90284226242	868.799987792969
1006.59861664337	871
1007.2943031179	870
1007.98990169377	869.200012207031
1008.68541237876	870.799987792969
1009.38083518064	868.799987792969
1010.07617010719	871.200012207031
1010.77141716617	869.799987792969
1011.46657636536	869.200012207031
1012.16164771253	868.799987792969
1012.85663121546	872
1013.5515268819	869.799987792969
1014.24633471963	869.200012207031
1014.94105473642	869.400024414063
1015.63568694004	870.200012207031
1016.33023133826	869.599975585938
1017.02468793885	868.400024414063
1017.71905674957	871.400024414063
1018.41333777819	871.799987792969
1019.10753103249	868.799987792969
1019.80163652022	871
1020.49565424916	870.400024414063
1021.18958422707	871
1021.88342646171	870.599975585938
1022.57718096085	872.200012207031
1023.27084773227	872.200012207031
1023.96442678371	870.200012207031
1024.65791812296	872.599975585938
1025.35132175776	871.599975585938
1026.04463769589	871.200012207031
1026.73786594511	871.400024414063
1027.43100651318	871
1028.12405940786	872.400024414063
1028.81702463692	870.400024414063
1029.50990220812	873.799987792969
1030.20269212921	872.799987792969
1030.89539440798	871.799987792969
1031.58800905216	874
1032.28053606952	873.200012207031
1032.97297546784	872.799987792969
1033.66532725485	872.400024414063
1034.35759143832	872.200012207031
1035.04976802602	871.599975585938
1035.7418570257	872
1036.43385844511	871.400024414063
1037.12577229202	869.799987792969
1037.81759857419	872
1038.50933729937	869.799987792969
1039.20098847531	870.200012207031
1039.89255210978	869.400024414063
1040.58402821053	870.400024414063
1041.27541678532	870.400024414063
1041.96671784191	870.400024414063
1042.65793138804	869.799987792969
1043.34905743147	871
1044.04009597996	871.799987792969
1044.73104704125	871.599975585938
1045.42191062312	870.400024414063
1046.1126867333	869.799987792969
1046.80337537955	870.799987792969
1047.49397656962	870
1048.18449031127	870.200012207031
1048.87491661225	869.400024414063
1049.5652554803	869.599975585938
1050.25550692319	869.599975585938
1050.94567094865	868.799987792969
1051.63574756444	869.200012207031
1052.32573677832	870.400024414063
1053.01563859803	868.799987792969
1053.70545303131	870
1054.39518008592	869.200012207031
1055.08481976961	868
1055.77437209013	870.799987792969
1056.46383705522	868.599975585938
1057.15321467262	870
1057.8425049501	869.799987792969
1058.53170789539	870.599975585938
1059.22082351624	869.799987792969
1059.9098518204	870
1060.59879281561	868
1061.28764650962	869.799987792969
1061.97641291016	870.400024414063
1062.665092025	870.599975585938
1063.35368386187	869
1064.04218842851	872.599975585938
1064.73060573268	869.599975585938
1065.4189357821	870.200012207031
1066.10717858452	870
1066.7953341477	870.599975585938
1067.48340247936	870.400024414063
1068.17138358725	870
1068.85927747912	868.599975585938
1069.5470841627	869.599975585938
1070.23480364573	867.799987792969
1070.92243593595	868.599975585938
1071.60998104111	869.200012207031
1072.29743896894	870
1072.98480972718	868.799987792969
1073.67209332357	870.200012207031
1074.35928976585	868.799987792969
1075.04639906176	869.799987792969
1075.73342121903	870.799987792969
1076.42035624541	870.599975585938
1077.10720414862	870.200012207031
1077.79396493641	870.400024414063
1078.48063861651	870.599975585938
1079.16722519666	868.799987792969
1079.85372468459	870.799987792969
1080.54013708804	869.599975585938
1081.22646241474	870
1081.91270067243	868.200012207031
1082.59885186884	871.200012207031
1083.28491601171	868.799987792969
1083.97089310877	870.400024414063
1084.65678316774	869.400024414063
1085.34258619637	870
1086.02830220239	868.599975585938
1086.71393119352	870.400024414063
1087.39947317751	869.200012207031
1088.08492816207	870.400024414063
1088.77029615495	867.400024414063
1089.45557716387	869
1090.14077119656	868.799987792969
1090.82587826075	869
1091.51089836417	868.400024414063
1092.19583151456	869.200012207031
1092.88067771963	867.599975585938
1093.56543698712	870.400024414063
1094.25010932475	870.599975585938
1094.93469474026	868.200012207031
1095.61919324137	870.799987792969
1096.3036048358	868.599975585938
1096.98792953129	869.599975585938
1097.67216733555	868.400024414063
1098.35631825632	870.599975585938
1099.04038230132	872
1099.72435947828	869.599975585938
1100.40824979492	870.799987792969
1101.09205325895	870.400024414063
1101.77576987812	871.400024414063
1102.45939966014	871.200012207031
1103.14294261273	870.799987792969
1103.82639874362	872.400024414063
1104.50976806054	868.799987792969
1105.19305057119	870.400024414063
1105.87624628331	870.799987792969
1106.55935520461	870
1107.24237734283	869.200012207031
1107.92531270566	870.400024414063
1108.60816130085	869.799987792969
1109.2909231361	872.400024414063
1109.97359821914	872.799987792969
1110.65618655768	872.200012207031
1111.33868815946	871.799987792969
1112.02110303217	871.599975585938
1112.70343118355	869.599975585938
1113.3856726213	871.599975585938
1114.06782735316	872.400024414063
1114.74989538683	871.799987792969
1115.43187673002	873.200012207031
1116.11377139047	872.200012207031
1116.79557937588	874
1117.47730069397	871.400024414063
1118.15893535245	874
1118.84048335904	872.400024414063
1119.52194472146	874.400024414063
1120.20331944741	873.400024414063
1120.88460754462	874
1121.56580902079	874
1122.24692388364	872.799987792969
1122.92795214088	873
1123.60889380022	875.799987792969
1124.28974886938	873.799987792969
1124.97051735606	874.599975585938
1125.65119926799	875.599975585938
1126.33179461286	874.799987792969
1127.0123033984	874.400024414063
1127.6927256323	872.599975585938
1128.37306132229	875.200012207031
1129.05331047606	874
1129.73347310134	873.599975585938
1130.41354920582	873.599975585938
1131.09353879722	872.200012207031
1131.77344188324	873.599975585938
1132.45325847159	874.200012207031
1133.13298856999	871.799987792969
1133.81263218612	873.799987792969
1134.49218932772	874.400024414063
1135.17166000247	872.799987792969
1135.85104421809	873.200012207031
1136.53034198227	872
1137.20955330274	870.599975585938
1137.88867818718	871.400024414063
1138.56771664331	871.200012207031
1139.24666867883	872.799987792969
1139.92553430144	870.400024414063
1140.60431351885	870.200012207031
1141.28300633876	871.400024414063
1141.96161276887	872.799987792969
1142.64013281689	872.799987792969
1143.31856649051	873
1143.99691379744	871.400024414063
1144.67517474538	872.200012207031
1145.35334934203	872.799987792969
1146.03143759509	872.400024414063
1146.70943951226	870.799987792969
1147.38735510125	869.799987792969
1148.06518436974	873
1148.74292732545	869.799987792969
1149.42058397606	872
1150.09815432928	872.400024414063
1150.7756383928	870.799987792969
1151.45303617432	870.799987792969
1152.13034768155	870.200012207031
1152.80757292217	870.599975585938
1153.48471190389	871.799987792969
1154.16176463439	872
1154.83873112138	870.400024414063
1155.51561137255	872
1156.1924053956	872.200012207031
1156.86911319822	871.400024414063
1157.5457347881	871.599975585938
1158.22227017294	872.200012207031
1158.89871936044	870
1159.57508235828	871.400024414063
1160.25135917416	870.400024414063
1160.92754981578	870.799987792969
1161.60365429081	872
1162.27967260697	871.799987792969
1162.95560477193	870
1163.63145079339	870.599975585938
1164.30721067904	871.200012207031
1164.98288443657	871.400024414063
1165.65847207367	873.200012207031
1166.33397359803	871
1167.00938901735	871
1167.6847183393	871.200012207031
1168.35996157157	871.400024414063
1169.03511872187	872.400024414063
1169.71018979787	872.799987792969
1170.38517480726	871
1171.06007375773	870.400024414063
1171.73488665696	871
1172.40961351265	870.599975585938
1173.08425433247	871.599975585938
1173.75880912412	872
1174.43327789528	871
1175.10766065364	872
1175.78195740687	871.200012207031
1176.45616816267	871.200012207031
1177.13029292871	871.599975585938
1177.80433171269	871.599975585938
1178.47828452229	872
1179.15215136518	872
1179.82593224905	871.599975585938
1180.49962718159	871
1181.17323617047	871.599975585938
1181.84675922337	872.799987792969
1182.52019634799	872.799987792969
1183.193547552	871.200012207031
1183.86681284307	871.200012207031
1184.53999222889	873.599975585938
1185.21308571714	872.400024414063
1185.8860933155	871.200012207031
1186.55901503165	871.400024414063
1187.23185087326	873.599975585938
1187.90460084802	871
1188.5772649636	870
1189.24984322768	872
1189.92233564794	873.400024414063
1190.59474223206	871.799987792969
1191.2670629877	874
1191.93929792255	871.799987792969
1192.61144704428	871.599975585938
1193.28351036058	873
1193.9554878791	872.599975585938
1194.62737960754	872
1195.29918555356	871.799987792969
1195.97090572483	873
1196.64254012903	873.400024414063
1197.31408877384	873.599975585938
1197.98555166693	873.599975585938
1198.65692881596	873
1199.32822022862	873.200012207031
1199.99942591256	871
1200.67054587548	872.799987792969
1201.34158012503	871.799987792969
1202.01252866889	874.200012207031
1202.68339151473	874.599975585938
1203.35416867021	872
1204.02486014301	873.599975585938
1204.6954659408	875.400024414063
1205.36598607124	875
1206.03642054201	873.799987792969
1206.70676936078	873.200012207031
1207.3770325352	872
1208.04721007295	873.799987792969
1208.7173019817	873.599975585938
1209.38730826911	874
1210.05722894285	874.400024414063
1210.72706401059	873.400024414063
1211.39681347999	875
1212.06647735872	872
1212.73605565444	873.599975585938
1213.40554837481	875.200012207031
1214.07495552751	875
1214.74427712019	873.799987792969
1215.41351316052	873.799987792969
1216.08266365617	874.599975585938
1216.75172861479	876.400024414063
1217.42070804405	875.200012207031
1218.0896019516	873.200012207031
1218.75841034513	875
1219.42713323227	876.200012207031
1220.0957706207	877
1220.76432251808	875
1221.43278893207	876.200012207031
1222.10116987032	874.200012207031
1222.7694653405	876.400024414063
1223.43767535026	875.799987792969
1224.10579990727	873.799987792969
1224.77383901918	876.200012207031
1225.44179269366	876.799987792969
1226.10966093835	876
1226.77744376093	872.799987792969
1227.44514116904	874.599975585938
1228.11275317034	873.799987792969
1228.78027977249	875
1229.44772098315	874.400024414063
1230.11507680996	876.799987792969
1230.7823472606	875
1231.44953234271	873.400024414063
1232.11663206394	875.799987792969
1232.78364643195	877.400024414063
1233.4505754544	874.200012207031
1234.11741913894	875.799987792969
1234.78417749322	875.799987792969
1235.45085052489	877
1236.11743824162	876.599975585938
1236.78394065104	876
1237.45035776082	875.400024414063
1238.1166895786	876.799987792969
1238.78293611204	875.200012207031
1239.44909736878	873.200012207031
1240.11517335648	874.400024414063
1240.78116408279	875.200012207031
1241.44706955535	876
1242.11288978182	874.799987792969
1242.77862476985	875.400024414063
1243.44427452708	876.599975585938
1244.10983906116	874.400024414063
1244.77531837974	875.200012207031
1245.44071249047	874.400024414063
1246.106021401	875.799987792969
1246.77124511898	875.799987792969
1247.43638365204	874.400024414063
1248.10143700783	874.200012207031
1248.76640519401	877.799987792969
1249.43128821822	876
1250.0960860881	875.400024414063
1250.76079881129	874.599975585938
1251.42542639545	875.799987792969
1252.08996884822	876
1252.75442617723	872.400024414063
1253.41879839014	875.200012207031
1254.08308549458	874.200012207031
1254.74728749821	872.599975585938
1255.41140440866	876.799987792969
1256.07543623357	875.599975585938
1256.73938298059	874
1257.40324465735	873.799987792969
1258.0670212715	875.200012207031
1258.73071283068	874
1259.39431934253	874
1260.05784081468	874.200012207031
1260.72127725479	874
1261.38462867049	874
1262.0478950694	874.599975585938
1262.71107645919	876.200012207031
1263.37417284748	873.799987792969
1264.03718424191	873.799987792969
1264.70011065011	875.200012207031
1265.36295207974	874
1266.02570853841	874.200012207031
1266.68838003378	874.200012207031
1267.35096657346	872.400024414063
1268.01346816511	873.599975585938
1268.67588481636	875.599975585938
1269.33821653483	874.400024414063
1270.00046332817	875.200012207031
1270.66262520401	874.799987792969
1271.32470216998	874
1271.98669423372	873.799987792969
1272.64860140285	872.599975585938
1273.31042368503	875
1273.97216108786	874
1274.633813619	873.400024414063
1275.29538128606	873.400024414063
1275.95686409669	875
1276.6182620585	874.200012207031
1277.27957517914	872.799987792969
1277.94080346624	871.799987792969
1278.60194692741	875
1279.2630055703	873.400024414063
1279.92397940253	874.799987792969
1280.58486843173	873.599975585938
1281.24567266552	872.599975585938
1281.90639211155	872.599975585938
1282.56702677743	874.599975585938
1283.2275766708	872
1283.88804179927	874.400024414063
1284.54842217049	873.400024414063
1285.20871779206	873.599975585938
1285.86892867163	873
1286.52905481681	873.200012207031
1287.18909623523	874.400024414063
1287.84905293452	875.400024414063
1288.5089249223	872.799987792969
1289.16871220619	873.200012207031
1289.82841479383	875.599975585938
1290.48803269282	876.400024414063
1291.1475659108	874.799987792969
1291.80701445539	871.599975585938
1292.46637833421	873.599975585938
1293.12565755489	873.400024414063
1293.78485212504	873.799987792969
1294.44396205229	874
1295.10298734425	875
1295.76192800856	876.200012207031
1296.42078405283	874.599975585938
1297.07955548467	874.400024414063
1297.73824231171	875.799987792969
1298.39684454158	874.400024414063
1299.05536218188	874.599975585938
1299.71379524023	875.599975585938
1300.37214372427	874.799987792969
1301.03040764159	874
1301.68858699983	876
1302.34668180659	876.599975585938
1303.0046920695	874
1303.66261779617	875.599975585938
1304.32045899422	873.400024414063
1304.97821567126	876.400024414063
1305.63588783492	876.799987792969
1306.29347549279	873.400024414063
1306.95097865251	875.200012207031
1307.60839732168	876.799987792969
1308.26573150791	878
1308.92298121883	876
1309.58014646204	876.400024414063
1310.23722724517	877.599975585938
1310.89422357581	874
1311.55113546158	874.400024414063
1312.2079629101	874
1312.86470592898	877.599975585938
1313.52136452582	876.799987792969
1314.17793870824	876.200012207031
1314.83442848386	876.200012207031
1315.49083386027	877
1316.14715484509	877.799987792969
1316.80339144594	879.799987792969
1317.45954367041	876.599975585938
1318.11561152611	879.599975585938
1318.77159502067	878.599975585938
1319.42749416168	877
1320.08330895674	874
1320.73903941348	873.400024414063
1321.3946855395	876.200012207031
1322.0502473424	876.200012207031
1322.70572482978	880
1323.36111800926	878.200012207031
1324.01642688845	874.599975585938
1324.67165147494	875.799987792969
1325.32679177634	877.200012207031
1325.98184780025	876.599975585938
1326.63681955429	875
1327.29170704605	876.400024414063
1327.94651028314	876.200012207031
1328.60122927316	876.200012207031
1329.25586402371	878
1329.9104145424	878.599975585938
1330.56488083683	876.799987792969
1331.2192629146	876.599975585938
1331.87356078331	876.400024414063
1332.52777445056	878.200012207031
1333.18190392395	880
1333.83594921109	876.200012207031
1334.48991031958	877.799987792969
1335.143787257	878.200012207031
1335.79758003097	878.400024414063
1336.45128864908	878.200012207031
1337.10491311893	877.200012207031
1337.75845344813	877.799987792969
1338.41190964425	875
1339.06528171491	879.200012207031
1339.71856966771	877.400024414063
1340.37177351023	878
1341.02489325007	878.200012207031
1341.67792889484	876.400024414063
1342.33088045212	877.799987792969
1342.98374792952	878
1343.63653133462	874.400024414063
1344.28923067503	878
1344.94184595833	874.599975585938
1345.59437719212	875.799987792969
1346.246824384	877
1346.89918754155	875.799987792969
1347.55146667238	877.799987792969
1348.20366178407	878
1348.85577288421	879
1349.50779998041	876
1350.15974308024	876.200012207031
1350.8116021913	875.200012207031
1351.46337732119	875.599975585938
1352.11506847748	877.599975585938
1352.76667566778	878.400024414063
1353.41819889967	877
1354.06963818074	880
1354.72099351858	875.599975585938
1355.37226492079	876.599975585938
1356.02345239494	877.400024414063
1356.67455594862	877.799987792969
1357.32557558943	878.799987792969
1357.97651132496	876
1358.62736316277	875.599975585938
1359.27813111048	877.400024414063
1359.92881517565	877.799987792969
1360.57941536589	878
1361.22993168876	879.400024414063
1361.88036415186	876
1362.53071276278	878
1363.1809775291	878.799987792969
1363.8311584584	878
1364.48125555826	876
1365.13126883627	875.599975585938
1365.78119830001	878.799987792969
1366.43104395707	875.400024414063
1367.08080581503	876.200012207031
1367.73048388147	877.400024414063
1368.38007816397	876.200012207031
1369.02958867011	875.200012207031
1369.67901540748	876.599975585938
1370.32835838365	876
1370.9776176062	875
1371.62679308273	876.400024414063
1372.27588482079	877.599975585938
1372.92489282798	876
1373.57381711188	877.400024414063
1374.22265768006	878.400024414063
1374.87141454009	874.599975585938
1375.52008769957	877.799987792969
1376.16867716606	878.200012207031
1376.81718294715	878
1377.4656050504	876
1378.1139434834	877.799987792969
1378.76219825373	878.200012207031
1379.41036936895	877.799987792969
1380.05845683664	879
1380.70646066439	875.400024414063
1381.35438085976	878.400024414063
1382.00221743032	880
1382.64997038366	879
1383.29763972735	877.599975585938
1383.94522546895	878.599975585938
1384.59272761605	878.799987792969
1385.24014617621	877.799987792969
1385.88748115701	878.200012207031
1386.53473256602	878
1387.18190041081	877.400024414063
1387.82898469895	878.599975585938
1388.47598543802	879.200012207031
1389.12290263558	876.200012207031
1389.7697362992	876.400024414063
1390.41648643646	878.200012207031
1391.06315305492	874.400024414063
1391.70973616215	878.200012207031
1392.35623576573	880
1393.00265187321	878.799987792969
1393.64898449217	877
1394.29523363018	879.200012207031
1394.94139929481	878.200012207031
1395.58748149361	878.799987792969
1396.23348023415	880
1396.87939552402	877.599975585938
1397.52522737076	878.400024414063
1398.17097578195	878
1398.81664076514	876.599975585938
1399.46222232792	876.400024414063
1400.10772047783	877.400024414063
1400.75313522245	876.599975585938
1401.39846656934	878.400024414063
1402.04371452605	879.799987792969
1402.68887910016	879.799987792969
1403.33396029924	879
1403.97895813083	881
1404.6238726025	879.400024414063
1405.26870372182	879.799987792969
1405.91345149634	881.400024414063
1406.55811593363	879.400024414063
1407.20269704125	878.799987792969
1407.84719482676	879.799987792969
1408.49160929772	880.200012207031
1409.13594046168	880.200012207031
1409.78018832622	878.799987792969
1410.42435289887	881.599975585938
1411.06843418722	881.799987792969
1411.7124321988	880.799987792969
1412.3563469412	880.400024414063
1413.00017842194	882.200012207031
1413.64392664861	881.799987792969
1414.28759162875	881.200012207031
1414.93117336992	880.400024414063
1415.57467187967	882.799987792969
1416.21808716557	883.400024414063
1416.86141923516	881
1417.50466809601	882.799987792969
1418.14783375567	884.799987792969
1418.79091622169	883.400024414063
1419.43391550162	883.599975585938
1420.07683160303	885.200012207031
1420.71966453346	885.200012207031
1421.36241430046	884
1422.0050809116	883.599975585938
1422.64766437442	885
1423.29016469647	887.599975585938
1423.93258188531	887.200012207031
1424.57491594848	886.400024414063
1425.21716689354	886.799987792969
1425.85933472805	884.400024414063
1426.50141945954	887
1427.14342109557	887.200012207031
1427.78533964369	886.400024414063
1428.42717511144	884.799987792969
1429.06892750639	886.400024414063
1429.71059683607	886.200012207031
1430.35218310803	887.799987792969
1430.99368632983	886.599975585938
1431.635106509	885.400024414063
1432.2764436531	890
1432.91769776967	890.599975585938
1433.55886886627	885.200012207031
1434.19995695043	889.200012207031
1434.84096202969	889.400024414063
1435.48188411162	890.200012207031
1436.12272320375	887.799987792969
1436.76347931363	893
1437.40415244879	890
1438.0447426168	890.200012207031
1438.68524982518	890
1439.32567408148	890.799987792969
1439.96601539325	890.599975585938
1440.60627376803	890.400024414063
1441.24644921336	891
1441.88654173678	892.200012207031
1442.52655134583	891.799987792969
1443.16647804806	890.200012207031
1443.806321851	890
1444.4460827622	888.200012207031
1445.0857607892	892
1445.72535593953	889.400024414063
1446.36486822074	889.799987792969
1447.00429764037	890.400024414063
1447.64364420595	887.799987792969
1448.28290792502	889.799987792969
1448.92208880512	887.599975585938
1449.56118685379	888.799987792969
1450.20020207857	889
1450.83913448699	887.599975585938
1451.47798408659	889.400024414063
1452.1167508849	887.200012207031
1452.75543488947	889.799987792969
1453.39403610782	887.599975585938
1454.0325545475	886
1454.67099021603	886.599975585938
1455.30934312097	883.200012207031
1455.94761326982	884.599975585938
1456.58580067014	885.599975585938
1457.22390532945	886.400024414063
1457.86192725529	885
1458.49986645519	887.799987792969
1459.13772293668	887
1459.7754967073	886.400024414063
1460.41318777457	883.599975585938
1461.05079614604	883.200012207031
1461.68832182922	883.799987792969
1462.32576483166	881.200012207031
1462.96312516087	882.799987792969
1463.6004028244	884
1464.23759782977	880.400024414063
1464.8747101845	881
1465.51173989614	887
1466.14868697221	882.200012207031
1466.78555142024	882.400024414063
1467.42233324774	881.599975585938
1468.05903246227	880.200012207031
1468.69564907133	879.799987792969
1469.33218308246	878.799987792969
1469.96863450317	880
1470.60500334102	881
1471.2412896035	879
1471.87749329816	880.799987792969
1472.51361443251	880.799987792969
1473.14965301409	879.799987792969
1473.78560905041	881
1474.421482549	880.200012207031
1475.05727351739	880.200012207031
1475.69298196309	880.799987792969
1476.32860789364	880.200012207031
1476.96415131654	878.599975585938
1477.59961223934	881
1478.23499066954	878.400024414063
1478.87028661467	879.599975585938
1479.50550008226	880.599975585938
1480.14063107981	879.200012207031
1480.77567961486	881.200012207031
1481.41064569492	880.799987792969
1482.04552932752	878.599975585938
1482.68033052017	879.400024414063
1483.31504928039	877.400024414063
1483.9496856157	881.400024414063
1484.58423953363	880.599975585938
1485.21871104168	880.599975585938
1485.85310014738	879.599975585938
1486.48740685824	879
1487.12163118178	880.400024414063
1487.75577312553	879.799987792969
1488.38983269698	878.799987792969
1489.02380990367	879.799987792969
1489.65770475311	878
1490.29151725281	876.599975585938
1490.92524741029	881.200012207031
1491.55889523306	877
1492.19246072863	878.799987792969
1492.82594390453	879.400024414063
1493.45934476826	878.599975585938
1494.09266332734	878
1494.72589958928	879.599975585938
1495.3590535616	879.400024414063
1495.99212525181	877.599975585938
1496.62511466741	878.799987792969
1497.25802181592	881
1497.89084670485	878.200012207031
1498.52358934172	879.599975585938
1499.15624973403	877.599975585938
1499.7888278893	879.599975585938
1500.42132381503	879.400024414063
1501.05373751873	877.799987792969
1501.68606900792	881
1502.31831829009	877.400024414063
1502.95048537277	877
1503.58257026346	877
1504.21457296966	877
1504.84649349889	878.799987792969
1505.47833185864	878
1506.11008805644	879.799987792969
1506.74176209978	879.200012207031
1507.37335399617	879.799987792969
1508.00486375312	878
1508.63629137813	879.599975585938
1509.2676368787	878.799987792969
1509.89890026235	878.799987792969
1510.53008153658	878.400024414063
1511.16118070889	877.599975585938
1511.79219778677	878.599975585938
1512.42313277775	878.200012207031
1513.05398568932	881.200012207031
1513.68475652898	879.200012207031
1514.31544530424	879.200012207031
1514.9460520226	878.200012207031
1515.57657669155	879.200012207031
1516.20701931861	878.400024414063
1516.83737991127	879.799987792969
1517.46765847702	881.400024414063
1518.09785502339	880
1518.72796955785	882.400024414063
1519.35800208792	878.400024414063
1519.98795262109	880
1520.61782116486	879.400024414063
1521.24760772673	879.400024414063
1521.87731231419	880.799987792969
1522.50693493475	881.200012207031
1523.1364755959	881.799987792969
1523.76593430514	878.599975585938
1524.39531106997	878.200012207031
1525.02460589788	876.799987792969
1525.65381879637	878.200012207031
1526.28294977293	878
1526.91199883507	879.400024414063
1527.54096599027	877.400024414063
1528.16985124603	878.799987792969
1528.79865460984	878.400024414063
1529.4273760892	876.200012207031
1530.05601569161	877.200012207031
1530.68457342455	875.200012207031
1531.31304929552	878.200012207031
1531.94144331201	879
1532.56975548151	875.599975585938
1533.19798581152	877
1533.82613430953	877.799987792969
1534.45420098302	879
1535.08218583949	877.400024414063
1535.71008888643	877.200012207031
1536.33791013134	875
1536.96564958169	876.599975585938
1537.59330724498	877.200012207031
1538.22088312871	874.599975585938
1538.84837724034	877.599975585938
1539.47578958739	877.200012207031
1540.10312017733	876.799987792969
1540.73036901765	877.799987792969
1541.35753611584	876.799987792969
1541.98462147939	877
1542.61162511578	876.599975585938
1543.2385470325	876
1543.86538723704	876.200012207031
1544.49214573688	875.799987792969
1545.11882253951	874.599975585938
1545.74541765241	875.799987792969
1546.37193108306	876.599975585938
1546.99836283896	876.200012207031
1547.62471292758	876
1548.25098135641	877.400024414063
1548.87716813294	876.400024414063
1549.50327326464	872
1550.12929675899	876.400024414063
1550.75523862349	874
1551.38109886561	875.599975585938
1552.00687749284	872.799987792969
1552.63257451264	875.400024414063
1553.25818993252	876
1553.88372375994	877
1554.50917600239	878.200012207031
1555.13454666734	875.200012207031
1555.75983576228	875
1556.38504329469	874.200012207031
1557.01016927204	874.599975585938
1557.63521370181	874.200012207031
1558.26017659149	873.799987792969
1558.88505794854	875.599975585938
1559.50985778045	875.799987792969
1560.13457609469	872.799987792969
1560.75921289874	874.400024414063
1561.38376820008	874.799987792969
1562.00824200618	873.599975585938
1562.63263432452	873.400024414063
1563.25694516257	872.799987792969
1563.88117452781	874.200012207031
1564.50532242772	874.799987792969
1565.12938886976	874.400024414063
1565.75337386141	873.200012207031
1566.37727741015	873.200012207031
1567.00109952345	873.400024414063
1567.62484020878	874.200012207031
1568.24849947361	875.799987792969
1568.87207732542	874.799987792969
1569.49557377168	873.200012207031
1570.11898881986	875.599975585938
1570.74232247743	876
1571.36557475186	877.400024414063
1571.98874565062	874.599975585938
1572.61183518119	876.799987792969
1573.23484335103	876.400024414063
1573.85777016761	874.599975585938
1574.4806156384	874
1575.10337977088	874.200012207031
1575.7260625725	875.200012207031
1576.34866405074	875.799987792969
1576.97118421306	873.200012207031
1577.59362306694	874.200012207031
1578.21598061984	875.599975585938
1578.83825687922	877.200012207031
1579.46045185255	875.599975585938
1580.08256554731	873.200012207031
1580.70459797094	873.400024414063
1581.32654913093	875
1581.94841903473	876.400024414063
1582.57020768981	875.200012207031
1583.19191510364	874.799987792969
1583.81354128367	876
1584.43508623737	873.599975585938
1585.05654997221	872.799987792969
1585.67793249564	874
1586.29923381514	875.200012207031
1586.92045393815	876
1587.54159287216	875.799987792969
1588.1626506246	875
1588.78362720296	875.799987792969
1589.40452261468	875.400024414063
1590.02533686724	874.200012207031
1590.64606996808	876.200012207031
1591.26672192467	875.799987792969
1591.88729274447	875.200012207031
1592.50778243493	875.799987792969
1593.12819100352	872.599975585938
1593.7485184577	877.400024414063
1594.36876480492	875.599975585938
1594.98893005264	875.400024414063
1595.60901420832	874
1596.22901727941	876.400024414063
1596.84893927338	872.799987792969
1597.46878019767	876.799987792969
1598.08854005975	875.799987792969
1598.70821886707	877.400024414063
1599.32781662708	875.400024414063
1599.94733334725	875.200012207031
1600.56676903502	875.400024414063
1601.18612369785	875
1601.8053973432	876.599975585938
1602.42458997851	875.799987792969
1603.04370161124	878.400024414063
1603.66273224884	876
1604.28168189878	876
1604.90055056849	876.400024414063
1605.51933826543	875
1606.13804499705	874.200012207031
1606.75667077081	877.400024414063
1607.37521559415	877.599975585938
1607.99367947452	876.400024414063
1608.61206241938	878.400024414063
1609.23036443618	878.200012207031
1609.84858553236	876.400024414063
1610.46672571537	878.599975585938
1611.08478499267	879
1611.7027633717	878.799987792969
1612.3206608599	878.200012207031
1612.93847746473	876.799987792969
1613.55621319364	876.599975585938
1614.17386805407	877
1614.79144205347	879
1615.40893519928	879.400024414063
1616.02634749895	876
1616.64367895993	878
1617.26092958966	877.599975585938
1617.87809939559	877
1618.49518838516	877
1619.11219656582	874.599975585938
1619.729123945	878.799987792969
1620.34597053016	877.799987792969
1620.96273632874	875.200012207031
1621.57942134818	878.200012207031
1622.19602559592	875.799987792969
1622.8125490794	876.200012207031
1623.42899180607	875.799987792969
1624.04535378337	873.400024414063
1624.66163501874	875.200012207031
1625.27783551963	874.200012207031
1625.89395529346	875.200012207031
1626.50999434768	876.599975585938
1627.12595268974	875.400024414063
1627.74183032707	873
1628.3576272671	872.200012207031
1628.97334351729	871.200012207031
1629.58897908506	873.200012207031
1630.20453397786	871.599975585938
1630.82000820313	871.599975585938
1631.43540176829	870.799987792969
1632.05071468079	872.400024414063
1632.66594694807	871.200012207031
1633.28109857756	870.400024414063
1633.8961695767	869.799987792969
1634.51115995292	870.200012207031
1635.12606971366	871
1635.74089886636	871
1636.35564741844	868.400024414063
1636.97031537734	870.400024414063
1637.58490275051	870.200012207031
1638.19940954536	871.400024414063
1638.81383576934	870.799987792969
1639.42818142987	869
1640.0424465344	870.400024414063
1640.65663109034	868.400024414063
1641.27073510515	870
1641.88475858623	871.400024414063
1642.49870154104	871
1643.11256397699	868.200012207031
1643.72634590152	870
1644.34004732206	870.200012207031
1644.95366824604	868.799987792969
1645.56720868089	870
1646.18066863404	867.599975585938
1646.79404811291	867.799987792969
1647.40734712494	870.599975585938
1648.02056567755	868.599975585938
1648.63370377817	871
1649.24676143423	869
1649.85973865316	868.799987792969
1650.47263544238	868
1651.08545180932	868.799987792969
1651.6981877614	867
1652.31084330606	869.200012207031
1652.92341845071	869.799987792969
1653.53591320278	867.799987792969
1654.1483275697	869.400024414063
1654.7606615589	868.200012207031
1655.37291517778	867.799987792969
1655.98508843379	869.200012207031
1656.59718133434	868.200012207031
1657.20919388685	869
1657.82112609875	869.599975585938
1658.43297797747	869.200012207031
1659.04474953041	868.599975585938
1659.65644076501	870.799987792969
1660.26805168869	867.799987792969
1660.87958230886	867.799987792969
1661.49103263294	867.200012207031
1662.10240266837	870
1662.71369242255	866.799987792969
1663.32490190291	867.200012207031
1663.93603111687	868
1664.54708007184	868
1665.15804877524	868.799987792969
1665.7689372345	867.400024414063
1666.37974545703	867.200012207031
1666.99047345024	866.599975585938
1667.60112122156	868
1668.2116887784	866.400024414063
1668.82217612818	868.400024414063
1669.43258327831	867.400024414063
1670.04291023622	868.799987792969
1670.65315700931	866.599975585938
1671.263323605	866.400024414063
1671.8734100307	867
1672.48341629384	866.400024414063
1673.09334240182	866.400024414063
1673.70318836206	867.200012207031
1674.31295418197	868.799987792969
1674.92263986896	868.400024414063
1675.53224543046	867.200012207031
1676.14177087386	867.200012207031
1676.75121620658	867.799987792969
1677.36058143604	867.200012207031
1677.96986656964	865.799987792969
1678.5790716148	865.799987792969
1679.18819657892	867.799987792969
1679.79724146943	867
1680.40620629372	866.599975585938
1681.0150910592	868.599975585938
1681.6238957733	865.799987792969
1682.23262044341	867.400024414063
1682.84126507694	868.200012207031
1683.4498296813	867
1684.0583142639	868.200012207031
1684.66671883216	867.400024414063
1685.27504339346	867.200012207031
1685.88328795523	866.799987792969
1686.49145252487	866
1687.09953710978	867
1687.70754171737	865.599975585938
1688.31546635505	868.400024414063
1688.92331103021	866.599975585938
1689.53107575028	865.799987792969
1690.13876052265	865.200012207031
1690.74636535472	867
1691.3538902539	866.599975585938
1691.96133522759	865.799987792969
1692.5687002832	866.799987792969
1693.17598542812	866.400024414063
1693.78319066977	865.799987792969
1694.39031601554	865.799987792969
1694.99736147283	866
1695.60432704905	866.400024414063
1696.2112127516	867
1696.81801858788	867.200012207031
1697.42474456528	865.799987792969
1698.03139069121	866.400024414063
1698.63795697307	866.200012207031
1699.24444341826	867.599975585938
1699.85085003417	868
1700.45717682821	866
1701.06342380778	866.599975585938
1701.66959098026	865.200012207031
1702.27567835307	868
1702.88168593359	865.599975585938
1703.48761372922	866.200012207031
1704.09346174737	865.599975585938
1704.69922999542	867
1705.30491848077	865.799987792969
1705.91052721083	864.799987792969
1706.51605619297	866.799987792969
1707.12150543461	866.400024414063
1707.72687494312	866.200012207031
1708.33216472592	867.400024414063
1708.93737479039	865
1709.54250514392	865.400024414063
