634.977642221345	975.799987792969
635.719821695905	972.799987792969
636.461909203392	974.200012207031
637.203904751776	972.599975585938
637.945808349023	974.599975585938
638.687620003102	976.599975585938
639.42933972198	980.400024414063
640.170967513616	973.799987792969
640.912503385981	975.200012207031
641.653947347041	976.200012207031
642.395299404758	967
643.13655956709	971.799987792969
643.877727842014	972
644.61880423748	965.599975585938
645.359788761455	967.599975585938
646.100681421905	964.400024414063
646.841482226789	966.200012207031
647.582191184074	969.799987792969
648.322808301711	969.799987792969
649.06333358767	974.200012207031
649.803767049909	970.400024414063
650.544108696385	974
651.28435853506	979
652.024516573894	973.400024414063
652.764582820849	981.799987792969
653.504557283875	978.200012207031
654.244439970937	977.200012207031
654.984230889991	978.799987792969
655.723930048995	981.200012207031
656.463537455909	977.799987792969
657.203053118683	974.200012207031
657.942477045275	979
658.681809243647	977
659.421049721747	972.200012207031
660.160198487535	973
660.899255548962	975.599975585938
661.638220913985	981.799987792969
662.377094590559	983.200012207031
663.115876586631	982.799987792969
663.854566910165	987.200012207031
664.593165569107	977
665.331672571406	981.599975585938
666.07008792502	982.200012207031
666.808411637902	988.200012207031
667.546643717996	985.599975585938
668.284784173258	982
669.022833011641	983
669.760790241089	978.799987792969
670.498655869554	981.200012207031
671.236429904987	988.799987792969
671.97411235534	986
672.711703228551	995.200012207031
673.449202532577	993.200012207031
674.186610275364	987.599975585938
674.923926464857	989.799987792969
675.661151109008	985.599975585938
676.398284215759	986.200012207031
677.135325793058	988.799987792969
677.87227584885	991.400024414063
678.609134391082	995.200012207031
679.345901427696	991.599975585938
680.082576966644	982
680.819161015861	991.200012207031
681.555653583298	989.400024414063
682.292054676895	990
683.028364304594	983.200012207031
683.764582474344	988
684.500709194083	983.200012207031
685.236744471752	985.599975585938
685.972688315294	988.799987792969
686.708540732652	984.400024414063
687.444301731762	987.799987792969
688.179971320572	985.400024414063
688.915549507013	976.799987792969
689.651036299034	973.599975585938
690.386431704569	976.799987792969
691.121735731559	975.599975585938
691.85694838794	975.400024414063
692.592069681652	976.599975585938
693.327099620632	978
694.062038212821	972
694.796885466149	976.799987792969
695.531641388561	976.400024414063
696.266305987987	974
697.000879272367	974.599975585938
697.735361249632	969.200012207031
698.469751927722	969.400024414063
699.204051314568	971
699.938259418107	968.599975585938
700.672376246272	970.599975585938
701.406401806997	971.799987792969
702.140336108212	970.799987792969
702.874179157855	968.599975585938
703.607930963856	970
704.341591534147	963.799987792969
705.07516087666	972.200012207031
705.808638999324	963.200012207031
706.542025910073	965.799987792969
707.275321616841	967.400024414063
708.008526127549	966.599975585938
708.741639450132	970.599975585938
709.474661592521	968.799987792969
710.207592562641	971.799987792969
710.940432368424	969.400024414063
711.673181017796	970.599975585938
712.405838518687	968
713.138404879025	968.799987792969
713.870880106731	966.799987792969
714.603264209738	966.599975585938
715.335557195971	969
716.067759073357	969.599975585938
716.799869849816	970.799987792969
717.531889533281	967.200012207031
718.263818131673	967
718.995655652917	963.799987792969
719.727402104934	959.599975585938
720.45905749565	965.400024414063
721.19062183299	962
721.922095124877	961.400024414063
722.653477379231	969
723.384768603973	964.599975585938
724.11596880703	967
724.847077996319	969.400024414063
725.578096179762	967.799987792969
726.309023365281	964.599975585938
727.039859560792	969.799987792969
727.770604774222	969.599975585938
728.501259013484	964.200012207031
729.231822286501	972
729.962294601191	967.799987792969
730.692675965469	968.400024414063
731.42296638726	960.200012207031
732.153165874472	968.599975585938
732.883274435032	964
733.613292076851	965.400024414063
734.343218807843	962.599975585938
735.07305463593	960.400024414063
735.802799569028	966.599975585938
736.532453615048	967.400024414063
737.262016781904	972.400024414063
737.991489077517	965
738.720870509794	969.400024414063
739.450161086654	971.400024414063
740.179360816009	975.400024414063
740.908469705772	965.200012207031
741.637487763854	966.799987792969
742.366414998168	962.599975585938
743.095251416623	960.799987792969
743.823997027137	960.200012207031
744.552651837618	956.400024414063
745.281215855978	959.200012207031
746.009689090124	959
746.738071547964	960.599975585938
747.466363237419	960.400024414063
748.194564166384	962.599975585938
748.92267434278	959
749.650693774504	961.200012207031
750.378622469476	960
751.106460435596	967.799987792969
751.834207680771	967.400024414063
752.561864212909	966.200012207031
753.289430039919	970.599975585938
754.016905169707	968.400024414063
754.744289610175	971.799987792969
755.471583369231	968.799987792969
756.198786454782	960
756.925898874728	968.799987792969
757.652920636979	968.799987792969
758.379851749433	967.400024414063
759.106692219996	964
759.833442056572	966.599975585938
760.560101267063	965
761.28666985937	970
762.0131478414	967.200012207031
762.739535221046	962.200012207031
763.465832006219	968
764.192038204812	968.799987792969
764.918153824731	965
765.644178873872	964.799987792969
766.370113360138	967.599975585938
767.095957291425	966.400024414063
767.821710675635	961.799987792969
768.547373520665	963.799987792969
769.272945834415	968.599975585938
769.998427624781	970.599975585938
770.723818899658	972.799987792969
771.449119666949	967.599975585938
772.174329934546	975.400024414063
772.899449710347	972.200012207031
773.624479002248	969.599975585938
774.349417818145	972.200012207031
775.074266165934	973
775.799024053505	972
776.523691488757	971.799987792969
777.248268479582	966
777.972755033877	971.599975585938
778.69715115953	970.200012207031
779.421456864441	966.599975585938
780.145672156493	962
780.869797043587	971
781.593831533611	974.599975585938
782.317775634457	970.400024414063
783.041629354012	972.400024414063
783.765392700174	968.200012207031
784.489065680828	965.799987792969
785.212648303866	966.799987792969
785.936140577177	968
786.659542508652	963.400024414063
787.382854106174	969.200012207031
788.106075377639	973.799987792969
788.829206330928	971.200012207031
789.552246973933	973.200012207031
790.275197314542	971.400024414063
790.998057360638	975.200012207031
791.720827120108	971.799987792969
792.443506600841	973.799987792969
793.166095810722	968.400024414063
793.888594757635	969
794.611003449465	970.200012207031
795.333321894098	972.799987792969
796.055550099417	971.400024414063
796.777688073308	970.400024414063
797.499735823654	970.599975585938
798.221693358334	973.599975585938
798.943560685235	975.799987792969
799.665337812239	978.599975585938
800.387024747226	972.200012207031
801.108621498075	971.200012207031
801.830128072674	972.400024414063
802.551544478902	974.599975585938
803.272870724636	973.799987792969
803.994106817761	968.200012207031
804.715252766148	972.799987792969
805.436308577687	967.599975585938
806.157274260251	971.799987792969
806.878149821721	966.200012207031
807.598935269973	972.200012207031
808.319630612886	976.200012207031
809.040235858336	973.799987792969
809.760751014202	969
810.481176088361	967
811.201511088685	967.400024414063
811.921756023059	969.799987792969
812.641910899347	975.200012207031
813.361975725432	963.799987792969
814.081950509188	968
814.801835258489	971.799987792969
815.521629981206	970.599975585938
816.241334685218	975.200012207031
816.960949378392	977.799987792969
817.680474068606	973.200012207031
818.399908763731	974.599975585938
819.11925347164	970.599975585938
819.838508200202	971.200012207031
820.55767295729	971.599975585938
821.276747750778	967.799987792969
821.995732588531	968.200012207031
822.714627478425	971.799987792969
823.433432428327	973.599975585938
824.152147446105	973.400024414063
824.870772539632	976.400024414063
825.589307716775	972.200012207031
826.307752985404	974.599975585938
827.026108353378	977.400024414063
827.744373828579	973.599975585938
828.462549418867	970.599975585938
829.180635132107	976.799987792969
829.898630976168	974.799987792969
830.616536958915	972.400024414063
831.334353088218	970.799987792969
832.052079371938	974.599975585938
832.769715817942	971.799987792969
833.487262434092	972.799987792969
834.204719228255	962.799987792969
834.922086208293	965.400024414063
835.639363382073	966.200012207031
836.356550757456	968.599975585938
837.073648342304	969.200012207031
837.790656144484	967.799987792969
838.507574171847	973.799987792969
839.22440243227	975.799987792969
839.941140933601	976.799987792969
840.657789683706	971.799987792969
841.374348690448	973.200012207031
842.090817961686	974.200012207031
842.807197505276	971.799987792969
843.523487329083	970.400024414063
844.23968744096	973.400024414063
844.955797848771	975.400024414063
845.671818560374	972.599975585938
846.387749583622	966.400024414063
847.103590926378	965.400024414063
847.819342596497	967.400024414063
848.535004601833	969.200012207031
849.25057695025	962.400024414063
849.966059649598	962.799987792969
850.681452707735	967.599975585938
851.396756132513	966.799987792969
852.111969931789	966
852.827094113419	969.599975585938
853.542128685257	972
854.257073655158	968.799987792969
854.971929030969	975.400024414063
855.686694820551	975
856.40137103175	976.400024414063
857.115957672423	976.799987792969
857.830454750423	976.200012207031
858.544862273597	980
859.259180249797	976.799987792969
859.97340868688	976.200012207031
860.687547592688	976.400024414063
861.401596975075	969.599975585938
862.115556841891	971.799987792969
862.829427200985	975.799987792969
863.543208060205	975.799987792969
864.256899427402	978.799987792969
864.970501310423	974.200012207031
865.684013717114	979.599975585938
866.397436655325	974.799987792969
867.110770132901	975.400024414063
867.824014157691	971.599975585938
868.537168737542	974.599975585938
869.250233880299	972.599975585938
869.963209593803	971.599975585938
870.676095885902	971
871.388892764445	976
872.101600237276	970
872.814218312233	977.400024414063
873.526746997165	979.200012207031
874.239186299914	981.400024414063
874.951536228323	981.400024414063
875.663796790231	980.799987792969
876.375967993487	979
877.088049845928	981
877.8000423554	976
878.511945529739	978.400024414063
879.22375937679	977.400024414063
879.935483904388	977.599975585938
880.64711912038	978.200012207031
881.358665032604	979.400024414063
882.070121648892	983.599975585938
882.78148897709	977.200012207031
883.492767025039	982.599975585938
884.203955800571	982.599975585938
884.915055311525	982
885.626065565741	983.799987792969
886.336986571053	978.599975585938
887.047818335298	982.799987792969
887.758560866315	980.200012207031
888.469214171937	984.799987792969
889.179778260005	982.200012207031
889.890253138347	984.400024414063
890.600638814803	982.200012207031
891.310935297204	981.599975585938
892.021142593385	980.200012207031
892.731260711183	983.799987792969
893.441289658429	981.400024414063
894.15122944295	983.799987792969
894.861080072591	985.400024414063
895.570841555173	986.799987792969
896.280513898534	986.799987792969
896.990097110503	984.599975585938
897.699591198913	991
898.408996171595	992.400024414063
899.118312036375	987
899.827538801089	983.200012207031
900.536676473561	990
901.245725061628	990.599975585938
901.954684573109	986.799987792969
902.663555015838	977.200012207031
903.372336397644	982.799987792969
904.081028726351	981.200012207031
904.789632009793	982.799987792969
905.49814625579	980
906.20657147217	979.400024414063
906.914907666765	982.599975585938
907.623154847391	986.400024414063
908.331313021885	980
909.039382198064	983
909.747362383754	996.400024414063
910.455253586782	991.200012207031
911.163055814972	991.200012207031
911.870769076143	988.799987792969
912.578393378126	988.200012207031
913.285928728738	987.200012207031
913.993375135802	985.799987792969
914.700732607145	986.400024414063
915.408001150579	993.799987792969
916.115180773937	986.599975585938
916.822271485037	980.599975585938
917.529273291693	977.599975585938
918.236186201733	980.200012207031
918.943010222971	986.599975585938
919.649745363234	984
920.356391630333	979.400024414063
921.062949032096	982.599975585938
921.769417576333	982.799987792969
922.475797270864	977.799987792969
923.182088123512	977
923.888290142089	979.799987792969
924.594403334414	981.799987792969
925.300427708304	983.200012207031
926.006363271572	986.400024414063
926.712210032039	984.599975585938
927.417967997522	986.200012207031
928.123637175827	981.599975585938
928.829217574776	976.599975585938
929.534709202184	978.400024414063
930.240112065859	978.400024414063
930.945426173621	979.599975585938
931.650651533283	979.200012207031
932.355788152653	977.599975585938
933.060836039547	984.400024414063
933.765795201776	986
934.470665647153	984.799987792969
935.175447383492	985.599975585938
935.880140418599	988
936.584744760286	989.200012207031
937.289260416366	986.400024414063
937.993687394647	992.400024414063
938.698025702939	990.400024414063
939.402275349051	982.799987792969
940.106436340793	985
940.810508685976	985
941.5144923924	986.200012207031
942.21838746788	980.400024414063
942.922193920223	985
943.625911757231	983
944.329540986716	986
945.033081616484	987.400024414063
945.736533654334	982
946.439897108083	983
947.143171985529	983.400024414063
947.846358294477	981.599975585938
948.549456042732	985
949.2524652381	982
949.955385888382	985.400024414063
950.658218001384	981.400024414063
951.360961584907	976.400024414063
952.063616646755	979.400024414063
952.766183194733	979.799987792969
953.468661236636	977.200012207031
954.171050780271	970.400024414063
954.873351833437	973.799987792969
955.575564403935	976.400024414063
956.277688499565	977.200012207031
956.97972412813	975
957.681671297424	979
958.383530015255	981.799987792969
959.085300289414	975
959.786982127703	975.200012207031
960.488575537918	977.200012207031
961.190080527859	977.200012207031
961.891497105327	982.599975585938
962.592825278111	983.599975585938
963.294065054012	984.400024414063
963.995216440829	978.200012207031
964.696279446353	987.799987792969
965.397254078383	986.599975585938
966.098140344714	986.799987792969
966.798938253139	984.400024414063
967.499647811456	980
968.200269027458	980.799987792969
968.900801908937	981.200012207031
969.601246463685	980.599975585938
970.3016026995	979.799987792969
971.001870624169	980.799987792969
971.702050245491	983
972.402141571249	981.799987792969
973.102144609245	983.799987792969
973.802059367267	984.400024414063
974.501885853103	978.799987792969
975.201624074541	982
975.901274039379	983.599975585938
976.600835755399	983.799987792969
977.3003092304	980.200012207031
977.999694472158	982.400024414063
978.698991488473	981.599975585938
979.39820028713	975
980.097320875915	980.799987792969
980.796353262618	980
981.495297455024	983
982.194153460919	983
982.892921288093	985.799987792969
983.591600944331	982.799987792969
984.290192437419	984.599975585938
984.98869577514	981.799987792969
985.687110965282	979
986.385438015629	980
987.083676933961	982.200012207031
987.781827728069	979.200012207031
988.479890405732	976.599975585938
989.177864974732	973.200012207031
989.875751442857	973.200012207031
990.573549817888	978.200012207031
991.271260107602	980.599975585938
991.968882319786	981.799987792969
992.666416462217	975.200012207031
993.363862542681	976
994.061220568959	976.200012207031
994.758490548823	978.200012207031
995.455672490061	981.200012207031
996.152766400451	984.400024414063
996.849772287773	983.400024414063
997.5466901598	979.400024414063
998.243520024317	977
998.940261889097	980.599975585938
999.636915761923	982
1000.33348165057	978.400024414063
1001.02995956281	979
1001.72634950643	978.200012207031
1002.42265148919	984.400024414063
1003.11886551889	980
1003.81499160328	982.799987792969
1004.51102975015	987.200012207031
1005.20697996727	981.599975585938
1005.90284226242	983
1006.59861664337	984.599975585938
1007.2943031179	988.200012207031
1007.98990169377	990.400024414063
1008.68541237876	981.799987792969
1009.38083518064	984.400024414063
1010.07617010719	990.599975585938
1010.77141716617	989.400024414063
1011.46657636536	991.200012207031
1012.16164771253	987.200012207031
1012.85663121546	989.400024414063
1013.5515268819	986.400024414063
1014.24633471963	985.799987792969
1014.94105473642	989.599975585938
1015.63568694004	991.799987792969
1016.33023133826	997.599975585938
1017.02468793885	993.599975585938
1017.71905674957	990.599975585938
1018.41333777819	989.400024414063
1019.10753103249	990.799987792969
1019.80163652022	989.400024414063
1020.49565424916	992.200012207031
1021.18958422707	992.400024414063
1021.88342646171	995
1022.57718096085	998.200012207031
1023.27084773227	998.799987792969
1023.96442678371	994
1024.65791812296	995.400024414063
1025.35132175776	1003.40002441406
1026.04463769589	1003
1026.73786594511	1005.20001220703
1027.43100651318	1007.20001220703
1028.12405940786	1007
1028.81702463692	1005
1029.50990220812	1008.79998779297
1030.20269212921	1005.20001220703
1030.89539440798	1005.20001220703
1031.58800905216	999.799987792969
1032.28053606952	1001.40002441406
1032.97297546784	1004.20001220703
1033.66532725485	1007.40002441406
1034.35759143832	1005.79998779297
1035.04976802602	1009.20001220703
1035.7418570257	1004.79998779297
1036.43385844511	1004.79998779297
1037.12577229202	1011.20001220703
1037.81759857419	1004.79998779297
1038.50933729937	1000
1039.20098847531	1008.20001220703
1039.89255210978	1000
1040.58402821053	999
1041.27541678532	1002.59997558594
1041.96671784191	999.400024414063
1042.65793138804	994.599975585938
1043.34905743147	997
1044.04009597996	994.400024414063
1044.73104704125	991.200012207031
1045.42191062312	997.400024414063
1046.1126867333	992.200012207031
1046.80337537955	992.799987792969
1047.49397656962	995.200012207031
1048.18449031127	994
1048.87491661225	989.799987792969
1049.5652554803	988
1050.25550692319	988.200012207031
1050.94567094865	986.400024414063
1051.63574756444	988.799987792969
1052.32573677832	988.599975585938
1053.01563859803	993.400024414063
1053.70545303131	995
1054.39518008592	990.400024414063
1055.08481976961	992.799987792969
1055.77437209013	992.200012207031
1056.46383705522	989.400024414063
1057.15321467262	990.200012207031
1057.8425049501	992.200012207031
1058.53170789539	995.799987792969
1059.22082351624	993.200012207031
1059.9098518204	992.400024414063
1060.59879281561	993
1061.28764650962	996.400024414063
1061.97641291016	993
1062.665092025	996.200012207031
1063.35368386187	991.799987792969
1064.04218842851	997
1064.73060573268	998
1065.4189357821	994.200012207031
1066.10717858452	995.400024414063
1066.7953341477	990.599975585938
1067.48340247936	990
1068.17138358725	992.599975585938
1068.85927747912	999.200012207031
1069.5470841627	993.400024414063
1070.23480364573	1001
1070.92243593595	1000.20001220703
1071.60998104111	1006.20001220703
1072.29743896894	1001.79998779297
1072.98480972718	1005.59997558594
1073.67209332357	1002.59997558594
1074.35928976585	999
1075.04639906176	1001
1075.73342121903	995.799987792969
1076.42035624541	992.200012207031
1077.10720414862	998.799987792969
1077.79396493641	1000.40002441406
1078.48063861651	1000.79998779297
1079.16722519666	995
1079.85372468459	995.400024414063
1080.54013708804	988.799987792969
1081.22646241474	985
1081.91270067243	986
1082.59885186884	989.599975585938
1083.28491601171	990.599975585938
1083.97089310877	991
1084.65678316774	990.200012207031
1085.34258619637	1000.79998779297
1086.02830220239	998.200012207031
1086.71393119352	996.400024414063
1087.39947317751	993.400024414063
1088.08492816207	999.799987792969
1088.77029615495	999.400024414063
1089.45557716387	1001.59997558594
1090.14077119656	993
1090.82587826075	994.400024414063
1091.51089836417	997.200012207031
1092.19583151456	998.400024414063
1092.88067771963	993.799987792969
1093.56543698712	997.200012207031
1094.25010932475	991.400024414063
1094.93469474026	990.799987792969
1095.61919324137	990
1096.3036048358	988.799987792969
1096.98792953129	993.200012207031
1097.67216733555	997.599975585938
1098.35631825632	988.799987792969
1099.04038230132	995
1099.72435947828	991.200012207031
1100.40824979492	995
1101.09205325895	988.799987792969
1101.77576987812	992
1102.45939966014	994.400024414063
1103.14294261273	993.599975585938
1103.82639874362	996.599975585938
1104.50976806054	1000
1105.19305057119	994.599975585938
1105.87624628331	995.400024414063
1106.55935520461	1002.40002441406
1107.24237734283	1005.59997558594
1107.92531270566	1004
1108.60816130085	1004.79998779297
1109.2909231361	1011
1109.97359821914	1010.79998779297
1110.65618655768	1014
1111.33868815946	1012.79998779297
1112.02110303217	1012.79998779297
1112.70343118355	1009.59997558594
1113.3856726213	1011.20001220703
1114.06782735316	1013.20001220703
1114.74989538683	1014.20001220703
1115.43187673002	1018
1116.11377139047	1020
1116.79557937588	1023.20001220703
1117.47730069397	1020.40002441406
1118.15893535245	1026
1118.84048335904	1025.59997558594
1119.52194472146	1029.59997558594
1120.20331944741	1033.59997558594
1120.88460754462	1030.40002441406
1121.56580902079	1035.40002441406
1122.24692388364	1031
1122.92795214088	1033.19995117188
1123.60889380022	1033.40002441406
1124.28974886938	1030.80004882813
1124.97051735606	1026
1125.65119926799	1026.19995117188
1126.33179461286	1030.40002441406
1127.0123033984	1036.59997558594
1127.6927256323	1028.59997558594
1128.37306132229	1036
1129.05331047606	1028.80004882813
1129.73347310134	1024.40002441406
1130.41354920582	1029.59997558594
1131.09353879722	1025.80004882813
1131.77344188324	1025
1132.45325847159	1022.59997558594
1133.13298856999	1024.19995117188
1133.81263218612	1025.59997558594
1134.49218932772	1028.40002441406
1135.17166000247	1027.80004882813
1135.85104421809	1024.80004882813
1136.53034198227	1026.80004882813
1137.20955330274	1024.59997558594
1137.88867818718	1019.59997558594
1138.56771664331	1018.20001220703
1139.24666867883	1024.40002441406
1139.92553430144	1022.40002441406
1140.60431351885	1020.79998779297
1141.28300633876	1013.20001220703
1141.96161276887	1014.79998779297
1142.64013281689	1020.20001220703
1143.31856649051	1011.40002441406
1143.99691379744	1019
1144.67517474538	1023
1145.35334934203	1021.79998779297
1146.03143759509	1014.40002441406
1146.70943951226	1014
1147.38735510125	1017.59997558594
1148.06518436974	1016.40002441406
1148.74292732545	1022.59997558594
1149.42058397606	1016.40002441406
1150.09815432928	1016.20001220703
1150.7756383928	1019.40002441406
1151.45303617432	1013
1152.13034768155	1020.79998779297
1152.80757292217	1020
1153.48471190389	1019.59997558594
1154.16176463439	1020.59997558594
1154.83873112138	1025.59997558594
1155.51561137255	1015.40002441406
1156.1924053956	1017.20001220703
1156.86911319822	1015.59997558594
1157.5457347881	1015.59997558594
1158.22227017294	1013.59997558594
1158.89871936044	1012.59997558594
1159.57508235828	1011.59997558594
1160.25135917416	1016.79998779297
1160.92754981578	1015.79998779297
1161.60365429081	1012.59997558594
1162.27967260697	1016.40002441406
1162.95560477193	1016.40002441406
1163.63145079339	1018
1164.30721067904	1019.20001220703
1164.98288443657	1017.40002441406
1165.65847207367	1017.40002441406
1166.33397359803	1022.59997558594
1167.00938901735	1025
1167.6847183393	1024.59997558594
1168.35996157157	1023
1169.03511872187	1017
1169.71018979787	1019.79998779297
1170.38517480726	1018.79998779297
1171.06007375773	1015.79998779297
1171.73488665696	1012.40002441406
1172.40961351265	1018.59997558594
1173.08425433247	1014
1173.75880912412	1012.79998779297
1174.43327789528	1017
1175.10766065364	1015
1175.78195740687	1012.20001220703
1176.45616816267	1010.59997558594
1177.13029292871	1011
1177.80433171269	1015.79998779297
1178.47828452229	1012.59997558594
1179.15215136518	1018.79998779297
1179.82593224905	1021
1180.49962718159	1011
1181.17323617047	1016.59997558594
1181.84675922337	1019.40002441406
1182.52019634799	1015.59997558594
1183.193547552	1017.59997558594
1183.86681284307	1019
1184.53999222889	1016.59997558594
1185.21308571714	1021
1185.8860933155	1023.79998779297
1186.55901503165	1022.40002441406
1187.23185087326	1018.79998779297
1187.90460084802	1023.20001220703
1188.5772649636	1020.59997558594
1189.24984322768	1025
1189.92233564794	1022.40002441406
1190.59474223206	1021.79998779297
1191.2670629877	1031.40002441406
1191.93929792255	1029.19995117188
1192.61144704428	1034.59997558594
1193.28351036058	1023.20001220703
1193.9554878791	1027.40002441406
1194.62737960754	1026.19995117188
1195.29918555356	1026.59997558594
1195.97090572483	1028.40002441406
1196.64254012903	1027.59997558594
1197.31408877384	1036.19995117188
1197.98555166693	1035.40002441406
1198.65692881596	1033.19995117188
1199.32822022862	1031.40002441406
1199.99942591256	1023.79998779297
1200.67054587548	1022.20001220703
1201.34158012503	1029.40002441406
1202.01252866889	1025.40002441406
1202.68339151473	1025.19995117188
1203.35416867021	1027.40002441406
1204.02486014301	1029.59997558594
1204.6954659408	1032.80004882813
1205.36598607124	1033.19995117188
1206.03642054201	1036
1206.70676936078	1032
1207.3770325352	1032.59997558594
1208.04721007295	1028.80004882813
1208.7173019817	1032.59997558594
1209.38730826911	1033.59997558594
1210.05722894285	1035.80004882813
1210.72706401059	1040.80004882813
1211.39681347999	1033.59997558594
1212.06647735872	1041.19995117188
1212.73605565444	1045
1213.40554837481	1041
1214.07495552751	1039.40002441406
1214.74427712019	1041.80004882813
1215.41351316052	1043.59997558594
1216.08266365617	1044.59997558594
1216.75172861479	1053
1217.42070804405	1047.80004882813
1218.0896019516	1051.40002441406
1218.75841034513	1054.80004882813
1219.42713323227	1055.80004882813
1220.0957706207	1061.59997558594
1220.76432251808	1061.19995117188
1221.43278893207	1058.59997558594
1222.10116987032	1056.40002441406
1222.7694653405	1058
1223.43767535026	1053.59997558594
1224.10579990727	1060.80004882813
1224.77383901918	1057.19995117188
1225.44179269366	1061.19995117188
1226.10966093835	1057.80004882813
1226.77744376093	1057.80004882813
1227.44514116904	1063.19995117188
1228.11275317034	1061.19995117188
1228.78027977249	1055.40002441406
1229.44772098315	1058
1230.11507680996	1055.80004882813
1230.7823472606	1051.40002441406
1231.44953234271	1058.19995117188
1232.11663206394	1055.80004882813
1232.78364643195	1051
1233.4505754544	1053
1234.11741913894	1049.80004882813
1234.78417749322	1059.40002441406
1235.45085052489	1059.80004882813
1236.11743824162	1061.59997558594
1236.78394065104	1051.80004882813
1237.45035776082	1054.40002441406
1238.1166895786	1060.59997558594
1238.78293611204	1054
1239.44909736878	1048.40002441406
1240.11517335648	1058.19995117188
1240.78116408279	1059
1241.44706955535	1059.59997558594
1242.11288978182	1061.19995117188
1242.77862476985	1057.80004882813
1243.44427452708	1054.80004882813
1244.10983906116	1057.59997558594
1244.77531837974	1055.40002441406
1245.44071249047	1058.19995117188
1246.106021401	1053.59997558594
1246.77124511898	1052.80004882813
1247.43638365204	1054.40002441406
1248.10143700783	1052.80004882813
1248.76640519401	1057.40002441406
1249.43128821822	1058.59997558594
1250.0960860881	1056
1250.76079881129	1054.19995117188
1251.42542639545	1057.40002441406
1252.08996884822	1052
1252.75442617723	1055
1253.41879839014	1055
1254.08308549458	1052.19995117188
1254.74728749821	1047
1255.41140440866	1049.19995117188
1256.07543623357	1046.80004882813
1256.73938298059	1048.80004882813
1257.40324465735	1047.40002441406
1258.0670212715	1045.59997558594
1258.73071283068	1045.40002441406
1259.39431934253	1051.19995117188
1260.05784081468	1044.80004882813
1260.72127725479	1047.19995117188
1261.38462867049	1051
1262.0478950694	1056
1262.71107645919	1058.80004882813
1263.37417284748	1053.80004882813
1264.03718424191	1049.59997558594
1264.70011065011	1049.40002441406
1265.36295207974	1054.19995117188
1266.02570853841	1047.59997558594
1266.68838003378	1038.40002441406
1267.35096657346	1036.19995117188
1268.01346816511	1041.80004882813
1268.67588481636	1041
1269.33821653483	1050.40002441406
1270.00046332817	1045.19995117188
1270.66262520401	1049.19995117188
1271.32470216998	1045.19995117188
1271.98669423372	1047.59997558594
1272.64860140285	1044.40002441406
1273.31042368503	1050.40002441406
1273.97216108786	1047.19995117188
1274.633813619	1049
1275.29538128606	1051.59997558594
1275.95686409669	1053.59997558594
1276.6182620585	1049.80004882813
1277.27957517914	1048.19995117188
1277.94080346624	1049.80004882813
1278.60194692741	1051
1279.2630055703	1052.80004882813
1279.92397940253	1050.40002441406
1280.58486843173	1049
1281.24567266552	1051.40002441406
1281.90639211155	1045
1282.56702677743	1049.40002441406
1283.2275766708	1043.59997558594
1283.88804179927	1056
1284.54842217049	1050.19995117188
1285.20871779206	1052.59997558594
1285.86892867163	1055.80004882813
1286.52905481681	1051.59997558594
1287.18909623523	1057
1287.84905293452	1058.59997558594
1288.5089249223	1058.40002441406
1289.16871220619	1052.40002441406
1289.82841479383	1053.80004882813
1290.48803269282	1050.40002441406
1291.1475659108	1049.40002441406
1291.80701445539	1040.19995117188
1292.46637833421	1041.19995117188
1293.12565755489	1037.19995117188
1293.78485212504	1042.40002441406
1294.44396205229	1040
1295.10298734425	1046.80004882813
1295.76192800856	1049.19995117188
1296.42078405283	1045.40002441406
1297.07955548467	1048
1297.73824231171	1048.80004882813
1298.39684454158	1052.80004882813
1299.05536218188	1044.40002441406
1299.71379524023	1047
1300.37214372427	1053.19995117188
1301.03040764159	1047.40002441406
1301.68858699983	1049.40002441406
1302.34668180659	1058
1303.0046920695	1065.59997558594
1303.66261779617	1060.40002441406
1304.32045899422	1060.80004882813
1304.97821567126	1059.40002441406
1305.63588783492	1058.40002441406
1306.29347549279	1055.19995117188
1306.95097865251	1060.19995117188
1307.60839732168	1055.59997558594
1308.26573150791	1054.59997558594
1308.92298121883	1057.59997558594
1309.58014646204	1061.19995117188
1310.23722724517	1058.40002441406
1310.89422357581	1061.19995117188
1311.55113546158	1066
1312.2079629101	1063
1312.86470592898	1070.40002441406
1313.52136452582	1067.59997558594
1314.17793870824	1069.80004882813
1314.83442848386	1076.19995117188
1315.49083386027	1078.80004882813
1316.14715484509	1074.59997558594
1316.80339144594	1081.19995117188
1317.45954367041	1075.59997558594
1318.11561152611	1064.19995117188
1318.77159502067	1066.19995117188
1319.42749416168	1076.40002441406
1320.08330895674	1080.40002441406
1320.73903941348	1082.40002441406
1321.3946855395	1074
1322.0502473424	1074.59997558594
1322.70572482978	1071
1323.36111800926	1078
1324.01642688845	1075.40002441406
1324.67165147494	1076.40002441406
1325.32679177634	1080.19995117188
1325.98184780025	1074.19995117188
1326.63681955429	1076.80004882813
1327.29170704605	1080.40002441406
1327.94651028314	1079.59997558594
1328.60122927316	1072.59997558594
1329.25586402371	1073.59997558594
1329.9104145424	1075.80004882813
1330.56488083683	1075.80004882813
1331.2192629146	1088.19995117188
1331.87356078331	1086.59997558594
1332.52777445056	1080.19995117188
1333.18190392395	1081
1333.83594921109	1079.40002441406
1334.48991031958	1069
1335.143787257	1067.19995117188
1335.79758003097	1072
1336.45128864908	1068.59997558594
1337.10491311893	1070.40002441406
1337.75845344813	1079
1338.41190964425	1075.80004882813
1339.06528171491	1079.40002441406
1339.71856966771	1076
1340.37177351023	1079
1341.02489325007	1067.80004882813
1341.67792889484	1068.40002441406
1342.33088045212	1073.40002441406
1342.98374792952	1070.59997558594
1343.63653133462	1072.19995117188
1344.28923067503	1082.19995117188
1344.94184595833	1080.19995117188
1345.59437719212	1081.80004882813
1346.246824384	1085.59997558594
1346.89918754155	1084.19995117188
1347.55146667238	1093.40002441406
1348.20366178407	1074.40002441406
1348.85577288421	1079
1349.50779998041	1075.80004882813
1350.15974308024	1066.80004882813
1350.8116021913	1080.80004882813
1351.46337732119	1074.19995117188
1352.11506847748	1080.40002441406
1352.76667566778	1076
1353.41819889967	1079.19995117188
1354.06963818074	1077.80004882813
1354.72099351858	1082.19995117188
1355.37226492079	1076
1356.02345239494	1084
1356.67455594862	1085
1357.32557558943	1087.40002441406
1357.97651132496	1087.80004882813
1358.62736316277	1089.59997558594
1359.27813111048	1082.59997558594
1359.92881517565	1077.59997558594
1360.57941536589	1081.80004882813
1361.22993168876	1087.80004882813
1361.88036415186	1088.40002441406
1362.53071276278	1083.80004882813
1363.1809775291	1083.19995117188
1363.8311584584	1086.80004882813
1364.48125555826	1085
1365.13126883627	1088.40002441406
1365.78119830001	1086.19995117188
1366.43104395707	1079.40002441406
1367.08080581503	1080.40002441406
1367.73048388147	1073.59997558594
1368.38007816397	1083.19995117188
1369.02958867011	1078.80004882813
1369.67901540748	1075.40002441406
1370.32835838365	1085.80004882813
1370.9776176062	1077.19995117188
1371.62679308273	1076.40002441406
1372.27588482079	1080.40002441406
1372.92489282798	1080.80004882813
1373.57381711188	1082.40002441406
1374.22265768006	1079.19995117188
1374.87141454009	1081.40002441406
1375.52008769957	1072.80004882813
1376.16867716606	1075.59997558594
1376.81718294715	1080.80004882813
1377.4656050504	1085
1378.1139434834	1089.40002441406
1378.76219825373	1087.40002441406
1379.41036936895	1090.59997558594
1380.05845683664	1085.19995117188
1380.70646066439	1087.80004882813
1381.35438085976	1082.40002441406
1382.00221743032	1082.59997558594
1382.64997038366	1083.40002441406
1383.29763972735	1079.40002441406
1383.94522546895	1092.19995117188
1384.59272761605	1095.19995117188
1385.24014617621	1096.59997558594
1385.88748115701	1096.19995117188
1386.53473256602	1094.19995117188
1387.18190041081	1091.19995117188
1387.82898469895	1087
1388.47598543802	1096.80004882813
1389.12290263558	1092.59997558594
1389.7697362992	1095.59997558594
1390.41648643646	1082.19995117188
1391.06315305492	1089.40002441406
1391.70973616215	1080.19995117188
1392.35623576573	1098.59997558594
1393.00265187321	1092.80004882813
1393.64898449217	1096.59997558594
1394.29523363018	1087.19995117188
1394.94139929481	1091
1395.58748149361	1093.19995117188
1396.23348023415	1086
1396.87939552402	1077.19995117188
1397.52522737076	1089.80004882813
1398.17097578195	1085.80004882813
1398.81664076514	1082.80004882813
1399.46222232792	1087.80004882813
1400.10772047783	1089.40002441406
1400.75313522245	1093.59997558594
1401.39846656934	1102.59997558594
1402.04371452605	1105
1402.68887910016	1096.19995117188
1403.33396029924	1099.40002441406
1403.97895813083	1101.59997558594
1404.6238726025	1099.19995117188
1405.26870372182	1093.59997558594
1405.91345149634	1088.59997558594
1406.55811593363	1099.40002441406
1407.20269704125	1089.40002441406
1407.84719482676	1100.80004882813
1408.49160929772	1099.40002441406
1409.13594046168	1104
1409.78018832622	1107.80004882813
1410.42435289887	1099.40002441406
1411.06843418722	1105.59997558594
1411.7124321988	1106.40002441406
1412.3563469412	1121.19995117188
1413.00017842194	1117.80004882813
1413.64392664861	1114.80004882813
1414.28759162875	1122.80004882813
1414.93117336992	1107
1415.57467187967	1113.80004882813
1416.21808716557	1114.19995117188
1416.86141923516	1114.59997558594
1417.50466809601	1121.59997558594
1418.14783375567	1127.40002441406
1418.79091622169	1133.40002441406
1419.43391550162	1137.40002441406
1420.07683160303	1133.80004882813
1420.71966453346	1125.80004882813
1421.36241430046	1133
1422.0050809116	1133.80004882813
1422.64766437442	1138.59997558594
1423.29016469647	1140.40002441406
1423.93258188531	1140.59997558594
1424.57491594848	1140
1425.21716689354	1139.19995117188
1425.85933472805	1150.80004882813
1426.50141945954	1149.19995117188
1427.14342109557	1148.40002441406
1427.78533964369	1140.19995117188
1428.42717511144	1151
1429.06892750639	1138.59997558594
1429.71059683607	1134.59997558594
1430.35218310803	1147.80004882813
1430.99368632983	1148.59997558594
1431.635106509	1147.59997558594
1432.2764436531	1149.19995117188
1432.91769776967	1157
1433.55886886627	1159.19995117188
1434.19995695043	1151.59997558594
1434.84096202969	1152.59997558594
1435.48188411162	1152.40002441406
1436.12272320375	1157
1436.76347931363	1152.40002441406
1437.40415244879	1154
1438.0447426168	1168
1438.68524982518	1165.19995117188
1439.32567408148	1154.19995117188
1439.96601539325	1163.40002441406
1440.60627376803	1159.40002441406
1441.24644921336	1168.80004882813
1441.88654173678	1146.80004882813
1442.52655134583	1152.59997558594
1443.16647804806	1159.19995117188
1443.806321851	1155.19995117188
1444.4460827622	1161.59997558594
1445.0857607892	1168.40002441406
1445.72535593953	1149.40002441406
1446.36486822074	1149.80004882813
1447.00429764037	1155.19995117188
1447.64364420595	1156.59997558594
1448.28290792502	1148.19995117188
1448.92208880512	1149.19995117188
1449.56118685379	1149.40002441406
1450.20020207857	1152.19995117188
1450.83913448699	1147.40002441406
1451.47798408659	1142
1452.1167508849	1147.19995117188
1452.75543488947	1140.19995117188
1453.39403610782	1136.19995117188
1454.0325545475	1129.59997558594
1454.67099021603	1136.59997558594
1455.30934312097	1134.19995117188
1455.94761326982	1132.59997558594
1456.58580067014	1131.59997558594
1457.22390532945	1128.19995117188
1457.86192725529	1125.80004882813
1458.49986645519	1126.19995117188
1459.13772293668	1128.59997558594
1459.7754967073	1126.80004882813
1460.41318777457	1114.19995117188
1461.05079614604	1125.80004882813
1461.68832182922	1121.80004882813
1462.32576483166	1115
1462.96312516087	1120.80004882813
1463.6004028244	1126.59997558594
1464.23759782977	1119
1464.8747101845	1112.59997558594
1465.51173989614	1105.40002441406
1466.14868697221	1112
1466.78555142024	1107.59997558594
1467.42233324774	1108.59997558594
1468.05903246227	1107.19995117188
1468.69564907133	1107
1469.33218308246	1107.59997558594
1469.96863450317	1107.19995117188
1470.60500334102	1106
1471.2412896035	1109.40002441406
1471.87749329816	1114.19995117188
1472.51361443251	1100.40002441406
1473.14965301409	1110.80004882813
1473.78560905041	1104.19995117188
1474.421482549	1104.59997558594
1475.05727351739	1106.80004882813
1475.69298196309	1099.19995117188
1476.32860789364	1094.80004882813
1476.96415131654	1096.40002441406
1477.59961223934	1097.19995117188
1478.23499066954	1099.40002441406
1478.87028661467	1097.59997558594
1479.50550008226	1104.59997558594
1480.14063107981	1097.40002441406
1480.77567961486	1098.80004882813
1481.41064569492	1092.19995117188
1482.04552932752	1090.59997558594
1482.68033052017	1087.59997558594
1483.31504928039	1100.80004882813
1483.9496856157	1093.80004882813
1484.58423953363	1105
1485.21871104168	1097.80004882813
1485.85310014738	1092.59997558594
1486.48740685824	1094.40002441406
1487.12163118178	1101.40002441406
1487.75577312553	1095.59997558594
1488.38983269698	1105.59997558594
1489.02380990367	1104.19995117188
1489.65770475311	1097
1490.29151725281	1097.80004882813
1490.92524741029	1103.40002441406
1491.55889523306	1102.19995117188
1492.19246072863	1102
1492.82594390453	1107.19995117188
1493.45934476826	1108
1494.09266332734	1097.80004882813
1494.72589958928	1092
1495.3590535616	1097.80004882813
1495.99212525181	1086.19995117188
1496.62511466741	1086.80004882813
1497.25802181592	1091.59997558594
1497.89084670485	1092.59997558594
1498.52358934172	1092.40002441406
1499.15624973403	1100
1499.7888278893	1088.59997558594
1500.42132381503	1098.59997558594
1501.05373751873	1092.40002441406
1501.68606900792	1089.59997558594
1502.31831829009	1100
1502.95048537277	1097
1503.58257026346	1089.40002441406
1504.21457296966	1088
1504.84649349889	1096.59997558594
1505.47833185864	1097
1506.11008805644	1104.19995117188
1506.74176209978	1098.40002441406
1507.37335399617	1096.40002441406
1508.00486375312	1090.80004882813
1508.63629137813	1083.19995117188
1509.2676368787	1093.80004882813
1509.89890026235	1091.80004882813
1510.53008153658	1098.80004882813
1511.16118070889	1104.19995117188
1511.79219778677	1102.19995117188
1512.42313277775	1098.80004882813
1513.05398568932	1096.59997558594
1513.68475652898	1092.59997558594
1514.31544530424	1092.40002441406
1514.9460520226	1085.80004882813
1515.57657669155	1092.80004882813
1516.20701931861	1090.59997558594
1516.83737991127	1092.80004882813
1517.46765847702	1092.19995117188
1518.09785502339	1103.80004882813
1518.72796955785	1101.40002441406
1519.35800208792	1102
1519.98795262109	1094.80004882813
1520.61782116486	1097
1521.24760772673	1088.19995117188
1521.87731231419	1094.40002441406
1522.50693493475	1093
1523.1364755959	1085.59997558594
1523.76593430514	1089.40002441406
1524.39531106997	1085
1525.02460589788	1086
1525.65381879637	1088.59997558594
1526.28294977293	1084.80004882813
1526.91199883507	1075.40002441406
1527.54096599027	1081.40002441406
1528.16985124603	1067.40002441406
1528.79865460984	1070
1529.4273760892	1065.59997558594
1530.05601569161	1068.80004882813
1530.68457342455	1071.59997558594
1531.31304929552	1075.59997558594
1531.94144331201	1073.59997558594
1532.56975548151	1074
1533.19798581152	1073.80004882813
1533.82613430953	1081
1534.45420098302	1071.40002441406
1535.08218583949	1071
1535.71008888643	1071.59997558594
1536.33791013134	1066.59997558594
1536.96564958169	1071
1537.59330724498	1064.80004882813
1538.22088312871	1067.59997558594
1538.84837724034	1066.40002441406
1539.47578958739	1075.40002441406
1540.10312017733	1071
1540.73036901765	1075
1541.35753611584	1068.19995117188
1541.98462147939	1070
1542.61162511578	1068
1543.2385470325	1071.19995117188
1543.86538723704	1068.80004882813
1544.49214573688	1077.80004882813
1545.11882253951	1064.80004882813
1545.74541765241	1071.19995117188
1546.37193108306	1071.19995117188
1546.99836283896	1065
1547.62471292758	1067.59997558594
1548.25098135641	1068.19995117188
1548.87716813294	1061.19995117188
1549.50327326464	1059
1550.12929675899	1058.59997558594
1550.75523862349	1054.40002441406
1551.38109886561	1060.59997558594
1552.00687749284	1064.19995117188
1552.63257451264	1069.59997558594
1553.25818993252	1073.59997558594
1553.88372375994	1073.19995117188
1554.50917600239	1066
1555.13454666734	1067.19995117188
1555.75983576228	1070.59997558594
1556.38504329469	1065.80004882813
1557.01016927204	1056.80004882813
1557.63521370181	1061
1558.26017659149	1047.80004882813
1558.88505794854	1056.59997558594
1559.50985778045	1062.80004882813
1560.13457609469	1048.19995117188
1560.75921289874	1054
1561.38376820008	1054
1562.00824200618	1053.80004882813
1562.63263432452	1058.40002441406
1563.25694516257	1064.19995117188
1563.88117452781	1058.19995117188
1564.50532242772	1067.59997558594
1565.12938886976	1061.19995117188
1565.75337386141	1068.80004882813
1566.37727741015	1068
1567.00109952345	1064.59997558594
1567.62484020878	1068.80004882813
1568.24849947361	1066.80004882813
1568.87207732542	1062.40002441406
1569.49557377168	1063.19995117188
1570.11898881986	1058
1570.74232247743	1067.59997558594
1571.36557475186	1062.80004882813
1571.98874565062	1062.19995117188
1572.61183518119	1067.19995117188
1573.23484335103	1067.19995117188
1573.85777016761	1068.59997558594
1574.4806156384	1064.19995117188
1575.10337977088	1074.80004882813
1575.7260625725	1061.19995117188
1576.34866405074	1061.40002441406
1576.97118421306	1061.59997558594
1577.59362306694	1067.80004882813
1578.21598061984	1071.40002441406
1578.83825687922	1074.80004882813
1579.46045185255	1076.19995117188
1580.08256554731	1069.80004882813
1580.70459797094	1057
1581.32654913093	1063.80004882813
1581.94841903473	1066.59997558594
1582.57020768981	1065.80004882813
1583.19191510364	1062
1583.81354128367	1060.19995117188
1584.43508623737	1066.80004882813
1585.05654997221	1066.19995117188
1585.67793249564	1066
1586.29923381514	1062.59997558594
1586.92045393815	1067.40002441406
1587.54159287216	1071.40002441406
1588.1626506246	1073.19995117188
1588.78362720296	1065.59997558594
1589.40452261468	1065.80004882813
1590.02533686724	1060.59997558594
1590.64606996808	1059
1591.26672192467	1063.80004882813
1591.88729274447	1053.59997558594
1592.50778243493	1057.40002441406
1593.12819100352	1052.80004882813
1593.7485184577	1055.19995117188
1594.36876480492	1053.19995117188
1594.98893005264	1049.80004882813
1595.60901420832	1053.80004882813
1596.22901727941	1047
1596.84893927338	1042.59997558594
1597.46878019767	1051
1598.08854005975	1055
1598.70821886707	1051.59997558594
1599.32781662708	1053.80004882813
1599.94733334725	1054.40002441406
1600.56676903502	1051.40002441406
1601.18612369785	1055.19995117188
1601.8053973432	1052.19995117188
1602.42458997851	1059.40002441406
1603.04370161124	1062.40002441406
1603.66273224884	1057.40002441406
1604.28168189878	1067.40002441406
1604.90055056849	1066.59997558594
1605.51933826543	1060.19995117188
1606.13804499705	1065.59997558594
1606.75667077081	1068.80004882813
1607.37521559415	1068.80004882813
1607.99367947452	1066
1608.61206241938	1077.40002441406
1609.23036443618	1073.19995117188
1609.84858553236	1075
1610.46672571537	1072.80004882813
1611.08478499267	1075.19995117188
1611.7027633717	1072.40002441406
1612.3206608599	1071.59997558594
1612.93847746473	1068.80004882813
1613.55621319364	1064.80004882813
1614.17386805407	1070.19995117188
1614.79144205347	1071.19995117188
1615.40893519928	1072.19995117188
1616.02634749895	1061.59997558594
1616.64367895993	1061
1617.26092958966	1060.59997558594
1617.87809939559	1067.19995117188
1618.49518838516	1066.59997558594
1619.11219656582	1068.19995117188
1619.729123945	1068
1620.34597053016	1070.40002441406
1620.96273632874	1069
1621.57942134818	1068.40002441406
1622.19602559592	1067.40002441406
1622.8125490794	1063.59997558594
1623.42899180607	1062.40002441406
1624.04535378337	1061.59997558594
1624.66163501874	1054.40002441406
1625.27783551963	1049.19995117188
1625.89395529346	1048.59997558594
1626.50999434768	1046.80004882813
1627.12595268974	1040.40002441406
1627.74183032707	1043.40002441406
1628.3576272671	1038
1628.97334351729	1032.59997558594
1629.58897908506	1025.19995117188
1630.20453397786	1021.59997558594
1630.82000820313	1019
1631.43540176829	1012.79998779297
1632.05071468079	1016.20001220703
1632.66594694807	1015.40002441406
1633.28109857756	1013.59997558594
1633.8961695767	1008.20001220703
1634.51115995292	1010.20001220703
1635.12606971366	1005.20001220703
1635.74089886636	1002.40002441406
1636.35564741844	1009.59997558594
1636.97031537734	1005.20001220703
1637.58490275051	1005.40002441406
1638.19940954536	1001.59997558594
1638.81383576934	1002.59997558594
1639.42818142987	998.799987792969
1640.0424465344	996.200012207031
1640.65663109034	993.799987792969
1641.27073510515	993.200012207031
1641.88475858623	987
1642.49870154104	990.400024414063
1643.11256397699	983.200012207031
1643.72634590152	978
1644.34004732206	985.400024414063
1644.95366824604	981.200012207031
1645.56720868089	981.799987792969
1646.18066863404	977.200012207031
1646.79404811291	986
1647.40734712494	976
1648.02056567755	984.599975585938
1648.63370377817	978.799987792969
1649.24676143423	976
1649.85973865316	981.200012207031
1650.47263544238	984
1651.08545180932	977.799987792969
1651.6981877614	976.400024414063
1652.31084330606	975
1652.92341845071	973.400024414063
1653.53591320278	975
1654.1483275697	971
1654.7606615589	976.599975585938
1655.37291517778	976.200012207031
1655.98508843379	975
1656.59718133434	980.200012207031
1657.20919388685	978.200012207031
1657.82112609875	976.400024414063
1658.43297797747	976.799987792969
1659.04474953041	973
1659.65644076501	977.599975585938
1660.26805168869	976.599975585938
1660.87958230886	977.200012207031
1661.49103263294	979.400024414063
1662.10240266837	978.799987792969
1662.71369242255	982.599975585938
1663.32490190291	980.200012207031
1663.93603111687	976.599975585938
1664.54708007184	973
1665.15804877524	969
1665.7689372345	976.599975585938
1666.37974545703	973.799987792969
1666.99047345024	973.200012207031
1667.60112122156	970.200012207031
1668.2116887784	966.599975585938
1668.82217612818	963.599975585938
1669.43258327831	965.799987792969
1670.04291023622	966.599975585938
1670.65315700931	963
1671.263323605	964.799987792969
1671.8734100307	968.200012207031
1672.48341629384	962.599975585938
1673.09334240182	966.599975585938
1673.70318836206	958.799987792969
1674.31295418197	964.599975585938
1674.92263986896	953.599975585938
1675.53224543046	961
1676.14177087386	960
1676.75121620658	960.799987792969
1677.36058143604	956.200012207031
1677.96986656964	958.400024414063
1678.5790716148	956
1679.18819657892	954.200012207031
1679.79724146943	960.599975585938
1680.40620629372	956.599975585938
1681.0150910592	960.400024414063
1681.6238957733	957.599975585938
1682.23262044341	958.799987792969
1682.84126507694	958.799987792969
1683.4498296813	955.599975585938
1684.0583142639	954.400024414063
1684.66671883216	959.200012207031
1685.27504339346	962.200012207031
1685.88328795523	958.599975585938
1686.49145252487	959.599975585938
1687.09953710978	958.799987792969
1687.70754171737	957.599975585938
1688.31546635505	959.799987792969
1688.92331103021	960.799987792969
1689.53107575028	958
1690.13876052265	959.200012207031
1690.74636535472	956.200012207031
1691.3538902539	958.200012207031
1691.96133522759	956.200012207031
1692.5687002832	953.200012207031
1693.17598542812	950
1693.78319066977	955
1694.39031601554	954.799987792969
1694.99736147283	962.400024414063
1695.60432704905	958.799987792969
1696.2112127516	961.799987792969
1696.81801858788	964.200012207031
1697.42474456528	958.799987792969
1698.03139069121	960.599975585938
1698.63795697307	960.599975585938
1699.24444341826	964.400024414063
1699.85085003417	959.400024414063
1700.45717682821	960.200012207031
1701.06342380778	956.799987792969
1701.66959098026	960.799987792969
1702.27567835307	953.400024414063
1702.88168593359	951.200012207031
1703.48761372922	945.599975585938
1704.09346174737	944.599975585938
1704.69922999542	950
1705.30491848077	951
1705.91052721083	947
1706.51605619297	949.400024414063
1707.12150543461	949
1707.72687494312	947.200012207031
1708.33216472592	949.200012207031
1708.93737479039	943.799987792969
1709.54250514392	948.599975585938
