634.977642221345	867.400024414063
635.719821695905	868.200012207031
636.461909203392	867.599975585938
637.203904751776	868.599975585938
637.945808349023	868.599975585938
638.687620003102	868.200012207031
639.42933972198	867.599975585938
640.170967513616	869.599975585938
640.912503385981	868.599975585938
641.653947347041	867.200012207031
642.395299404758	868
643.13655956709	866.599975585938
643.877727842014	866.599975585938
644.61880423748	868.599975585938
645.359788761455	867.400024414063
646.100681421905	868.400024414063
646.841482226789	867.200012207031
647.582191184074	867.200012207031
648.322808301711	867.400024414063
649.06333358767	871.400024414063
649.803767049909	870
650.544108696385	867.599975585938
651.28435853506	868.200012207031
652.024516573894	869.599975585938
652.764582820849	868.200012207031
653.504557283875	867.599975585938
654.244439970937	867.400024414063
654.984230889991	867.799987792969
655.723930048995	869.400024414063
656.463537455909	868.799987792969
657.203053118683	868.400024414063
657.942477045275	868.200012207031
658.681809243647	868
659.421049721747	868
660.160198487535	869.200012207031
660.899255548962	868
661.638220913985	867.799987792969
662.377094590559	869
663.115876586631	868.200012207031
663.854566910165	869.599975585938
664.593165569107	869.400024414063
665.331672571406	870
666.07008792502	869.200012207031
666.808411637902	870
667.546643717996	869.400024414063
668.284784173258	867
669.022833011641	867.799987792969
669.760790241089	868.200012207031
670.498655869554	868.799987792969
671.236429904987	870
671.97411235534	868.599975585938
672.711703228551	869.799987792969
673.449202532577	869.400024414063
674.186610275364	868.200012207031
674.923926464857	868
675.661151109008	869.599975585938
676.398284215759	869.200012207031
677.135325793058	870.400024414063
677.87227584885	867.799987792969
678.609134391082	869
679.345901427696	868.400024414063
680.082576966644	870.799987792969
680.819161015861	867.599975585938
681.555653583298	870
682.292054676895	869.599975585938
683.028364304594	867.799987792969
683.764582474344	867.799987792969
684.500709194083	868.400024414063
685.236744471752	868
685.972688315294	869.400024414063
686.708540732652	869.200012207031
687.444301731762	868.799987792969
688.179971320572	871
688.915549507013	867.799987792969
689.651036299034	868
690.386431704569	868
691.121735731559	868.400024414063
691.85694838794	867.799987792969
692.592069681652	868.200012207031
693.327099620632	869.200012207031
694.062038212821	868.400024414063
694.796885466149	868.599975585938
695.531641388561	869.400024414063
696.266305987987	869.400024414063
697.000879272367	870.400024414063
697.735361249632	869.599975585938
698.469751927722	869
699.204051314568	870
699.938259418107	868.799987792969
700.672376246272	870
701.406401806997	867.799987792969
702.140336108212	869.400024414063
702.874179157855	867.400024414063
703.607930963856	870.799987792969
704.341591534147	866.599975585938
705.07516087666	868.400024414063
705.808638999324	867
706.542025910073	869.400024414063
707.275321616841	867
708.008526127549	867
708.741639450132	870
709.474661592521	867
710.207592562641	868
710.940432368424	867.200012207031
711.673181017796	867.200012207031
712.405838518687	867.200012207031
713.138404879025	867
713.870880106731	868
714.603264209738	869.200012207031
715.335557195971	867
716.067759073357	866
716.799869849816	868.400024414063
717.531889533281	869.400024414063
718.263818131673	865.799987792969
718.995655652917	867.799987792969
719.727402104934	868.400024414063
720.45905749565	868.200012207031
721.19062183299	869
721.922095124877	870
722.653477379231	868.400024414063
723.384768603973	868.200012207031
724.11596880703	868.599975585938
724.847077996319	868
725.578096179762	868.200012207031
726.309023365281	867.400024414063
727.039859560792	866.599975585938
727.770604774222	867.799987792969
728.501259013484	867.799987792969
729.231822286501	868.799987792969
729.962294601191	868.400024414063
730.692675965469	868.599975585938
731.42296638726	868.799987792969
732.153165874472	869.400024414063
732.883274435032	867.200012207031
733.613292076851	867.599975585938
734.343218807843	868.799987792969
735.07305463593	866.200012207031
735.802799569028	868.599975585938
736.532453615048	869.200012207031
737.262016781904	868.400024414063
737.991489077517	869.400024414063
738.720870509794	867.400024414063
739.450161086654	868
740.179360816009	869.799987792969
740.908469705772	868.599975585938
741.637487763854	867.599975585938
742.366414998168	868.599975585938
743.095251416623	865
743.823997027137	866.799987792969
744.552651837618	867.200012207031
745.281215855978	868.599975585938
746.009689090124	866.799987792969
746.738071547964	869
747.466363237419	867.599975585938
748.194564166384	868.799987792969
748.92267434278	866.200012207031
749.650693774504	868.200012207031
750.378622469476	868.200012207031
751.106460435596	868.400024414063
751.834207680771	868.400024414063
752.561864212909	869.200012207031
753.289430039919	868.200012207031
754.016905169707	868.799987792969
754.744289610175	869.400024414063
755.471583369231	869.200012207031
756.198786454782	866.200012207031
756.925898874728	866.200012207031
757.652920636979	868.200012207031
758.379851749433	867.799987792969
759.106692219996	867.799987792969
759.833442056572	867.599975585938
760.560101267063	867
761.28666985937	869.200012207031
762.0131478414	868.200012207031
762.739535221046	867.400024414063
763.465832006219	869
764.192038204812	868.599975585938
764.918153824731	867.400024414063
765.644178873872	868.400024414063
766.370113360138	868.400024414063
767.095957291425	866.200012207031
767.821710675635	868.400024414063
768.547373520665	868.400024414063
769.272945834415	867.400024414063
769.998427624781	868.799987792969
770.723818899658	868.400024414063
771.449119666949	868.599975585938
772.174329934546	870.400024414063
772.899449710347	869.200012207031
773.624479002248	869.599975585938
774.349417818145	867
775.074266165934	869.200012207031
775.799024053505	869.200012207031
776.523691488757	869.400024414063
777.248268479582	870.200012207031
777.972755033877	869.799987792969
778.69715115953	868.799987792969
779.421456864441	868.599975585938
780.145672156493	868.799987792969
780.869797043587	869.799987792969
781.593831533611	866.400024414063
782.317775634457	867.400024414063
783.041629354012	868.400024414063
783.765392700174	869.599975585938
784.489065680828	868.599975585938
785.212648303866	869.200012207031
785.936140577177	867.599975585938
786.659542508652	866.799987792969
787.382854106174	867.599975585938
788.106075377639	867.200012207031
788.829206330928	868.200012207031
789.552246973933	868
790.275197314542	869
790.998057360638	870.400024414063
791.720827120108	869.599975585938
792.443506600841	869.799987792969
793.166095810722	868.799987792969
793.888594757635	868.400024414063
794.611003449465	869.200012207031
795.333321894098	868.200012207031
796.055550099417	869.200012207031
796.777688073308	869.799987792969
797.499735823654	868.599975585938
798.221693358334	869.400024414063
798.943560685235	867.799987792969
799.665337812239	868.200012207031
800.387024747226	870.599975585938
801.108621498075	868.400024414063
801.830128072674	867.799987792969
802.551544478902	869.200012207031
803.272870724636	867.799987792969
803.994106817761	867.599975585938
804.715252766148	867.200012207031
805.436308577687	868.599975585938
806.157274260251	867.599975585938
806.878149821721	869.200012207031
807.598935269973	869.200012207031
808.319630612886	869.799987792969
809.040235858336	870
809.760751014202	868.799987792969
810.481176088361	868.200012207031
811.201511088685	869
811.921756023059	867.200012207031
812.641910899347	868
813.361975725432	867.599975585938
814.081950509188	869.200012207031
814.801835258489	867.599975585938
815.521629981206	868.400024414063
816.241334685218	868.799987792969
816.960949378392	867
817.680474068606	868.799987792969
818.399908763731	869.799987792969
819.11925347164	869.799987792969
819.838508200202	868.599975585938
820.55767295729	867
821.276747750778	868.599975585938
821.995732588531	867.400024414063
822.714627478425	870.599975585938
823.433432428327	868.799987792969
824.152147446105	869.400024414063
824.870772539632	867
825.589307716775	869
826.307752985404	869
827.026108353378	868.599975585938
827.744373828579	868.200012207031
828.462549418867	869.599975585938
829.180635132107	869
829.898630976168	871.200012207031
830.616536958915	869.400024414063
831.334353088218	867.599975585938
832.052079371938	869.400024414063
832.769715817942	868.200012207031
833.487262434092	867.400024414063
834.204719228255	868.400024414063
834.922086208293	869
835.639363382073	868.599975585938
836.356550757456	867.599975585938
837.073648342304	867.799987792969
837.790656144484	869
838.507574171847	869.599975585938
839.22440243227	867.799987792969
839.941140933601	868.599975585938
840.657789683706	868.400024414063
841.374348690448	868.200012207031
842.090817961686	868
842.807197505276	869.599975585938
843.523487329083	868.400024414063
844.23968744096	868.599975585938
844.955797848771	870.599975585938
845.671818560374	869
846.387749583622	868.799987792969
847.103590926378	869.200012207031
847.819342596497	868.200012207031
848.535004601833	871
849.25057695025	870.799987792969
849.966059649598	868.400024414063
850.681452707735	868.799987792969
851.396756132513	868.799987792969
852.111969931789	870
852.827094113419	869.200012207031
853.542128685257	869.799987792969
854.257073655158	870.200012207031
854.971929030969	868.799987792969
855.686694820551	868.400024414063
856.40137103175	869.400024414063
857.115957672423	869.400024414063
857.830454750423	870.400024414063
858.544862273597	868.400024414063
859.259180249797	868.599975585938
859.97340868688	869
860.687547592688	869.799987792969
861.401596975075	871.200012207031
862.115556841891	869.799987792969
862.829427200985	868.599975585938
863.543208060205	868.799987792969
864.256899427402	869.599975585938
864.970501310423	868.400024414063
865.684013717114	869.799987792969
866.397436655325	868.599975585938
867.110770132901	868.400024414063
867.824014157691	870
868.537168737542	869.200012207031
869.250233880299	868.799987792969
869.963209593803	869.599975585938
870.676095885902	867.200012207031
871.388892764445	870.599975585938
872.101600237276	870.400024414063
872.814218312233	868.200012207031
873.526746997165	868.400024414063
874.239186299914	868.599975585938
874.951536228323	869.400024414063
875.663796790231	869.200012207031
876.375967993487	868.799987792969
877.088049845928	869
877.8000423554	868.799987792969
878.511945529739	867.599975585938
879.22375937679	870.400024414063
879.935483904388	868
880.64711912038	869.599975585938
881.358665032604	870.599975585938
882.070121648892	870.400024414063
882.78148897709	869.200012207031
883.492767025039	869.799987792969
884.203955800571	869.599975585938
884.915055311525	870
885.626065565741	869
886.336986571053	870.599975585938
887.047818335298	868.599975585938
887.758560866315	870.799987792969
888.469214171937	869.599975585938
889.179778260005	868.799987792969
889.890253138347	869.400024414063
890.600638814803	869.599975585938
891.310935297204	869.599975585938
892.021142593385	871.400024414063
892.731260711183	872
893.441289658429	869.799987792969
894.15122944295	869
894.861080072591	869.599975585938
895.570841555173	870
896.280513898534	867.200012207031
896.990097110503	870.400024414063
897.699591198913	870.200012207031
898.408996171595	868.400024414063
899.118312036375	869.799987792969
899.827538801089	869.200012207031
900.536676473561	870.400024414063
901.245725061628	870.200012207031
901.954684573109	870.799987792969
902.663555015838	868.400024414063
903.372336397644	870.400024414063
904.081028726351	870.799987792969
904.789632009793	869.799987792969
905.49814625579	871.400024414063
906.20657147217	870.400024414063
906.914907666765	871.799987792969
907.623154847391	868.799987792969
908.331313021885	869.200012207031
909.039382198064	870
909.747362383754	871.200012207031
910.455253586782	868.400024414063
911.163055814972	869.400024414063
911.870769076143	871.200012207031
912.578393378126	870.200012207031
913.285928728738	868.599975585938
913.993375135802	871.799987792969
914.700732607145	872
915.408001150579	870
916.115180773937	871.799987792969
916.822271485037	871.400024414063
917.529273291693	869.799987792969
918.236186201733	868
918.943010222971	870.400024414063
919.649745363234	870.400024414063
920.356391630333	870
921.062949032096	870.400024414063
921.769417576333	868.400024414063
922.475797270864	868.599975585938
923.182088123512	869
923.888290142089	869.799987792969
924.594403334414	869.400024414063
925.300427708304	870.599975585938
926.006363271572	869.799987792969
926.712210032039	869.200012207031
927.417967997522	872.200012207031
928.123637175827	867.799987792969
928.829217574776	871
929.534709202184	868.599975585938
930.240112065859	871.400024414063
930.945426173621	869
931.650651533283	869
932.355788152653	868.200012207031
933.060836039547	869.200012207031
933.765795201776	869.400024414063
934.470665647153	869.200012207031
935.175447383492	868.200012207031
935.880140418599	868.599975585938
936.584744760286	867.799987792969
937.289260416366	870.400024414063
937.993687394647	870.200012207031
938.698025702939	870.200012207031
939.402275349051	870.400024414063
940.106436340793	870.200012207031
940.810508685976	870.200012207031
941.5144923924	872.200012207031
942.21838746788	869
942.922193920223	869.400024414063
943.625911757231	871.200012207031
944.329540986716	868.599975585938
945.033081616484	869
945.736533654334	870.599975585938
946.439897108083	871.200012207031
947.143171985529	870.200012207031
947.846358294477	868.799987792969
948.549456042732	871
949.2524652381	872.200012207031
949.955385888382	870.200012207031
950.658218001384	869.400024414063
951.360961584907	870.799987792969
952.063616646755	870.799987792969
952.766183194733	868
953.468661236636	868.400024414063
954.171050780271	868.400024414063
954.873351833437	868.799987792969
955.575564403935	868
956.277688499565	869.799987792969
956.97972412813	868.599975585938
957.681671297424	870.400024414063
958.383530015255	869
959.085300289414	868.400024414063
959.786982127703	867.799987792969
960.488575537918	869.200012207031
961.190080527859	869
961.891497105327	868.599975585938
962.592825278111	869.400024414063
963.294065054012	869.799987792969
963.995216440829	869.400024414063
964.696279446353	870.400024414063
965.397254078383	870.799987792969
966.098140344714	869.599975585938
966.798938253139	868.799987792969
967.499647811456	869.599975585938
968.200269027458	869
968.900801908937	870
969.601246463685	869.200012207031
970.3016026995	869.200012207031
971.001870624169	869
971.702050245491	867.599975585938
972.402141571249	868.799987792969
973.102144609245	871
973.802059367267	870.200012207031
974.501885853103	868.400024414063
975.201624074541	870
975.901274039379	869.200012207031
976.600835755399	869
977.3003092304	870.599975585938
977.999694472158	869.200012207031
978.698991488473	871.200012207031
979.39820028713	869.400024414063
980.097320875915	871
980.796353262618	870.599975585938
981.495297455024	868.400024414063
982.194153460919	867.599975585938
982.892921288093	870.799987792969
983.591600944331	869.599975585938
984.290192437419	869.400024414063
984.98869577514	868.599975585938
985.687110965282	868.799987792969
986.385438015629	870.400024414063
987.083676933961	870.200012207031
987.781827728069	868.400024414063
988.479890405732	868.200012207031
989.177864974732	870
989.875751442857	870
990.573549817888	869
991.271260107602	871.200012207031
991.968882319786	869.200012207031
992.666416462217	869.400024414063
993.363862542681	871.400024414063
994.061220568959	868.200012207031
994.758490548823	869.599975585938
995.455672490061	871.200012207031
996.152766400451	870.799987792969
996.849772287773	870.799987792969
997.5466901598	869.200012207031
998.243520024317	869.799987792969
998.940261889097	868.200012207031
999.636915761923	867.400024414063
1000.33348165057	869.799987792969
1001.02995956281	868.400024414063
1001.72634950643	869.799987792969
1002.42265148919	869
1003.11886551889	869
1003.81499160328	867.400024414063
1004.51102975015	869
1005.20697996727	868.799987792969
1005.90284226242	868.599975585938
1006.59861664337	868.200012207031
1007.2943031179	871
1007.98990169377	866.799987792969
1008.68541237876	870.200012207031
1009.38083518064	867.599975585938
1010.07617010719	869.799987792969
1010.77141716617	870
1011.46657636536	870.799987792969
1012.16164771253	869.599975585938
1012.85663121546	868.599975585938
1013.5515268819	870.599975585938
1014.24633471963	871.799987792969
1014.94105473642	871
1015.63568694004	870
1016.33023133826	870.400024414063
1017.02468793885	868.400024414063
1017.71905674957	870
1018.41333777819	870.400024414063
1019.10753103249	870.599975585938
1019.80163652022	870.599975585938
1020.49565424916	870.200012207031
1021.18958422707	869.400024414063
1021.88342646171	871.799987792969
1022.57718096085	870.599975585938
1023.27084773227	871.400024414063
1023.96442678371	870.400024414063
1024.65791812296	871
1025.35132175776	870.400024414063
1026.04463769589	871.599975585938
1026.73786594511	871.799987792969
1027.43100651318	872.799987792969
1028.12405940786	872.599975585938
1028.81702463692	871.799987792969
1029.50990220812	873.200012207031
1030.20269212921	869.599975585938
1030.89539440798	871.599975585938
1031.58800905216	871
1032.28053606952	871.400024414063
1032.97297546784	871.599975585938
1033.66532725485	870.799987792969
1034.35759143832	872
1035.04976802602	872
1035.7418570257	871.599975585938
1036.43385844511	871.599975585938
1037.12577229202	869.599975585938
1037.81759857419	869.799987792969
1038.50933729937	871.799987792969
1039.20098847531	871.599975585938
1039.89255210978	871.599975585938
1040.58402821053	869.799987792969
1041.27541678532	870
1041.96671784191	872.200012207031
1042.65793138804	872.799987792969
1043.34905743147	870.799987792969
1044.04009597996	870.599975585938
1044.73104704125	871.400024414063
1045.42191062312	870.799987792969
1046.1126867333	870
1046.80337537955	870.200012207031
1047.49397656962	870.799987792969
1048.18449031127	871.599975585938
1048.87491661225	870.599975585938
1049.5652554803	871
1050.25550692319	871.599975585938
1050.94567094865	869.200012207031
1051.63574756444	870
1052.32573677832	871
1053.01563859803	871.599975585938
1053.70545303131	870
1054.39518008592	870.200012207031
1055.08481976961	870
1055.77437209013	870.799987792969
1056.46383705522	870
1057.15321467262	870.200012207031
1057.8425049501	870
1058.53170789539	870.400024414063
1059.22082351624	868.200012207031
1059.9098518204	870.400024414063
1060.59879281561	869.200012207031
1061.28764650962	869.400024414063
1061.97641291016	871.400024414063
1062.665092025	871.200012207031
1063.35368386187	869.599975585938
1064.04218842851	871
1064.73060573268	870.799987792969
1065.4189357821	871.599975585938
1066.10717858452	870.799987792969
1066.7953341477	869.400024414063
1067.48340247936	869.799987792969
1068.17138358725	871
1068.85927747912	869.599975585938
1069.5470841627	869.799987792969
1070.23480364573	870.400024414063
1070.92243593595	873
1071.60998104111	870.200012207031
1072.29743896894	871.400024414063
1072.98480972718	870.400024414063
1073.67209332357	871
1074.35928976585	870.200012207031
1075.04639906176	871.200012207031
1075.73342121903	869.400024414063
1076.42035624541	870.400024414063
1077.10720414862	869.200012207031
1077.79396493641	870.400024414063
1078.48063861651	869.799987792969
1079.16722519666	870.599975585938
1079.85372468459	870.599975585938
1080.54013708804	870.799987792969
1081.22646241474	869.200012207031
1081.91270067243	872
1082.59885186884	871
1083.28491601171	869.599975585938
1083.97089310877	868.599975585938
1084.65678316774	870.200012207031
1085.34258619637	870.799987792969
1086.02830220239	868.799987792969
1086.71393119352	870.200012207031
1087.39947317751	869.599975585938
1088.08492816207	870
1088.77029615495	868.799987792969
1089.45557716387	869.200012207031
1090.14077119656	869.799987792969
1090.82587826075	868.799987792969
1091.51089836417	872
1092.19583151456	869.400024414063
1092.88067771963	869.599975585938
1093.56543698712	870.200012207031
1094.25010932475	869.200012207031
1094.93469474026	867.200012207031
1095.61919324137	868
1096.3036048358	869.599975585938
1096.98792953129	870.599975585938
1097.67216733555	869.599975585938
1098.35631825632	867.599975585938
1099.04038230132	868.799987792969
1099.72435947828	869.799987792969
1100.40824979492	871
1101.09205325895	869.599975585938
1101.77576987812	870.400024414063
1102.45939966014	868.799987792969
1103.14294261273	870.599975585938
1103.82639874362	869
1104.50976806054	870.799987792969
1105.19305057119	871.599975585938
1105.87624628331	869.400024414063
1106.55935520461	870
1107.24237734283	870.799987792969
1107.92531270566	871.400024414063
1108.60816130085	871.400024414063
1109.2909231361	870.400024414063
1109.97359821914	871.200012207031
1110.65618655768	872
1111.33868815946	872.799987792969
1112.02110303217	871.200012207031
1112.70343118355	872.599975585938
1113.3856726213	870.400024414063
1114.06782735316	871.799987792969
1114.74989538683	870.799987792969
1115.43187673002	872.400024414063
1116.11377139047	873.599975585938
1116.79557937588	871.400024414063
1117.47730069397	872.200012207031
1118.15893535245	874.200012207031
1118.84048335904	874.400024414063
1119.52194472146	873.200012207031
1120.20331944741	872.200012207031
1120.88460754462	872.599975585938
1121.56580902079	872.599975585938
1122.24692388364	873.799987792969
1122.92795214088	872
1123.60889380022	872
1124.28974886938	872.400024414063
1124.97051735606	873.400024414063
1125.65119926799	874.599975585938
1126.33179461286	874.799987792969
1127.0123033984	873.799987792969
1127.6927256323	872.799987792969
1128.37306132229	872.400024414063
1129.05331047606	873.200012207031
1129.73347310134	872
1130.41354920582	871.799987792969
1131.09353879722	872.799987792969
1131.77344188324	871.799987792969
1132.45325847159	871.799987792969
1133.13298856999	869.200012207031
1133.81263218612	870.400024414063
1134.49218932772	872.799987792969
1135.17166000247	875
1135.85104421809	873.799987792969
1136.53034198227	873.200012207031
1137.20955330274	874.400024414063
1137.88867818718	871.400024414063
1138.56771664331	871.599975585938
1139.24666867883	874
1139.92553430144	870.599975585938
1140.60431351885	872.599975585938
1141.28300633876	872.799987792969
1141.96161276887	873.200012207031
1142.64013281689	872.200012207031
1143.31856649051	871
1143.99691379744	871.799987792969
1144.67517474538	871.400024414063
1145.35334934203	871.599975585938
1146.03143759509	871.200012207031
1146.70943951226	872.200012207031
1147.38735510125	871.799987792969
1148.06518436974	872
1148.74292732545	874.400024414063
1149.42058397606	871.200012207031
1150.09815432928	874
1150.7756383928	871.400024414063
1151.45303617432	873.400024414063
1152.13034768155	872.599975585938
1152.80757292217	872.400024414063
1153.48471190389	873.400024414063
1154.16176463439	875.400024414063
1154.83873112138	872.799987792969
1155.51561137255	872
1156.1924053956	873.200012207031
1156.86911319822	875
1157.5457347881	872
1158.22227017294	872.599975585938
1158.89871936044	873.599975585938
1159.57508235828	873
1160.25135917416	873.200012207031
1160.92754981578	873.200012207031
1161.60365429081	871.200012207031
1162.27967260697	871.200012207031
1162.95560477193	872
1163.63145079339	872.599975585938
1164.30721067904	871.799987792969
1164.98288443657	871.799987792969
1165.65847207367	871.400024414063
1166.33397359803	872.599975585938
1167.00938901735	873.599975585938
1167.6847183393	872
1168.35996157157	872.200012207031
1169.03511872187	872
1169.71018979787	871
1170.38517480726	869.599975585938
1171.06007375773	872
1171.73488665696	872.200012207031
1172.40961351265	873
1173.08425433247	872.799987792969
1173.75880912412	871
1174.43327789528	872.400024414063
1175.10766065364	869.400024414063
1175.78195740687	872.200012207031
1176.45616816267	872.400024414063
1177.13029292871	872
1177.80433171269	873.200012207031
1178.47828452229	871
1179.15215136518	871.599975585938
1179.82593224905	871.400024414063
1180.49962718159	872.400024414063
1181.17323617047	872.799987792969
1181.84675922337	871.799987792969
1182.52019634799	872
1183.193547552	872.200012207031
1183.86681284307	872
1184.53999222889	870.400024414063
1185.21308571714	870.599975585938
1185.8860933155	871.200012207031
1186.55901503165	870.200012207031
1187.23185087326	871.799987792969
1187.90460084802	871.200012207031
1188.5772649636	873.400024414063
1189.24984322768	870.599975585938
1189.92233564794	874
1190.59474223206	873
1191.2670629877	872
1191.93929792255	871.799987792969
1192.61144704428	872.599975585938
1193.28351036058	875
1193.9554878791	872.799987792969
1194.62737960754	875
1195.29918555356	873.400024414063
1195.97090572483	873
1196.64254012903	872
1197.31408877384	872.799987792969
1197.98555166693	874
1198.65692881596	872.400024414063
1199.32822022862	871.799987792969
1199.99942591256	871.200012207031
1200.67054587548	873.400024414063
1201.34158012503	872.200012207031
1202.01252866889	874
1202.68339151473	870.599975585938
1203.35416867021	873.599975585938
1204.02486014301	872.599975585938
1204.6954659408	873.799987792969
1205.36598607124	872.799987792969
1206.03642054201	877.200012207031
1206.70676936078	876
1207.3770325352	874
1208.04721007295	873.200012207031
1208.7173019817	873.599975585938
1209.38730826911	873.400024414063
1210.05722894285	874.200012207031
1210.72706401059	874.599975585938
1211.39681347999	875.599975585938
1212.06647735872	873.200012207031
1212.73605565444	870.400024414063
1213.40554837481	875
1214.07495552751	871.799987792969
1214.74427712019	874.599975585938
1215.41351316052	873.200012207031
1216.08266365617	874.400024414063
1216.75172861479	874.200012207031
1217.42070804405	874.200012207031
1218.0896019516	874.400024414063
1218.75841034513	874.599975585938
1219.42713323227	874
1220.0957706207	874.599975585938
1220.76432251808	875
1221.43278893207	876.599975585938
1222.10116987032	874.799987792969
1222.7694653405	876
1223.43767535026	873.599975585938
1224.10579990727	876.200012207031
1224.77383901918	875.400024414063
1225.44179269366	873.200012207031
1226.10966093835	876.200012207031
1226.77744376093	874.799987792969
1227.44514116904	875
1228.11275317034	873.400024414063
1228.78027977249	874.799987792969
1229.44772098315	873.599975585938
1230.11507680996	873.400024414063
1230.7823472606	874.200012207031
1231.44953234271	876.200012207031
1232.11663206394	874.200012207031
1232.78364643195	872.200012207031
1233.4505754544	874.400024414063
1234.11741913894	873.799987792969
1234.78417749322	877
1235.45085052489	875.400024414063
1236.11743824162	875.400024414063
1236.78394065104	878.400024414063
1237.45035776082	873.599975585938
1238.1166895786	874.599975585938
1238.78293611204	875
1239.44909736878	872.400024414063
1240.11517335648	874.200012207031
1240.78116408279	877.200012207031
1241.44706955535	877.200012207031
1242.11288978182	875
1242.77862476985	875.200012207031
1243.44427452708	874.200012207031
1244.10983906116	875.200012207031
1244.77531837974	876.400024414063
1245.44071249047	872.799987792969
1246.106021401	877.400024414063
1246.77124511898	874.599975585938
1247.43638365204	876.799987792969
1248.10143700783	875.799987792969
1248.76640519401	872.200012207031
1249.43128821822	874.799987792969
1250.0960860881	872.599975585938
1250.76079881129	874.599975585938
1251.42542639545	876.599975585938
1252.08996884822	872.599975585938
1252.75442617723	875.400024414063
1253.41879839014	874.799987792969
1254.08308549458	875.200012207031
1254.74728749821	872.799987792969
1255.41140440866	875
1256.07543623357	874.200012207031
1256.73938298059	872.599975585938
1257.40324465735	875
1258.0670212715	874.599975585938
1258.73071283068	874.599975585938
1259.39431934253	876.400024414063
1260.05784081468	876.200012207031
1260.72127725479	873.799987792969
1261.38462867049	874
1262.0478950694	872
1262.71107645919	872.400024414063
1263.37417284748	873.599975585938
1264.03718424191	871.799987792969
1264.70011065011	874.200012207031
1265.36295207974	872.400024414063
1266.02570853841	873.799987792969
1266.68838003378	875
1267.35096657346	874.200012207031
1268.01346816511	874
1268.67588481636	874
1269.33821653483	873.799987792969
1270.00046332817	873.599975585938
1270.66262520401	874.400024414063
1271.32470216998	875.599975585938
1271.98669423372	876.799987792969
1272.64860140285	876.400024414063
1273.31042368503	874.200012207031
1273.97216108786	875.200012207031
1274.633813619	875.200012207031
1275.29538128606	875.799987792969
1275.95686409669	874
1276.6182620585	876.799987792969
1277.27957517914	874
1277.94080346624	874.200012207031
1278.60194692741	873.400024414063
1279.2630055703	876.799987792969
1279.92397940253	875.200012207031
1280.58486843173	876.599975585938
1281.24567266552	876.799987792969
1281.90639211155	873.799987792969
1282.56702677743	872.799987792969
1283.2275766708	873.799987792969
1283.88804179927	874.200012207031
1284.54842217049	874
1285.20871779206	873.799987792969
1285.86892867163	875.400024414063
1286.52905481681	875.599975585938
1287.18909623523	877.400024414063
1287.84905293452	875.400024414063
1288.5089249223	875.200012207031
1289.16871220619	875.799987792969
1289.82841479383	874.799987792969
1290.48803269282	876.599975585938
1291.1475659108	872.599975585938
1291.80701445539	876.200012207031
1292.46637833421	875.200012207031
1293.12565755489	876.200012207031
1293.78485212504	876.400024414063
1294.44396205229	875.599975585938
1295.10298734425	877.400024414063
1295.76192800856	875.200012207031
1296.42078405283	875.599975585938
1297.07955548467	875
1297.73824231171	874.200012207031
1298.39684454158	877
1299.05536218188	874.799987792969
1299.71379524023	873.400024414063
1300.37214372427	876.400024414063
1301.03040764159	876
1301.68858699983	875.599975585938
1302.34668180659	876.400024414063
1303.0046920695	877.599975585938
1303.66261779617	875
1304.32045899422	878.400024414063
1304.97821567126	877.799987792969
1305.63588783492	878
1306.29347549279	877.200012207031
1306.95097865251	877.599975585938
1307.60839732168	878
1308.26573150791	877.400024414063
1308.92298121883	873.599975585938
1309.58014646204	876.400024414063
1310.23722724517	876.400024414063
1310.89422357581	877.200012207031
1311.55113546158	876.599975585938
1312.2079629101	879.400024414063
1312.86470592898	877.400024414063
1313.52136452582	878.200012207031
1314.17793870824	878.400024414063
1314.83442848386	879.400024414063
1315.49083386027	880
1316.14715484509	876.400024414063
1316.80339144594	876.599975585938
1317.45954367041	875.799987792969
1318.11561152611	878
1318.77159502067	876.599975585938
1319.42749416168	878.599975585938
1320.08330895674	877.799987792969
1320.73903941348	877.599975585938
1321.3946855395	878.599975585938
1322.0502473424	877
1322.70572482978	879.400024414063
1323.36111800926	877.599975585938
1324.01642688845	880
1324.67165147494	881.200012207031
1325.32679177634	878.599975585938
1325.98184780025	880.400024414063
1326.63681955429	877.799987792969
1327.29170704605	877.599975585938
1327.94651028314	878.400024414063
1328.60122927316	879
1329.25586402371	878.400024414063
1329.9104145424	878.799987792969
1330.56488083683	879.799987792969
1331.2192629146	878.200012207031
1331.87356078331	881
1332.52777445056	878.200012207031
1333.18190392395	878.200012207031
1333.83594921109	876
1334.48991031958	877.200012207031
1335.143787257	878.799987792969
1335.79758003097	876
1336.45128864908	877
1337.10491311893	876.599975585938
1337.75845344813	879.200012207031
1338.41190964425	877.799987792969
1339.06528171491	878.400024414063
1339.71856966771	878.400024414063
1340.37177351023	878
1341.02489325007	877.400024414063
1341.67792889484	878.799987792969
1342.33088045212	879
1342.98374792952	877.200012207031
1343.63653133462	878.599975585938
1344.28923067503	876.799987792969
1344.94184595833	876.200012207031
1345.59437719212	877.799987792969
1346.246824384	878.799987792969
1346.89918754155	875.799987792969
1347.55146667238	881.599975585938
1348.20366178407	876.799987792969
1348.85577288421	876.400024414063
1349.50779998041	878.200012207031
1350.15974308024	878.200012207031
1350.8116021913	880.799987792969
1351.46337732119	880.799987792969
1352.11506847748	879
1352.76667566778	880
1353.41819889967	879.200012207031
1354.06963818074	879.599975585938
1354.72099351858	878
1355.37226492079	878.200012207031
1356.02345239494	878.799987792969
1356.67455594862	880.200012207031
1357.32557558943	879.200012207031
1357.97651132496	879
1358.62736316277	879.400024414063
1359.27813111048	878.599975585938
1359.92881517565	880.599975585938
1360.57941536589	878.400024414063
1361.22993168876	880.200012207031
1361.88036415186	880.200012207031
1362.53071276278	878
1363.1809775291	880.200012207031
1363.8311584584	879.799987792969
1364.48125555826	879
1365.13126883627	878.799987792969
1365.78119830001	877.200012207031
1366.43104395707	879.400024414063
1367.08080581503	877.599975585938
1367.73048388147	879.200012207031
1368.38007816397	877.799987792969
1369.02958867011	878.599975585938
1369.67901540748	878
1370.32835838365	880
1370.9776176062	878.200012207031
1371.62679308273	878.799987792969
1372.27588482079	878.599975585938
1372.92489282798	878.799987792969
1373.57381711188	880.799987792969
1374.22265768006	877
1374.87141454009	877.400024414063
1375.52008769957	879.799987792969
1376.16867716606	877.400024414063
1376.81718294715	877.599975585938
1377.4656050504	878.400024414063
1378.1139434834	880.599975585938
1378.76219825373	878.799987792969
1379.41036936895	879.200012207031
1380.05845683664	879.400024414063
1380.70646066439	882
1381.35438085976	880.400024414063
1382.00221743032	879.799987792969
1382.64997038366	877.200012207031
1383.29763972735	880.799987792969
1383.94522546895	878.599975585938
1384.59272761605	880.400024414063
1385.24014617621	878.599975585938
1385.88748115701	881.400024414063
1386.53473256602	880.799987792969
1387.18190041081	881.200012207031
1387.82898469895	881
1388.47598543802	878
1389.12290263558	882.599975585938
1389.7697362992	881.799987792969
1390.41648643646	879.799987792969
1391.06315305492	879
1391.70973616215	880.799987792969
1392.35623576573	880.799987792969
1393.00265187321	879.599975585938
1393.64898449217	879.200012207031
1394.29523363018	878.400024414063
1394.94139929481	879
1395.58748149361	879.200012207031
1396.23348023415	879.400024414063
1396.87939552402	879.200012207031
1397.52522737076	881.400024414063
1398.17097578195	878.599975585938
1398.81664076514	880.799987792969
1399.46222232792	879.400024414063
1400.10772047783	878.400024414063
1400.75313522245	882.799987792969
1401.39846656934	881.599975585938
1402.04371452605	880.799987792969
1402.68887910016	879.799987792969
1403.33396029924	880.400024414063
1403.97895813083	881.200012207031
1404.6238726025	878.200012207031
1405.26870372182	877.200012207031
1405.91345149634	878.400024414063
1406.55811593363	877.799987792969
1407.20269704125	879.599975585938
1407.84719482676	876.599975585938
1408.49160929772	878.599975585938
1409.13594046168	879.599975585938
1409.78018832622	879.400024414063
1410.42435289887	879.799987792969
1411.06843418722	879.400024414063
1411.7124321988	881.200012207031
1412.3563469412	879.799987792969
1413.00017842194	878.799987792969
1413.64392664861	883
1414.28759162875	880.400024414063
1414.93117336992	878.200012207031
1415.57467187967	879.200012207031
1416.21808716557	878.400024414063
1416.86141923516	879
1417.50466809601	881.200012207031
1418.14783375567	881.400024414063
1418.79091622169	880
1419.43391550162	878.799987792969
1420.07683160303	879.799987792969
1420.71966453346	882.799987792969
1421.36241430046	881.799987792969
1422.0050809116	879.400024414063
1422.64766437442	882.400024414063
1423.29016469647	880.200012207031
1423.93258188531	881.799987792969
1424.57491594848	883.200012207031
1425.21716689354	882.599975585938
1425.85933472805	881.400024414063
1426.50141945954	883
1427.14342109557	885.200012207031
1427.78533964369	883.400024414063
1428.42717511144	882.400024414063
1429.06892750639	882.200012207031
1429.71059683607	883
1430.35218310803	883.599975585938
1430.99368632983	882
1431.635106509	886.599975585938
1432.2764436531	885.599975585938
1432.91769776967	885
1433.55886886627	884
1434.19995695043	884
1434.84096202969	882.599975585938
1435.48188411162	883.599975585938
1436.12272320375	882.400024414063
1436.76347931363	883.799987792969
1437.40415244879	884.799987792969
1438.0447426168	886
1438.68524982518	885.799987792969
1439.32567408148	885.200012207031
1439.96601539325	884.200012207031
1440.60627376803	882.200012207031
1441.24644921336	883
1441.88654173678	883.200012207031
1442.52655134583	883.599975585938
1443.16647804806	882.400024414063
1443.806321851	885
1444.4460827622	884.400024414063
1445.0857607892	886.200012207031
1445.72535593953	883.400024414063
1446.36486822074	882.400024414063
1447.00429764037	882.200012207031
1447.64364420595	881.599975585938
1448.28290792502	883
1448.92208880512	883.599975585938
1449.56118685379	883.599975585938
1450.20020207857	884.599975585938
1450.83913448699	882.799987792969
1451.47798408659	884.200012207031
1452.1167508849	884.400024414063
1452.75543488947	884.200012207031
1453.39403610782	884.400024414063
1454.0325545475	883.400024414063
1454.67099021603	882.400024414063
1455.30934312097	883
1455.94761326982	882.200012207031
1456.58580067014	882
1457.22390532945	883.200012207031
1457.86192725529	881.799987792969
1458.49986645519	881.599975585938
1459.13772293668	879
1459.7754967073	880.599975585938
1460.41318777457	881
1461.05079614604	882.400024414063
1461.68832182922	879.599975585938
1462.32576483166	882.799987792969
1462.96312516087	880.599975585938
1463.6004028244	879.599975585938
1464.23759782977	879.599975585938
1464.8747101845	881.799987792969
1465.51173989614	881.200012207031
1466.14868697221	882.200012207031
1466.78555142024	881
1467.42233324774	880.400024414063
1468.05903246227	880.599975585938
1468.69564907133	880.400024414063
1469.33218308246	879.400024414063
1469.96863450317	880.400024414063
1470.60500334102	880.599975585938
1471.2412896035	881.200012207031
1471.87749329816	880
1472.51361443251	878.599975585938
1473.14965301409	880.799987792969
1473.78560905041	879.400024414063
1474.421482549	881.200012207031
1475.05727351739	879.400024414063
1475.69298196309	881.799987792969
1476.32860789364	877.599975585938
1476.96415131654	881.799987792969
1477.59961223934	879.799987792969
1478.23499066954	880.200012207031
1478.87028661467	879.799987792969
1479.50550008226	884.799987792969
1480.14063107981	879.400024414063
1480.77567961486	881.200012207031
1481.41064569492	878
1482.04552932752	883.599975585938
1482.68033052017	880.200012207031
1483.31504928039	881.200012207031
1483.9496856157	880.799987792969
1484.58423953363	881.599975585938
1485.21871104168	881.400024414063
1485.85310014738	882.400024414063
1486.48740685824	881.599975585938
1487.12163118178	881
1487.75577312553	880.200012207031
1488.38983269698	879
1489.02380990367	879.799987792969
1489.65770475311	879.400024414063
1490.29151725281	878
1490.92524741029	880.200012207031
1491.55889523306	881.200012207031
1492.19246072863	879
1492.82594390453	879.599975585938
1493.45934476826	877.599975585938
1494.09266332734	880.400024414063
1494.72589958928	877.799987792969
1495.3590535616	879.200012207031
1495.99212525181	879.400024414063
1496.62511466741	881.200012207031
1497.25802181592	882.400024414063
1497.89084670485	884.599975585938
1498.52358934172	881.599975585938
1499.15624973403	881.400024414063
1499.7888278893	881.400024414063
1500.42132381503	879.200012207031
1501.05373751873	880
1501.68606900792	880.400024414063
1502.31831829009	880.599975585938
1502.95048537277	881
1503.58257026346	880
1504.21457296966	880.200012207031
1504.84649349889	879
1505.47833185864	880.200012207031
1506.11008805644	881.200012207031
1506.74176209978	881.599975585938
1507.37335399617	878.599975585938
1508.00486375312	880.400024414063
1508.63629137813	880.400024414063
1509.2676368787	880.200012207031
1509.89890026235	881.400024414063
1510.53008153658	878.799987792969
1511.16118070889	881.400024414063
1511.79219778677	878.200012207031
1512.42313277775	879.599975585938
1513.05398568932	879.200012207031
1513.68475652898	880.599975585938
1514.31544530424	878.200012207031
1514.9460520226	880.799987792969
1515.57657669155	880.599975585938
1516.20701931861	878.200012207031
1516.83737991127	878.799987792969
1517.46765847702	877.799987792969
1518.09785502339	879.400024414063
1518.72796955785	880.799987792969
1519.35800208792	880
1519.98795262109	880
1520.61782116486	879.599975585938
1521.24760772673	878.799987792969
1521.87731231419	879.799987792969
1522.50693493475	880
1523.1364755959	880.799987792969
1523.76593430514	879.200012207031
1524.39531106997	876.799987792969
1525.02460589788	878.400024414063
1525.65381879637	877.200012207031
1526.28294977293	880.200012207031
1526.91199883507	877.599975585938
1527.54096599027	879.599975585938
1528.16985124603	879.599975585938
1528.79865460984	877.799987792969
1529.4273760892	877.599975585938
1530.05601569161	878.400024414063
1530.68457342455	877.400024414063
1531.31304929552	877
1531.94144331201	876.400024414063
1532.56975548151	875
1533.19798581152	879.799987792969
1533.82613430953	876.400024414063
1534.45420098302	876
1535.08218583949	877
1535.71008888643	878
1536.33791013134	878.200012207031
1536.96564958169	877.400024414063
1537.59330724498	878.599975585938
1538.22088312871	877
1538.84837724034	877.200012207031
1539.47578958739	876.200012207031
1540.10312017733	877.799987792969
1540.73036901765	878
1541.35753611584	876.799987792969
1541.98462147939	877.799987792969
1542.61162511578	879.400024414063
1543.2385470325	877
1543.86538723704	878
1544.49214573688	879.200012207031
1545.11882253951	876.599975585938
1545.74541765241	878.400024414063
1546.37193108306	878.799987792969
1546.99836283896	878.599975585938
1547.62471292758	876.200012207031
1548.25098135641	877.200012207031
1548.87716813294	878
1549.50327326464	879
1550.12929675899	879.799987792969
1550.75523862349	877.799987792969
1551.38109886561	878.200012207031
1552.00687749284	877
1552.63257451264	878.400024414063
1553.25818993252	877.200012207031
1553.88372375994	876.799987792969
1554.50917600239	880
1555.13454666734	879
1555.75983576228	879.799987792969
1556.38504329469	876.599975585938
1557.01016927204	877.799987792969
1557.63521370181	878
1558.26017659149	877.200012207031
1558.88505794854	879
1559.50985778045	878.599975585938
1560.13457609469	877.599975585938
1560.75921289874	881.200012207031
1561.38376820008	878.400024414063
1562.00824200618	879
1562.63263432452	876.799987792969
1563.25694516257	876.400024414063
1563.88117452781	875.599975585938
1564.50532242772	874.799987792969
1565.12938886976	877.400024414063
1565.75337386141	877.799987792969
1566.37727741015	876.200012207031
1567.00109952345	880.799987792969
1567.62484020878	878.599975585938
1568.24849947361	877
1568.87207732542	877.799987792969
1569.49557377168	877
1570.11898881986	877
1570.74232247743	878.200012207031
1571.36557475186	879.200012207031
1571.98874565062	879.400024414063
1572.61183518119	879.400024414063
1573.23484335103	878.799987792969
1573.85777016761	879.200012207031
1574.4806156384	878
1575.10337977088	880
1575.7260625725	879.799987792969
1576.34866405074	880.200012207031
1576.97118421306	879
1577.59362306694	879
1578.21598061984	877.200012207031
1578.83825687922	880
1579.46045185255	879.400024414063
1580.08256554731	879.400024414063
1580.70459797094	876.799987792969
1581.32654913093	878.799987792969
1581.94841903473	876.799987792969
1582.57020768981	878.200012207031
1583.19191510364	878.400024414063
1583.81354128367	877.400024414063
1584.43508623737	878.400024414063
1585.05654997221	877.599975585938
1585.67793249564	876.599975585938
1586.29923381514	878.200012207031
1586.92045393815	877.599975585938
1587.54159287216	878.200012207031
1588.1626506246	877
1588.78362720296	878
1589.40452261468	878.599975585938
1590.02533686724	876.599975585938
1590.64606996808	881
1591.26672192467	880.599975585938
1591.88729274447	877.400024414063
1592.50778243493	879.599975585938
1593.12819100352	878.799987792969
1593.7485184577	879
1594.36876480492	878
1594.98893005264	879
1595.60901420832	877.400024414063
1596.22901727941	878
1596.84893927338	878.400024414063
1597.46878019767	879.599975585938
1598.08854005975	880.799987792969
1598.70821886707	880.400024414063
1599.32781662708	878.599975585938
1599.94733334725	879.799987792969
1600.56676903502	880.599975585938
1601.18612369785	878
1601.8053973432	878.599975585938
1602.42458997851	878
1603.04370161124	879
1603.66273224884	880.400024414063
1604.28168189878	879.200012207031
1604.90055056849	881.200012207031
1605.51933826543	881.400024414063
1606.13804499705	879.200012207031
1606.75667077081	880
1607.37521559415	880.599975585938
1607.99367947452	878.599975585938
1608.61206241938	882
1609.23036443618	881
1609.84858553236	880.599975585938
1610.46672571537	881.200012207031
1611.08478499267	882.400024414063
1611.7027633717	883.599975585938
1612.3206608599	884.400024414063
1612.93847746473	880.400024414063
1613.55621319364	881.400024414063
1614.17386805407	883.400024414063
1614.79144205347	882
1615.40893519928	881.200012207031
1616.02634749895	882.599975585938
1616.64367895993	882.400024414063
1617.26092958966	882.799987792969
1617.87809939559	882
1618.49518838516	883.400024414063
1619.11219656582	884
1619.729123945	885.599975585938
1620.34597053016	884.200012207031
1620.96273632874	881.200012207031
1621.57942134818	887.799987792969
1622.19602559592	884.599975585938
1622.8125490794	881.799987792969
1623.42899180607	883.799987792969
1624.04535378337	881.200012207031
1624.66163501874	881.599975585938
1625.27783551963	884.599975585938
1625.89395529346	883.599975585938
1626.50999434768	881.200012207031
1627.12595268974	880.799987792969
1627.74183032707	879.799987792969
1628.3576272671	881.400024414063
1628.97334351729	880.400024414063
1629.58897908506	879.400024414063
1630.20453397786	878.599975585938
1630.82000820313	877
1631.43540176829	877.799987792969
1632.05071468079	878
1632.66594694807	876.799987792969
1633.28109857756	876.200012207031
1633.8961695767	874.799987792969
1634.51115995292	873.599975585938
1635.12606971366	876.799987792969
1635.74089886636	874.599975585938
1636.35564741844	872.799987792969
1636.97031537734	873.799987792969
1637.58490275051	875
1638.19940954536	873.799987792969
1638.81383576934	874.200012207031
1639.42818142987	871.400024414063
1640.0424465344	874
1640.65663109034	872.400024414063
1641.27073510515	870.599975585938
1641.88475858623	869.599975585938
1642.49870154104	871.599975585938
1643.11256397699	870.400024414063
1643.72634590152	870.400024414063
1644.34004732206	868.599975585938
1644.95366824604	873
1645.56720868089	871.200012207031
1646.18066863404	873.400024414063
1646.79404811291	871.200012207031
1647.40734712494	870
1648.02056567755	870.400024414063
1648.63370377817	869.400024414063
1649.24676143423	871.400024414063
1649.85973865316	870.200012207031
1650.47263544238	870
1651.08545180932	870.799987792969
1651.6981877614	870.400024414063
1652.31084330606	870.200012207031
1652.92341845071	869.599975585938
1653.53591320278	870.400024414063
1654.1483275697	869.400024414063
1654.7606615589	872
1655.37291517778	869.200012207031
1655.98508843379	868.799987792969
1656.59718133434	871
1657.20919388685	869.799987792969
1657.82112609875	870.799987792969
1658.43297797747	872
1659.04474953041	870
1659.65644076501	870.599975585938
1660.26805168869	871.200012207031
1660.87958230886	871.200012207031
1661.49103263294	869.400024414063
1662.10240266837	869.400024414063
1662.71369242255	868
1663.32490190291	869.799987792969
1663.93603111687	871
1664.54708007184	868.599975585938
1665.15804877524	869
1665.7689372345	868.799987792969
1666.37974545703	868.400024414063
1666.99047345024	869.400024414063
1667.60112122156	870
1668.2116887784	868
1668.82217612818	868
1669.43258327831	871.200012207031
1670.04291023622	869.200012207031
1670.65315700931	870.200012207031
1671.263323605	868.200012207031
1671.8734100307	869.400024414063
1672.48341629384	870.599975585938
1673.09334240182	870.599975585938
1673.70318836206	869.200012207031
1674.31295418197	869.200012207031
1674.92263986896	868.400024414063
1675.53224543046	870.599975585938
1676.14177087386	868.799987792969
1676.75121620658	868.799987792969
1677.36058143604	868.400024414063
1677.96986656964	869.799987792969
1678.5790716148	868.599975585938
1679.18819657892	868.200012207031
1679.79724146943	869.200012207031
1680.40620629372	869.599975585938
1681.0150910592	868.200012207031
1681.6238957733	867.400024414063
1682.23262044341	868
1682.84126507694	869.799987792969
1683.4498296813	868.799987792969
1684.0583142639	868.799987792969
1684.66671883216	867.599975585938
1685.27504339346	867.599975585938
1685.88328795523	868.400024414063
1686.49145252487	869.599975585938
1687.09953710978	866.599975585938
1687.70754171737	867.599975585938
1688.31546635505	869.400024414063
1688.92331103021	867.200012207031
1689.53107575028	867.200012207031
1690.13876052265	866.200012207031
1690.74636535472	868.599975585938
1691.3538902539	867.400024414063
1691.96133522759	866.599975585938
1692.5687002832	868.799987792969
1693.17598542812	868.200012207031
1693.78319066977	869
1694.39031601554	869
1694.99736147283	869
1695.60432704905	868.400024414063
1696.2112127516	869.400024414063
1696.81801858788	869
1697.42474456528	869.599975585938
1698.03139069121	866
1698.63795697307	868.799987792969
1699.24444341826	868.200012207031
1699.85085003417	869.599975585938
1700.45717682821	867.400024414063
1701.06342380778	867.400024414063
1701.66959098026	867.200012207031
1702.27567835307	869.799987792969
1702.88168593359	869.200012207031
1703.48761372922	867
1704.09346174737	866
1704.69922999542	867.200012207031
1705.30491848077	867.599975585938
1705.91052721083	866
1706.51605619297	868
1707.12150543461	867.599975585938
1707.72687494312	867.200012207031
1708.33216472592	866.599975585938
1708.93737479039	867
1709.54250514392	867.400024414063
