634.977642221345	882.799987792969
635.719821695905	882.599975585938
636.461909203392	884.200012207031
637.203904751776	883.200012207031
637.945808349023	885.400024414063
638.687620003102	884.200012207031
639.42933972198	885
640.170967513616	883.799987792969
640.912503385981	884.200012207031
641.653947347041	882.599975585938
642.395299404758	884
643.13655956709	884.200012207031
643.877727842014	882.200012207031
644.61880423748	882.599975585938
645.359788761455	884.799987792969
646.100681421905	882.799987792969
646.841482226789	882.400024414063
647.582191184074	881.599975585938
648.322808301711	885.400024414063
649.06333358767	887.799987792969
649.803767049909	884.599975585938
650.544108696385	883.400024414063
651.28435853506	884.599975585938
652.024516573894	884.599975585938
652.764582820849	885.799987792969
653.504557283875	885
654.244439970937	884.799987792969
654.984230889991	885.200012207031
655.723930048995	884.799987792969
656.463537455909	884.400024414063
657.203053118683	887
657.942477045275	885.200012207031
658.681809243647	884.599975585938
659.421049721747	883.200012207031
660.160198487535	882
660.899255548962	883.799987792969
661.638220913985	884
662.377094590559	881.799987792969
663.115876586631	885
663.854566910165	885.200012207031
664.593165569107	883.200012207031
665.331672571406	886.200012207031
666.07008792502	887.599975585938
666.808411637902	887.200012207031
667.546643717996	886.599975585938
668.284784173258	881.799987792969
669.022833011641	883.400024414063
669.760790241089	884
670.498655869554	882.599975585938
671.236429904987	886.400024414063
671.97411235534	886
672.711703228551	888.200012207031
673.449202532577	887.200012207031
674.186610275364	887.200012207031
674.923926464857	886.599975585938
675.661151109008	885.799987792969
676.398284215759	884.200012207031
677.135325793058	884
677.87227584885	886.799987792969
678.609134391082	890.799987792969
679.345901427696	885.799987792969
680.082576966644	884.400024414063
680.819161015861	886.599975585938
681.555653583298	884.200012207031
682.292054676895	886.200012207031
683.028364304594	886.400024414063
683.764582474344	883.599975585938
684.500709194083	883
685.236744471752	883.599975585938
685.972688315294	886.400024414063
686.708540732652	884
687.444301731762	883.799987792969
688.179971320572	883.200012207031
688.915549507013	883.200012207031
689.651036299034	884.599975585938
690.386431704569	884.799987792969
691.121735731559	884.599975585938
691.85694838794	883.400024414063
692.592069681652	883
693.327099620632	882.599975585938
694.062038212821	886.200012207031
694.796885466149	881
695.531641388561	885
696.266305987987	883.599975585938
697.000879272367	884.799987792969
697.735361249632	884.599975585938
698.469751927722	887.599975585938
699.204051314568	884.200012207031
699.938259418107	881.599975585938
700.672376246272	883.200012207031
701.406401806997	884.599975585938
702.140336108212	884.200012207031
702.874179157855	885
703.607930963856	885.200012207031
704.341591534147	883.799987792969
705.07516087666	881.400024414063
705.808638999324	884.400024414063
706.542025910073	883.400024414063
707.275321616841	884.200012207031
708.008526127549	883
708.741639450132	883
709.474661592521	881.200012207031
710.207592562641	880
710.940432368424	884.400024414063
711.673181017796	886
712.405838518687	883.599975585938
713.138404879025	883.599975585938
713.870880106731	883.599975585938
714.603264209738	883
715.335557195971	884.200012207031
716.067759073357	884
716.799869849816	884
717.531889533281	882.599975585938
718.263818131673	882.599975585938
718.995655652917	887
719.727402104934	883
720.45905749565	883
721.19062183299	886
721.922095124877	885.200012207031
722.653477379231	882.799987792969
723.384768603973	884.599975585938
724.11596880703	885
724.847077996319	882.599975585938
725.578096179762	883.799987792969
726.309023365281	885
727.039859560792	884.599975585938
727.770604774222	885.599975585938
728.501259013484	883.400024414063
729.231822286501	882.799987792969
729.962294601191	883.200012207031
730.692675965469	882.400024414063
731.42296638726	885.799987792969
732.153165874472	884.200012207031
732.883274435032	883
733.613292076851	883.799987792969
734.343218807843	881
735.07305463593	884.599975585938
735.802799569028	881.400024414063
736.532453615048	880
737.262016781904	885
737.991489077517	884.400024414063
738.720870509794	883
739.450161086654	884.200012207031
740.179360816009	883.599975585938
740.908469705772	882.200012207031
741.637487763854	881.599975585938
742.366414998168	883.799987792969
743.095251416623	882.599975585938
743.823997027137	882
744.552651837618	884
745.281215855978	884
746.009689090124	883.200012207031
746.738071547964	881.599975585938
747.466363237419	882.400024414063
748.194564166384	883.599975585938
748.92267434278	881.400024414063
749.650693774504	881
750.378622469476	883
751.106460435596	883.200012207031
751.834207680771	882.799987792969
752.561864212909	884.799987792969
753.289430039919	884
754.016905169707	884.400024414063
754.744289610175	882.400024414063
755.471583369231	881.599975585938
756.198786454782	881.599975585938
756.925898874728	884.200012207031
757.652920636979	883
758.379851749433	882.200012207031
759.106692219996	884.599975585938
759.833442056572	882.200012207031
760.560101267063	882.400024414063
761.28666985937	883.200012207031
762.0131478414	881.400024414063
762.739535221046	883
763.465832006219	884.200012207031
764.192038204812	883.400024414063
764.918153824731	883.599975585938
765.644178873872	880.400024414063
766.370113360138	882.799987792969
767.095957291425	881.799987792969
767.821710675635	883.400024414063
768.547373520665	882.599975585938
769.272945834415	885.200012207031
769.998427624781	884
770.723818899658	883.599975585938
771.449119666949	882
772.174329934546	885.400024414063
772.899449710347	885.400024414063
773.624479002248	885.599975585938
774.349417818145	885.400024414063
775.074266165934	883.599975585938
775.799024053505	884.799987792969
776.523691488757	884
777.248268479582	883.799987792969
777.972755033877	883.200012207031
778.69715115953	884
779.421456864441	884
780.145672156493	884.799987792969
780.869797043587	886.200012207031
781.593831533611	883.400024414063
782.317775634457	886.799987792969
783.041629354012	884.799987792969
783.765392700174	882.200012207031
784.489065680828	883.400024414063
785.212648303866	883.599975585938
785.936140577177	882.799987792969
786.659542508652	884.799987792969
787.382854106174	883.200012207031
788.106075377639	885.200012207031
788.829206330928	884.599975585938
789.552246973933	884
790.275197314542	883.400024414063
790.998057360638	885.400024414063
791.720827120108	882
792.443506600841	883.200012207031
793.166095810722	885.200012207031
793.888594757635	882.799987792969
794.611003449465	883.599975585938
795.333321894098	886.799987792969
796.055550099417	885.200012207031
796.777688073308	884.599975585938
797.499735823654	885.799987792969
798.221693358334	885.400024414063
798.943560685235	885.200012207031
799.665337812239	886.400024414063
800.387024747226	886.599975585938
801.108621498075	888
801.830128072674	886
802.551544478902	883
803.272870724636	885
803.994106817761	885.200012207031
804.715252766148	885
805.436308577687	883.799987792969
806.157274260251	884.400024414063
806.878149821721	884.599975585938
807.598935269973	886.200012207031
808.319630612886	886.599975585938
809.040235858336	885.200012207031
809.760751014202	886
810.481176088361	885.200012207031
811.201511088685	886.599975585938
811.921756023059	885
812.641910899347	884
813.361975725432	884.400024414063
814.081950509188	883.200012207031
814.801835258489	883.599975585938
815.521629981206	883.799987792969
816.241334685218	885.599975585938
816.960949378392	885.799987792969
817.680474068606	886.200012207031
818.399908763731	883.400024414063
819.11925347164	883.200012207031
819.838508200202	885.200012207031
820.55767295729	882.200012207031
821.276747750778	882.400024414063
821.995732588531	881.799987792969
822.714627478425	883.599975585938
823.433432428327	883.200012207031
824.152147446105	882.599975585938
824.870772539632	884
825.589307716775	885.200012207031
826.307752985404	882.799987792969
827.026108353378	886.599975585938
827.744373828579	883.400024414063
828.462549418867	884
829.180635132107	887
829.898630976168	885
830.616536958915	885.799987792969
831.334353088218	886.799987792969
832.052079371938	886.400024414063
832.769715817942	883.200012207031
833.487262434092	882.599975585938
834.204719228255	880.400024414063
834.922086208293	882.400024414063
835.639363382073	883
836.356550757456	883
837.073648342304	883.400024414063
837.790656144484	884.599975585938
838.507574171847	886
839.22440243227	886.599975585938
839.941140933601	885.599975585938
840.657789683706	881.400024414063
841.374348690448	881.400024414063
842.090817961686	883.799987792969
842.807197505276	887
843.523487329083	881.799987792969
844.23968744096	885.599975585938
844.955797848771	885.200012207031
845.671818560374	884.400024414063
846.387749583622	883.200012207031
847.103590926378	881
847.819342596497	881.799987792969
848.535004601833	884.200012207031
849.25057695025	880.400024414063
849.966059649598	882.400024414063
850.681452707735	882.400024414063
851.396756132513	884.400024414063
852.111969931789	883.599975585938
852.827094113419	885
853.542128685257	883
854.257073655158	885.200012207031
854.971929030969	884
855.686694820551	882.400024414063
856.40137103175	886.200012207031
857.115957672423	885.400024414063
857.830454750423	886.200012207031
858.544862273597	886.400024414063
859.259180249797	885.599975585938
859.97340868688	886.400024414063
860.687547592688	886.400024414063
861.401596975075	884.400024414063
862.115556841891	883.799987792969
862.829427200985	885.799987792969
863.543208060205	885.200012207031
864.256899427402	885.599975585938
864.970501310423	883.799987792969
865.684013717114	885.400024414063
866.397436655325	883.799987792969
867.110770132901	884
867.824014157691	886.799987792969
868.537168737542	884.799987792969
869.250233880299	883.599975585938
869.963209593803	885
870.676095885902	886.200012207031
871.388892764445	887.400024414063
872.101600237276	884.599975585938
872.814218312233	886.799987792969
873.526746997165	885.200012207031
874.239186299914	888.200012207031
874.951536228323	884.599975585938
875.663796790231	885.200012207031
876.375967993487	885.400024414063
877.088049845928	887.599975585938
877.8000423554	885.599975585938
878.511945529739	886.599975585938
879.22375937679	887.400024414063
879.935483904388	884.599975585938
880.64711912038	883.599975585938
881.358665032604	886
882.070121648892	886.200012207031
882.78148897709	887.599975585938
883.492767025039	886.599975585938
884.203955800571	888.400024414063
884.915055311525	888.200012207031
885.626065565741	886.400024414063
886.336986571053	886.799987792969
887.047818335298	886.599975585938
887.758560866315	885.400024414063
888.469214171937	887.400024414063
889.179778260005	885.799987792969
889.890253138347	885
890.600638814803	887.400024414063
891.310935297204	887.400024414063
892.021142593385	887.200012207031
892.731260711183	884.799987792969
893.441289658429	889
894.15122944295	887.200012207031
894.861080072591	886.599975585938
895.570841555173	885.400024414063
896.280513898534	885.400024414063
896.990097110503	888.599975585938
897.699591198913	891
898.408996171595	889.400024414063
899.118312036375	886.400024414063
899.827538801089	890.200012207031
900.536676473561	888.799987792969
901.245725061628	885.599975585938
901.954684573109	887
902.663555015838	890.400024414063
903.372336397644	887.599975585938
904.081028726351	886.599975585938
904.789632009793	885.799987792969
905.49814625579	886.200012207031
906.20657147217	887.599975585938
906.914907666765	888.799987792969
907.623154847391	888.799987792969
908.331313021885	888.200012207031
909.039382198064	888.799987792969
909.747362383754	885
910.455253586782	886.200012207031
911.163055814972	889
911.870769076143	887.400024414063
912.578393378126	887.599975585938
913.285928728738	888.599975585938
913.993375135802	888.599975585938
914.700732607145	888.400024414063
915.408001150579	885.400024414063
916.115180773937	884.599975585938
916.822271485037	885.799987792969
917.529273291693	887
918.236186201733	885.799987792969
918.943010222971	887
919.649745363234	886.599975585938
920.356391630333	888.400024414063
921.062949032096	888.799987792969
921.769417576333	887.400024414063
922.475797270864	886.400024414063
923.182088123512	885
923.888290142089	887
924.594403334414	886.200012207031
925.300427708304	885.200012207031
926.006363271572	887.400024414063
926.712210032039	887
927.417967997522	884.799987792969
928.123637175827	886
928.829217574776	884
929.534709202184	883.400024414063
930.240112065859	884.599975585938
930.945426173621	884.200012207031
931.650651533283	885.400024414063
932.355788152653	887
933.060836039547	885
933.765795201776	886.599975585938
934.470665647153	885.799987792969
935.175447383492	884.400024414063
935.880140418599	887
936.584744760286	888.599975585938
937.289260416366	885
937.993687394647	886
938.698025702939	886.200012207031
939.402275349051	886
940.106436340793	886.200012207031
940.810508685976	887.799987792969
941.5144923924	887.599975585938
942.21838746788	889
942.922193920223	887.599975585938
943.625911757231	887
944.329540986716	884.799987792969
945.033081616484	885.400024414063
945.736533654334	884.200012207031
946.439897108083	886.400024414063
947.143171985529	888.200012207031
947.846358294477	885.599975585938
948.549456042732	886
949.2524652381	885
949.955385888382	886.599975585938
950.658218001384	885.799987792969
951.360961584907	885
952.063616646755	884.799987792969
952.766183194733	885.400024414063
953.468661236636	887.599975585938
954.171050780271	886
954.873351833437	883.599975585938
955.575564403935	884
956.277688499565	884.599975585938
956.97972412813	884
957.681671297424	886
958.383530015255	883.400024414063
959.085300289414	884.799987792969
959.786982127703	885.200012207031
960.488575537918	885.599975585938
961.190080527859	887.200012207031
961.891497105327	887.799987792969
962.592825278111	883.799987792969
963.294065054012	883.400024414063
963.995216440829	884
964.696279446353	886.599975585938
965.397254078383	885.599975585938
966.098140344714	883
966.798938253139	886
967.499647811456	887.200012207031
968.200269027458	884.200012207031
968.900801908937	886
969.601246463685	886.599975585938
970.3016026995	886.599975585938
971.001870624169	886.799987792969
971.702050245491	885.799987792969
972.402141571249	885.599975585938
973.102144609245	883.799987792969
973.802059367267	884.599975585938
974.501885853103	885.799987792969
975.201624074541	888.200012207031
975.901274039379	888.200012207031
976.600835755399	885.599975585938
977.3003092304	885.599975585938
977.999694472158	886.400024414063
978.698991488473	885.400024414063
979.39820028713	885.599975585938
980.097320875915	885.799987792969
980.796353262618	886.200012207031
981.495297455024	884.599975585938
982.194153460919	887.400024414063
982.892921288093	885.599975585938
983.591600944331	885.799987792969
984.290192437419	885.599975585938
984.98869577514	884.400024414063
985.687110965282	884.799987792969
986.385438015629	884.599975585938
987.083676933961	884
987.781827728069	884.200012207031
988.479890405732	885.799987792969
989.177864974732	884.599975585938
989.875751442857	886
990.573549817888	886.400024414063
991.271260107602	885.200012207031
991.968882319786	885.599975585938
992.666416462217	884.599975585938
993.363862542681	884.599975585938
994.061220568959	885.599975585938
994.758490548823	884.200012207031
995.455672490061	885.799987792969
996.152766400451	884.200012207031
996.849772287773	885.799987792969
997.5466901598	885.200012207031
998.243520024317	885.200012207031
998.940261889097	883.200012207031
999.636915761923	883.799987792969
1000.33348165057	884.799987792969
1001.02995956281	885.599975585938
1001.72634950643	886.400024414063
1002.42265148919	884.799987792969
1003.11886551889	885.799987792969
1003.81499160328	887.400024414063
1004.51102975015	883
1005.20697996727	886
1005.90284226242	885
1006.59861664337	885.799987792969
1007.2943031179	886.200012207031
1007.98990169377	888.200012207031
1008.68541237876	886
1009.38083518064	887.799987792969
1010.07617010719	882.799987792969
1010.77141716617	886.200012207031
1011.46657636536	886
1012.16164771253	884.400024414063
1012.85663121546	886.599975585938
1013.5515268819	886.799987792969
1014.24633471963	885.200012207031
1014.94105473642	887.200012207031
1015.63568694004	890.799987792969
1016.33023133826	887
1017.02468793885	886.200012207031
1017.71905674957	886.599975585938
1018.41333777819	886.400024414063
1019.10753103249	889.400024414063
1019.80163652022	887.799987792969
1020.49565424916	889.599975585938
1021.18958422707	886.599975585938
1021.88342646171	886.599975585938
1022.57718096085	888.400024414063
1023.27084773227	890
1023.96442678371	891.599975585938
1024.65791812296	891.200012207031
1025.35132175776	888.400024414063
1026.04463769589	887.599975585938
1026.73786594511	889.200012207031
1027.43100651318	891
1028.12405940786	894.200012207031
1028.81702463692	891.799987792969
1029.50990220812	891.400024414063
1030.20269212921	889.599975585938
1030.89539440798	891
1031.58800905216	891.200012207031
1032.28053606952	891
1032.97297546784	888.599975585938
1033.66532725485	890
1034.35759143832	889
1035.04976802602	892.599975585938
1035.7418570257	891.799987792969
1036.43385844511	888.200012207031
1037.12577229202	890
1037.81759857419	892
1038.50933729937	887
1039.20098847531	887.799987792969
1039.89255210978	889.400024414063
1040.58402821053	890.400024414063
1041.27541678532	888.400024414063
1041.96671784191	885.599975585938
1042.65793138804	888.799987792969
1043.34905743147	888.799987792969
1044.04009597996	887.599975585938
1044.73104704125	888.200012207031
1045.42191062312	888.599975585938
1046.1126867333	889
1046.80337537955	887.599975585938
1047.49397656962	886.400024414063
1048.18449031127	887
1048.87491661225	889.400024414063
1049.5652554803	887.400024414063
1050.25550692319	886.599975585938
1050.94567094865	885
1051.63574756444	887.599975585938
1052.32573677832	886.400024414063
1053.01563859803	886
1053.70545303131	885.200012207031
1054.39518008592	886.599975585938
1055.08481976961	884.599975585938
1055.77437209013	885.799987792969
1056.46383705522	887.799987792969
1057.15321467262	885.200012207031
1057.8425049501	886.799987792969
1058.53170789539	886.799987792969
1059.22082351624	883.799987792969
1059.9098518204	884.200012207031
1060.59879281561	885.400024414063
1061.28764650962	883.400024414063
1061.97641291016	885.200012207031
1062.665092025	885.799987792969
1063.35368386187	884.799987792969
1064.04218842851	887
1064.73060573268	888.200012207031
1065.4189357821	887.799987792969
1066.10717858452	885.400024414063
1066.7953341477	887.799987792969
1067.48340247936	887.599975585938
1068.17138358725	887.400024414063
1068.85927747912	887.599975585938
1069.5470841627	887.400024414063
1070.23480364573	888.799987792969
1070.92243593595	888.200012207031
1071.60998104111	887.599975585938
1072.29743896894	887.799987792969
1072.98480972718	886.400024414063
1073.67209332357	888.799987792969
1074.35928976585	888
1075.04639906176	884.799987792969
1075.73342121903	885.599975585938
1076.42035624541	886.599975585938
1077.10720414862	886.599975585938
1077.79396493641	891.200012207031
1078.48063861651	887.200012207031
1079.16722519666	887.599975585938
1079.85372468459	885.200012207031
1080.54013708804	887.200012207031
1081.22646241474	884.400024414063
1081.91270067243	886.799987792969
1082.59885186884	887.400024414063
1083.28491601171	886
1083.97089310877	885.599975585938
1084.65678316774	887.400024414063
1085.34258619637	886.799987792969
1086.02830220239	885.599975585938
1086.71393119352	887.599975585938
1087.39947317751	887.799987792969
1088.08492816207	887.200012207031
1088.77029615495	884.799987792969
1089.45557716387	889
1090.14077119656	888.400024414063
1090.82587826075	886.400024414063
1091.51089836417	885.200012207031
1092.19583151456	886.200012207031
1092.88067771963	885.799987792969
1093.56543698712	885.200012207031
1094.25010932475	884.200012207031
1094.93469474026	879.400024414063
1095.61919324137	885.799987792969
1096.3036048358	886.200012207031
1096.98792953129	884.400024414063
1097.67216733555	885
1098.35631825632	884.400024414063
1099.04038230132	886.400024414063
1099.72435947828	885.599975585938
1100.40824979492	883.200012207031
1101.09205325895	884.400024414063
1101.77576987812	886.200012207031
1102.45939966014	886
1103.14294261273	885.200012207031
1103.82639874362	886
1104.50976806054	887.599975585938
1105.19305057119	886.200012207031
1105.87624628331	886.400024414063
1106.55935520461	887.799987792969
1107.24237734283	890.200012207031
1107.92531270566	887.799987792969
1108.60816130085	888
1109.2909231361	888.799987792969
1109.97359821914	890.599975585938
1110.65618655768	889.599975585938
1111.33868815946	886.400024414063
1112.02110303217	890.599975585938
1112.70343118355	887.400024414063
1113.3856726213	887.799987792969
1114.06782735316	890
1114.74989538683	889.599975585938
1115.43187673002	887.799987792969
1116.11377139047	887.799987792969
1116.79557937588	888.400024414063
1117.47730069397	891.599975585938
1118.15893535245	894.799987792969
1118.84048335904	892.200012207031
1119.52194472146	891
1120.20331944741	891.799987792969
1120.88460754462	889
1121.56580902079	893.200012207031
1122.24692388364	894
1122.92795214088	892
1123.60889380022	890.799987792969
1124.28974886938	896
1124.97051735606	894
1125.65119926799	891.799987792969
1126.33179461286	891.400024414063
1127.0123033984	891.200012207031
1127.6927256323	891.799987792969
1128.37306132229	892.200012207031
1129.05331047606	893.400024414063
1129.73347310134	891.200012207031
1130.41354920582	891.799987792969
1131.09353879722	890
1131.77344188324	891
1132.45325847159	891.599975585938
1133.13298856999	890.599975585938
1133.81263218612	893.200012207031
1134.49218932772	891.599975585938
1135.17166000247	889.599975585938
1135.85104421809	891.200012207031
1136.53034198227	893.200012207031
1137.20955330274	891.799987792969
1137.88867818718	889
1138.56771664331	888.200012207031
1139.24666867883	890.599975585938
1139.92553430144	889.400024414063
1140.60431351885	887.799987792969
1141.28300633876	890.799987792969
1141.96161276887	890.599975585938
1142.64013281689	891
1143.31856649051	891.599975585938
1143.99691379744	890.799987792969
1144.67517474538	891.599975585938
1145.35334934203	889.200012207031
1146.03143759509	887.200012207031
1146.70943951226	888.599975585938
1147.38735510125	888.200012207031
1148.06518436974	888.799987792969
1148.74292732545	889.599975585938
1149.42058397606	891
1150.09815432928	891.400024414063
1150.7756383928	888.599975585938
1151.45303617432	891.400024414063
1152.13034768155	891.599975585938
1152.80757292217	889.400024414063
1153.48471190389	891.799987792969
1154.16176463439	889.799987792969
1154.83873112138	889.200012207031
1155.51561137255	891.599975585938
1156.1924053956	889.200012207031
1156.86911319822	891.799987792969
1157.5457347881	887.799987792969
1158.22227017294	888.799987792969
1158.89871936044	887.599975585938
1159.57508235828	888.599975585938
1160.25135917416	890.599975585938
1160.92754981578	888.599975585938
1161.60365429081	892.599975585938
1162.27967260697	886
1162.95560477193	890.599975585938
1163.63145079339	888
1164.30721067904	886.400024414063
1164.98288443657	889.599975585938
1165.65847207367	889.799987792969
1166.33397359803	889.400024414063
1167.00938901735	889.200012207031
1167.6847183393	887.200012207031
1168.35996157157	889.599975585938
1169.03511872187	890.200012207031
1169.71018979787	889
1170.38517480726	887.599975585938
1171.06007375773	887.400024414063
1171.73488665696	886.599975585938
1172.40961351265	885.799987792969
1173.08425433247	887
1173.75880912412	888.400024414063
1174.43327789528	890.200012207031
1175.10766065364	886.599975585938
1175.78195740687	889.799987792969
1176.45616816267	888.200012207031
1177.13029292871	887
1177.80433171269	887.200012207031
1178.47828452229	885.200012207031
1179.15215136518	886
1179.82593224905	888.599975585938
1180.49962718159	885.799987792969
1181.17323617047	890
1181.84675922337	890
1182.52019634799	887.599975585938
1183.193547552	888
1183.86681284307	886.200012207031
1184.53999222889	886.599975585938
1185.21308571714	887.200012207031
1185.8860933155	889.200012207031
1186.55901503165	885.599975585938
1187.23185087326	887.599975585938
1187.90460084802	886.400024414063
1188.5772649636	888.200012207031
1189.24984322768	889.799987792969
1189.92233564794	888.400024414063
1190.59474223206	888.400024414063
1191.2670629877	891.200012207031
1191.93929792255	889.599975585938
1192.61144704428	892.400024414063
1193.28351036058	889.799987792969
1193.9554878791	891
1194.62737960754	887.799987792969
1195.29918555356	891.400024414063
1195.97090572483	890.799987792969
1196.64254012903	891.400024414063
1197.31408877384	890.400024414063
1197.98555166693	892.799987792969
1198.65692881596	891.799987792969
1199.32822022862	890.599975585938
1199.99942591256	892.599975585938
1200.67054587548	890.200012207031
1201.34158012503	891.400024414063
1202.01252866889	890.400024414063
1202.68339151473	892.400024414063
1203.35416867021	890.400024414063
1204.02486014301	892
1204.6954659408	892.400024414063
1205.36598607124	892.599975585938
1206.03642054201	892
1206.70676936078	892.799987792969
1207.3770325352	893.599975585938
1208.04721007295	892.400024414063
1208.7173019817	892
1209.38730826911	891.799987792969
1210.05722894285	890.599975585938
1210.72706401059	891.200012207031
1211.39681347999	891.599975585938
1212.06647735872	891.599975585938
1212.73605565444	891.799987792969
1213.40554837481	894.799987792969
1214.07495552751	893.799987792969
1214.74427712019	893
1215.41351316052	893
1216.08266365617	893.799987792969
1216.75172861479	892.799987792969
1217.42070804405	894.200012207031
1218.0896019516	894.599975585938
1218.75841034513	893.799987792969
1219.42713323227	896.200012207031
1220.0957706207	897.400024414063
1220.76432251808	893.400024414063
1221.43278893207	896
1222.10116987032	894.200012207031
1222.7694653405	893.400024414063
1223.43767535026	894.599975585938
1224.10579990727	898
1224.77383901918	895.200012207031
1225.44179269366	896.400024414063
1226.10966093835	894.599975585938
1226.77744376093	897.200012207031
1227.44514116904	896.599975585938
1228.11275317034	896.400024414063
1228.78027977249	897.599975585938
1229.44772098315	894
1230.11507680996	894.400024414063
1230.7823472606	892.799987792969
1231.44953234271	896
1232.11663206394	891.400024414063
1232.78364643195	893.400024414063
1233.4505754544	894.799987792969
1234.11741913894	893.599975585938
1234.78417749322	894.799987792969
1235.45085052489	893.599975585938
1236.11743824162	898.799987792969
1236.78394065104	893.400024414063
1237.45035776082	893.799987792969
1238.1166895786	896.400024414063
1238.78293611204	895.599975585938
1239.44909736878	895.799987792969
1240.11517335648	897
1240.78116408279	892.200012207031
1241.44706955535	896.400024414063
1242.11288978182	895.400024414063
1242.77862476985	895.799987792969
1243.44427452708	895.200012207031
1244.10983906116	894.200012207031
1244.77531837974	893.400024414063
1245.44071249047	895.799987792969
1246.106021401	894.200012207031
1246.77124511898	894.799987792969
1247.43638365204	893.799987792969
1248.10143700783	895.200012207031
1248.76640519401	894.799987792969
1249.43128821822	897.799987792969
1250.0960860881	893.200012207031
1250.76079881129	892
1251.42542639545	892
1252.08996884822	894.400024414063
1252.75442617723	892.200012207031
1253.41879839014	894.400024414063
1254.08308549458	890.599975585938
1254.74728749821	891.200012207031
1255.41140440866	892.200012207031
1256.07543623357	893.400024414063
1256.73938298059	893.599975585938
1257.40324465735	893
1258.0670212715	892
1258.73071283068	896.200012207031
1259.39431934253	893.200012207031
1260.05784081468	889.799987792969
1260.72127725479	892.400024414063
1261.38462867049	891.599975585938
1262.0478950694	889.200012207031
1262.71107645919	890
1263.37417284748	893
1264.03718424191	889.599975585938
1264.70011065011	890
1265.36295207974	889
1266.02570853841	887
1266.68838003378	889
1267.35096657346	887.799987792969
1268.01346816511	892
1268.67588481636	890.200012207031
1269.33821653483	892.799987792969
1270.00046332817	890.400024414063
1270.66262520401	893
1271.32470216998	893
1271.98669423372	891.599975585938
1272.64860140285	891.799987792969
1273.31042368503	892.200012207031
1273.97216108786	893.400024414063
1274.633813619	892.799987792969
1275.29538128606	892.599975585938
1275.95686409669	892.799987792969
1276.6182620585	895
1277.27957517914	892
1277.94080346624	894.200012207031
1278.60194692741	893.599975585938
1279.2630055703	890.799987792969
1279.92397940253	891
1280.58486843173	896
1281.24567266552	892.400024414063
1281.90639211155	893.200012207031
1282.56702677743	892.599975585938
1283.2275766708	890.599975585938
1283.88804179927	892.400024414063
1284.54842217049	893.599975585938
1285.20871779206	894.799987792969
1285.86892867163	892.400024414063
1286.52905481681	892
1287.18909623523	892
1287.84905293452	894
1288.5089249223	892.799987792969
1289.16871220619	892
1289.82841479383	896.400024414063
1290.48803269282	892
1291.1475659108	892.200012207031
1291.80701445539	890.200012207031
1292.46637833421	891
1293.12565755489	891
1293.78485212504	892.599975585938
1294.44396205229	891.200012207031
1295.10298734425	891
1295.76192800856	890
1296.42078405283	892.799987792969
1297.07955548467	891.400024414063
1297.73824231171	892.200012207031
1298.39684454158	894.400024414063
1299.05536218188	891.799987792969
1299.71379524023	896
1300.37214372427	896
1301.03040764159	891.200012207031
1301.68858699983	892.799987792969
1302.34668180659	893
1303.0046920695	895.400024414063
1303.66261779617	894.200012207031
1304.32045899422	895.599975585938
1304.97821567126	895
1305.63588783492	893.200012207031
1306.29347549279	896.400024414063
1306.95097865251	895.799987792969
1307.60839732168	895
1308.26573150791	894.799987792969
1308.92298121883	895
1309.58014646204	894
1310.23722724517	894.599975585938
1310.89422357581	896.799987792969
1311.55113546158	898.400024414063
1312.2079629101	898.599975585938
1312.86470592898	896.599975585938
1313.52136452582	897
1314.17793870824	899
1314.83442848386	900
1315.49083386027	897.599975585938
1316.14715484509	899.400024414063
1316.80339144594	900.599975585938
1317.45954367041	897.400024414063
1318.11561152611	897.200012207031
1318.77159502067	897.599975585938
1319.42749416168	896.599975585938
1320.08330895674	895.799987792969
1320.73903941348	895.799987792969
1321.3946855395	895.400024414063
1322.0502473424	898.599975585938
1322.70572482978	894
1323.36111800926	898.400024414063
1324.01642688845	899.400024414063
1324.67165147494	899.200012207031
1325.32679177634	898.599975585938
1325.98184780025	896.200012207031
1326.63681955429	897.799987792969
1327.29170704605	900.200012207031
1327.94651028314	895.200012207031
1328.60122927316	898.599975585938
1329.25586402371	901.400024414063
1329.9104145424	898
1330.56488083683	894.599975585938
1331.2192629146	897.599975585938
1331.87356078331	897.400024414063
1332.52777445056	900
1333.18190392395	894.799987792969
1333.83594921109	896.400024414063
1334.48991031958	897.799987792969
1335.143787257	896.599975585938
1335.79758003097	900
1336.45128864908	894
1337.10491311893	896.599975585938
1337.75845344813	897.400024414063
1338.41190964425	898.599975585938
1339.06528171491	898.400024414063
1339.71856966771	896.200012207031
1340.37177351023	898
1341.02489325007	898.200012207031
1341.67792889484	894.200012207031
1342.33088045212	895.799987792969
1342.98374792952	895.200012207031
1343.63653133462	897.400024414063
1344.28923067503	895.599975585938
1344.94184595833	897.599975585938
1345.59437719212	898.200012207031
1346.246824384	894.599975585938
1346.89918754155	900
1347.55146667238	898.799987792969
1348.20366178407	896.599975585938
1348.85577288421	896
1349.50779998041	901.599975585938
1350.15974308024	898.200012207031
1350.8116021913	899.400024414063
1351.46337732119	897
1352.11506847748	898.799987792969
1352.76667566778	896.400024414063
1353.41819889967	896.400024414063
1354.06963818074	897.200012207031
1354.72099351858	899
1355.37226492079	900.400024414063
1356.02345239494	895.799987792969
1356.67455594862	897.799987792969
1357.32557558943	894.799987792969
1357.97651132496	898.799987792969
1358.62736316277	896.599975585938
1359.27813111048	893.799987792969
1359.92881517565	898.400024414063
1360.57941536589	900.599975585938
1361.22993168876	899.200012207031
1361.88036415186	901.200012207031
1362.53071276278	899.799987792969
1363.1809775291	900.400024414063
1363.8311584584	898.200012207031
1364.48125555826	897.799987792969
1365.13126883627	898.799987792969
1365.78119830001	895
1366.43104395707	897.200012207031
1367.08080581503	897.599975585938
1367.73048388147	897
1368.38007816397	895.799987792969
1369.02958867011	896.599975585938
1369.67901540748	897.599975585938
1370.32835838365	895.799987792969
1370.9776176062	897.400024414063
1371.62679308273	902.400024414063
1372.27588482079	898.599975585938
1372.92489282798	898
1373.57381711188	901.200012207031
1374.22265768006	895.400024414063
1374.87141454009	895.799987792969
1375.52008769957	896
1376.16867716606	898.599975585938
1376.81718294715	895
1377.4656050504	898.200012207031
1378.1139434834	900.200012207031
1378.76219825373	899.799987792969
1379.41036936895	901.799987792969
1380.05845683664	899.200012207031
1380.70646066439	900
1381.35438085976	900.799987792969
1382.00221743032	896.599975585938
1382.64997038366	901.599975585938
1383.29763972735	902
1383.94522546895	900
1384.59272761605	903.200012207031
1385.24014617621	902.200012207031
1385.88748115701	898
1386.53473256602	898
1387.18190041081	899.200012207031
1387.82898469895	900.599975585938
1388.47598543802	899.400024414063
1389.12290263558	899.799987792969
1389.7697362992	901.200012207031
1390.41648643646	900.599975585938
1391.06315305492	902
1391.70973616215	897.400024414063
1392.35623576573	898.799987792969
1393.00265187321	898.799987792969
1393.64898449217	901.200012207031
1394.29523363018	901.599975585938
1394.94139929481	900.799987792969
1395.58748149361	898.799987792969
1396.23348023415	899.400024414063
1396.87939552402	900.200012207031
1397.52522737076	898.599975585938
1398.17097578195	896.200012207031
1398.81664076514	897.200012207031
1399.46222232792	900.799987792969
1400.10772047783	903.599975585938
1400.75313522245	902.400024414063
1401.39846656934	902.200012207031
1402.04371452605	903.799987792969
1402.68887910016	899.599975585938
1403.33396029924	900
1403.97895813083	903.599975585938
1404.6238726025	903
1405.26870372182	903.200012207031
1405.91345149634	900
1406.55811593363	900.799987792969
1407.20269704125	901
1407.84719482676	902.599975585938
1408.49160929772	900.599975585938
1409.13594046168	900.799987792969
1409.78018832622	901
1410.42435289887	902.400024414063
1411.06843418722	903.400024414063
1411.7124321988	903.799987792969
1412.3563469412	905
1413.00017842194	909.200012207031
1413.64392664861	904.400024414063
1414.28759162875	907
1414.93117336992	908.200012207031
1415.57467187967	904.400024414063
1416.21808716557	906
1416.86141923516	907.200012207031
1417.50466809601	904.400024414063
1418.14783375567	903.200012207031
1418.79091622169	906.200012207031
1419.43391550162	905.799987792969
1420.07683160303	905.200012207031
1420.71966453346	906.599975585938
1421.36241430046	907.599975585938
1422.0050809116	904.799987792969
1422.64766437442	907.599975585938
1423.29016469647	916.599975585938
1423.93258188531	913
1424.57491594848	908.799987792969
1425.21716689354	909.599975585938
1425.85933472805	910.400024414063
1426.50141945954	913.200012207031
1427.14342109557	909.599975585938
1427.78533964369	911.400024414063
1428.42717511144	913.799987792969
1429.06892750639	909.400024414063
1429.71059683607	911.799987792969
1430.35218310803	909.799987792969
1430.99368632983	911.599975585938
1431.635106509	909.799987792969
1432.2764436531	913.599975585938
1432.91769776967	911.799987792969
1433.55886886627	911.400024414063
1434.19995695043	912.799987792969
1434.84096202969	913.200012207031
1435.48188411162	910
1436.12272320375	914.599975585938
1436.76347931363	918.799987792969
1437.40415244879	913.599975585938
1438.0447426168	916.200012207031
1438.68524982518	913.799987792969
1439.32567408148	914.200012207031
1439.96601539325	916.400024414063
1440.60627376803	914.400024414063
1441.24644921336	912.400024414063
1441.88654173678	910.200012207031
1442.52655134583	912.200012207031
1443.16647804806	912.599975585938
1443.806321851	915.799987792969
1444.4460827622	912.200012207031
1445.0857607892	914.400024414063
1445.72535593953	912.400024414063
1446.36486822074	910.400024414063
1447.00429764037	909
1447.64364420595	912
1448.28290792502	912
1448.92208880512	914.200012207031
1449.56118685379	912.400024414063
1450.20020207857	915.200012207031
1450.83913448699	913.799987792969
1451.47798408659	918.400024414063
1452.1167508849	915
1452.75543488947	913.599975585938
1453.39403610782	911.799987792969
1454.0325545475	913.799987792969
1454.67099021603	910.200012207031
1455.30934312097	909.599975585938
1455.94761326982	910.400024414063
1456.58580067014	911
1457.22390532945	907.599975585938
1457.86192725529	907
1458.49986645519	904.799987792969
1459.13772293668	903
1459.7754967073	904.599975585938
1460.41318777457	907.400024414063
1461.05079614604	907
1461.68832182922	905.599975585938
1462.32576483166	908
1462.96312516087	905.200012207031
1463.6004028244	902.400024414063
1464.23759782977	903.200012207031
1464.8747101845	905.400024414063
1465.51173989614	900.599975585938
1466.14868697221	902.599975585938
1466.78555142024	901.799987792969
1467.42233324774	903
1468.05903246227	902.799987792969
1468.69564907133	901
1469.33218308246	900.200012207031
1469.96863450317	902.599975585938
1470.60500334102	902.400024414063
1471.2412896035	905.599975585938
1471.87749329816	901
1472.51361443251	903.400024414063
1473.14965301409	900
1473.78560905041	900.400024414063
1474.421482549	899.799987792969
1475.05727351739	900.799987792969
1475.69298196309	899.599975585938
1476.32860789364	900.200012207031
1476.96415131654	901
1477.59961223934	896.599975585938
1478.23499066954	897.599975585938
1478.87028661467	898.599975585938
1479.50550008226	898.200012207031
1480.14063107981	900.400024414063
1480.77567961486	901.599975585938
1481.41064569492	900.400024414063
1482.04552932752	899
1482.68033052017	898.200012207031
1483.31504928039	901.400024414063
1483.9496856157	903.599975585938
1484.58423953363	901.200012207031
1485.21871104168	902
1485.85310014738	899.799987792969
1486.48740685824	899.799987792969
1487.12163118178	899.400024414063
1487.75577312553	902
1488.38983269698	897.400024414063
1489.02380990367	903.200012207031
1489.65770475311	901
1490.29151725281	896.200012207031
1490.92524741029	903
1491.55889523306	897
1492.19246072863	900
1492.82594390453	899.599975585938
1493.45934476826	899.400024414063
1494.09266332734	897.400024414063
1494.72589958928	896.400024414063
1495.3590535616	900.200012207031
1495.99212525181	901.200012207031
1496.62511466741	899
1497.25802181592	898.799987792969
1497.89084670485	900
1498.52358934172	897.200012207031
1499.15624973403	894.799987792969
1499.7888278893	896.599975585938
1500.42132381503	897.799987792969
1501.05373751873	897.200012207031
1501.68606900792	900
1502.31831829009	898
1502.95048537277	898.400024414063
1503.58257026346	897
1504.21457296966	897.400024414063
1504.84649349889	899.400024414063
1505.47833185864	897
1506.11008805644	899.799987792969
1506.74176209978	899
1507.37335399617	899.400024414063
1508.00486375312	898.400024414063
1508.63629137813	897.400024414063
1509.2676368787	898.799987792969
1509.89890026235	896.799987792969
1510.53008153658	901.599975585938
1511.16118070889	897.400024414063
1511.79219778677	896.599975585938
1512.42313277775	897.200012207031
1513.05398568932	896.599975585938
1513.68475652898	898
1514.31544530424	896.599975585938
1514.9460520226	896.200012207031
1515.57657669155	898.799987792969
1516.20701931861	898.200012207031
1516.83737991127	898.799987792969
1517.46765847702	900
1518.09785502339	901.200012207031
1518.72796955785	900.599975585938
1519.35800208792	895.599975585938
1519.98795262109	899.400024414063
1520.61782116486	900.599975585938
1521.24760772673	895.400024414063
1521.87731231419	897.799987792969
1522.50693493475	898.599975585938
1523.1364755959	896.200012207031
1523.76593430514	900
1524.39531106997	897.799987792969
1525.02460589788	897.200012207031
1525.65381879637	898
1526.28294977293	896.200012207031
1526.91199883507	895.200012207031
1527.54096599027	897.599975585938
1528.16985124603	895.200012207031
1528.79865460984	894.200012207031
1529.4273760892	894
1530.05601569161	896
1530.68457342455	895.799987792969
1531.31304929552	894.599975585938
1531.94144331201	894.799987792969
1532.56975548151	894
1533.19798581152	895
1533.82613430953	895.200012207031
1534.45420098302	892.799987792969
1535.08218583949	894.599975585938
1535.71008888643	892.400024414063
1536.33791013134	892.599975585938
1536.96564958169	892.400024414063
1537.59330724498	895.599975585938
1538.22088312871	892.200012207031
1538.84837724034	894.599975585938
1539.47578958739	892.200012207031
1540.10312017733	891.599975585938
1540.73036901765	892.599975585938
1541.35753611584	895
1541.98462147939	892.400024414063
1542.61162511578	894.200012207031
1543.2385470325	894.400024414063
1543.86538723704	895.599975585938
1544.49214573688	892.400024414063
1545.11882253951	895.799987792969
1545.74541765241	892.799987792969
1546.37193108306	893.400024414063
1546.99836283896	893.400024414063
1547.62471292758	893.599975585938
1548.25098135641	891.400024414063
1548.87716813294	893.400024414063
1549.50327326464	889.799987792969
1550.12929675899	891.400024414063
1550.75523862349	891
1551.38109886561	892.400024414063
1552.00687749284	891.799987792969
1552.63257451264	892.400024414063
1553.25818993252	893
1553.88372375994	892.599975585938
1554.50917600239	893.400024414063
1555.13454666734	890
1555.75983576228	894.400024414063
1556.38504329469	892.599975585938
1557.01016927204	887.599975585938
1557.63521370181	890
1558.26017659149	889.200012207031
1558.88505794854	889.599975585938
1559.50985778045	891.200012207031
1560.13457609469	890.599975585938
1560.75921289874	890.200012207031
1561.38376820008	892.799987792969
1562.00824200618	890.400024414063
1562.63263432452	888.599975585938
1563.25694516257	890.200012207031
1563.88117452781	891
1564.50532242772	889
1565.12938886976	892.799987792969
1565.75337386141	890
1566.37727741015	889.400024414063
1567.00109952345	891.599975585938
1567.62484020878	891.400024414063
1568.24849947361	889.799987792969
1568.87207732542	892.799987792969
1569.49557377168	892.799987792969
1570.11898881986	893.400024414063
1570.74232247743	890.400024414063
1571.36557475186	891.200012207031
1571.98874565062	892
1572.61183518119	891.599975585938
1573.23484335103	892.599975585938
1573.85777016761	894.799987792969
1574.4806156384	892.599975585938
1575.10337977088	894.200012207031
1575.7260625725	892.599975585938
1576.34866405074	890
1576.97118421306	893.599975585938
1577.59362306694	893.599975585938
1578.21598061984	893.400024414063
1578.83825687922	894.799987792969
1579.46045185255	892.400024414063
1580.08256554731	892.799987792969
1580.70459797094	891.200012207031
1581.32654913093	890.599975585938
1581.94841903473	890.799987792969
1582.57020768981	894.200012207031
1583.19191510364	893.400024414063
1583.81354128367	893
1584.43508623737	889.200012207031
1585.05654997221	891.400024414063
1585.67793249564	891.799987792969
1586.29923381514	892.200012207031
1586.92045393815	894.200012207031
1587.54159287216	893.599975585938
1588.1626506246	892
1588.78362720296	889.200012207031
1589.40452261468	893.799987792969
1590.02533686724	892.200012207031
1590.64606996808	892
1591.26672192467	890.200012207031
1591.88729274447	890.200012207031
1592.50778243493	890.400024414063
1593.12819100352	892
1593.7485184577	891.599975585938
1594.36876480492	889
1594.98893005264	892.200012207031
1595.60901420832	892.200012207031
1596.22901727941	893.599975585938
1596.84893927338	891.200012207031
1597.46878019767	892.400024414063
1598.08854005975	891.400024414063
1598.70821886707	894.599975585938
1599.32781662708	893.599975585938
1599.94733334725	893.599975585938
1600.56676903502	894
1601.18612369785	893.599975585938
1601.8053973432	892
1602.42458997851	893.400024414063
1603.04370161124	893
1603.66273224884	893.400024414063
1604.28168189878	894.599975585938
1604.90055056849	891.599975585938
1605.51933826543	894.400024414063
1606.13804499705	893.799987792969
1606.75667077081	894.599975585938
1607.37521559415	896.400024414063
1607.99367947452	895.799987792969
1608.61206241938	896.599975585938
1609.23036443618	896
1609.84858553236	895.599975585938
1610.46672571537	899.400024414063
1611.08478499267	896.599975585938
1611.7027633717	897.799987792969
1612.3206608599	896.400024414063
1612.93847746473	899.200012207031
1613.55621319364	901.200012207031
1614.17386805407	897.200012207031
1614.79144205347	899
1615.40893519928	899.200012207031
1616.02634749895	899.799987792969
1616.64367895993	896.799987792969
1617.26092958966	899
1617.87809939559	899.599975585938
1618.49518838516	903.200012207031
1619.11219656582	900.599975585938
1619.729123945	901
1620.34597053016	898.200012207031
1620.96273632874	902.200012207031
1621.57942134818	902.400024414063
1622.19602559592	902.200012207031
1622.8125490794	899.599975585938
1623.42899180607	901
1624.04535378337	900.200012207031
1624.66163501874	900.799987792969
1625.27783551963	898.799987792969
1625.89395529346	898.799987792969
1626.50999434768	896.599975585938
1627.12595268974	895.599975585938
1627.74183032707	895.799987792969
1628.3576272671	895.200012207031
1628.97334351729	894.200012207031
1629.58897908506	890.200012207031
1630.20453397786	892.200012207031
1630.82000820313	890.400024414063
1631.43540176829	889.400024414063
1632.05071468079	888.599975585938
1632.66594694807	888.400024414063
1633.28109857756	887.599975585938
1633.8961695767	886.599975585938
1634.51115995292	887.799987792969
1635.12606971366	883.599975585938
1635.74089886636	884.400024414063
1636.35564741844	884
1636.97031537734	884
1637.58490275051	884.799987792969
1638.19940954536	881.799987792969
1638.81383576934	882.200012207031
1639.42818142987	881.599975585938
1640.0424465344	879.799987792969
1640.65663109034	883.799987792969
1641.27073510515	883.599975585938
1641.88475858623	880.599975585938
1642.49870154104	882.599975585938
1643.11256397699	882
1643.72634590152	882.799987792969
1644.34004732206	880
1644.95366824604	881.200012207031
1645.56720868089	881.400024414063
1646.18066863404	880.799987792969
1646.79404811291	879
1647.40734712494	882.200012207031
1648.02056567755	880.200012207031
1648.63370377817	881.799987792969
1649.24676143423	880.799987792969
1649.85973865316	880.799987792969
1650.47263544238	879.200012207031
1651.08545180932	878
1651.6981877614	879.400024414063
1652.31084330606	880.799987792969
1652.92341845071	879
1653.53591320278	879.400024414063
1654.1483275697	879.200012207031
1654.7606615589	877
1655.37291517778	877.799987792969
1655.98508843379	882.599975585938
1656.59718133434	880.200012207031
1657.20919388685	880.599975585938
1657.82112609875	879.799987792969
1658.43297797747	879.799987792969
1659.04474953041	881.200012207031
1659.65644076501	879.200012207031
1660.26805168869	877.799987792969
1660.87958230886	881.400024414063
1661.49103263294	879.599975585938
1662.10240266837	877
1662.71369242255	878.799987792969
1663.32490190291	879.200012207031
1663.93603111687	878
1664.54708007184	876.200012207031
1665.15804877524	878.200012207031
1665.7689372345	878.799987792969
1666.37974545703	881
1666.99047345024	878
1667.60112122156	878.400024414063
1668.2116887784	877.799987792969
1668.82217612818	875.599975585938
1669.43258327831	878.400024414063
1670.04291023622	877
1670.65315700931	877.200012207031
1671.263323605	877
1671.8734100307	878
1672.48341629384	876.799987792969
1673.09334240182	875.200012207031
1673.70318836206	877
1674.31295418197	876.599975585938
1674.92263986896	875
1675.53224543046	877
1676.14177087386	878.599975585938
1676.75121620658	877
1677.36058143604	877
1677.96986656964	876.200012207031
1678.5790716148	875.200012207031
1679.18819657892	874.599975585938
1679.79724146943	877
1680.40620629372	875.400024414063
1681.0150910592	877.599975585938
1681.6238957733	875.799987792969
1682.23262044341	877.200012207031
1682.84126507694	875
1683.4498296813	877.400024414063
1684.0583142639	876.400024414063
1684.66671883216	875.200012207031
1685.27504339346	876
1685.88328795523	873.799987792969
1686.49145252487	874.599975585938
1687.09953710978	875.200012207031
1687.70754171737	876.799987792969
1688.31546635505	875.400024414063
1688.92331103021	876
1689.53107575028	876
1690.13876052265	874.200012207031
1690.74636535472	874.400024414063
1691.3538902539	876
1691.96133522759	875.400024414063
1692.5687002832	876.200012207031
1693.17598542812	876.599975585938
1693.78319066977	875.200012207031
1694.39031601554	875.799987792969
1694.99736147283	877.400024414063
1695.60432704905	876.400024414063
1696.2112127516	876.799987792969
1696.81801858788	876.400024414063
1697.42474456528	875.200012207031
1698.03139069121	876.400024414063
1698.63795697307	876.200012207031
1699.24444341826	876.400024414063
1699.85085003417	877
1700.45717682821	878.400024414063
1701.06342380778	874.200012207031
1701.66959098026	875.400024414063
1702.27567835307	875
1702.88168593359	874.400024414063
1703.48761372922	877.200012207031
1704.09346174737	873.799987792969
1704.69922999542	874.799987792969
1705.30491848077	873
1705.91052721083	872.599975585938
1706.51605619297	875.599975585938
1707.12150543461	875.200012207031
1707.72687494312	874
1708.33216472592	873.599975585938
1708.93737479039	873.599975585938
1709.54250514392	871.400024414063
