634.977642221345	861.200012207031
635.719821695905	863.200012207031
636.461909203392	861.599975585938
637.203904751776	863.200012207031
637.945808349023	863.599975585938
638.687620003102	861.599975585938
639.42933972198	861.400024414063
640.170967513616	863.200012207031
640.912503385981	861.599975585938
641.653947347041	862
642.395299404758	862.599975585938
643.13655956709	861.599975585938
643.877727842014	861.200012207031
644.61880423748	861.799987792969
645.359788761455	862.400024414063
646.100681421905	862.599975585938
646.841482226789	861.400024414063
647.582191184074	862.799987792969
648.322808301711	862.799987792969
649.06333358767	861.599975585938
649.803767049909	862
650.544108696385	862
651.28435853506	861.400024414063
652.024516573894	861.400024414063
652.764582820849	860.599975585938
653.504557283875	861.799987792969
654.244439970937	861.799987792969
654.984230889991	862.200012207031
655.723930048995	862.200012207031
656.463537455909	863.200012207031
657.203053118683	862.200012207031
657.942477045275	862.200012207031
658.681809243647	862.799987792969
659.421049721747	862.799987792969
660.160198487535	862
660.899255548962	862.599975585938
661.638220913985	862
662.377094590559	863.400024414063
663.115876586631	862.400024414063
663.854566910165	863.599975585938
664.593165569107	860.599975585938
665.331672571406	862
666.07008792502	861.799987792969
666.808411637902	861.400024414063
667.546643717996	862.400024414063
668.284784173258	862.200012207031
669.022833011641	861.799987792969
669.760790241089	862.599975585938
670.498655869554	862.400024414063
671.236429904987	863.599975585938
671.97411235534	862.799987792969
672.711703228551	862
673.449202532577	862.200012207031
674.186610275364	862
674.923926464857	862.799987792969
675.661151109008	862.799987792969
676.398284215759	862.200012207031
677.135325793058	862.599975585938
677.87227584885	861.599975585938
678.609134391082	862.400024414063
679.345901427696	862.400024414063
680.082576966644	862.799987792969
680.819161015861	862.200012207031
681.555653583298	862.200012207031
682.292054676895	862.200012207031
683.028364304594	860.599975585938
683.764582474344	861.799987792969
684.500709194083	862.599975585938
685.236744471752	861.599975585938
685.972688315294	861.799987792969
686.708540732652	861.200012207031
687.444301731762	862.799987792969
688.179971320572	862.599975585938
688.915549507013	861.200012207031
689.651036299034	862.799987792969
690.386431704569	862
691.121735731559	862.799987792969
691.85694838794	862
692.592069681652	861.799987792969
693.327099620632	860.799987792969
694.062038212821	862.200012207031
694.796885466149	862
695.531641388561	861.400024414063
696.266305987987	862.599975585938
697.000879272367	863
697.735361249632	862.400024414063
698.469751927722	862
699.204051314568	861.200012207031
699.938259418107	862.400024414063
700.672376246272	862.400024414063
701.406401806997	862
702.140336108212	861.200012207031
702.874179157855	862
703.607930963856	860.799987792969
704.341591534147	861.799987792969
705.07516087666	862.599975585938
705.808638999324	861.599975585938
706.542025910073	862.799987792969
707.275321616841	862.200012207031
708.008526127549	862.799987792969
708.741639450132	862
709.474661592521	861.799987792969
710.207592562641	862.400024414063
710.940432368424	861.400024414063
711.673181017796	861.799987792969
712.405838518687	862.200012207031
713.138404879025	861.799987792969
713.870880106731	862.200012207031
714.603264209738	862.200012207031
715.335557195971	861.400024414063
716.067759073357	862.599975585938
716.799869849816	862
717.531889533281	862.599975585938
718.263818131673	862.400024414063
718.995655652917	860.599975585938
719.727402104934	862.200012207031
720.45905749565	864
721.19062183299	861.799987792969
721.922095124877	862
722.653477379231	863
723.384768603973	861.400024414063
724.11596880703	862.799987792969
724.847077996319	862.400024414063
725.578096179762	861.400024414063
726.309023365281	861.799987792969
727.039859560792	862
727.770604774222	862.200012207031
728.501259013484	863.599975585938
729.231822286501	863.200012207031
729.962294601191	862.200012207031
730.692675965469	860.599975585938
731.42296638726	862
732.153165874472	862.400024414063
732.883274435032	863.400024414063
733.613292076851	861
734.343218807843	863
735.07305463593	862
735.802799569028	862.400024414063
736.532453615048	861
737.262016781904	861.799987792969
737.991489077517	861.799987792969
738.720870509794	861.799987792969
739.450161086654	862.200012207031
740.179360816009	862
740.908469705772	860.599975585938
741.637487763854	862.799987792969
742.366414998168	862.599975585938
743.095251416623	861.799987792969
743.823997027137	861.200012207031
744.552651837618	861.599975585938
745.281215855978	862.400024414063
746.009689090124	862.400024414063
746.738071547964	861.400024414063
747.466363237419	861.400024414063
748.194564166384	862.400024414063
748.92267434278	861.400024414063
749.650693774504	863.799987792969
750.378622469476	861.799987792969
751.106460435596	861.799987792969
751.834207680771	862
752.561864212909	863.200012207031
753.289430039919	862.200012207031
754.016905169707	862.599975585938
754.744289610175	860.799987792969
755.471583369231	863.400024414063
756.198786454782	861.799987792969
756.925898874728	862.400024414063
757.652920636979	862.599975585938
758.379851749433	862.599975585938
759.106692219996	861.200012207031
759.833442056572	859.400024414063
760.560101267063	861.400024414063
761.28666985937	863
762.0131478414	862.799987792969
762.739535221046	862.400024414063
763.465832006219	862
764.192038204812	861.599975585938
764.918153824731	862
765.644178873872	862.599975585938
766.370113360138	862.400024414063
767.095957291425	863.599975585938
767.821710675635	861.200012207031
768.547373520665	862.400024414063
769.272945834415	862
769.998427624781	862.400024414063
770.723818899658	862.400024414063
771.449119666949	862
772.174329934546	863.200012207031
772.899449710347	863.599975585938
773.624479002248	862.200012207031
774.349417818145	862.400024414063
775.074266165934	861.799987792969
775.799024053505	862.599975585938
776.523691488757	863.599975585938
777.248268479582	861.799987792969
777.972755033877	863.200012207031
778.69715115953	862.400024414063
779.421456864441	862.400024414063
780.145672156493	861
780.869797043587	862
781.593831533611	862.400024414063
782.317775634457	862.599975585938
783.041629354012	862.200012207031
783.765392700174	861.799987792969
784.489065680828	860.400024414063
785.212648303866	861.599975585938
785.936140577177	862.599975585938
786.659542508652	862.400024414063
787.382854106174	862.799987792969
788.106075377639	862.200012207031
788.829206330928	861.799987792969
789.552246973933	861.599975585938
790.275197314542	861.200012207031
790.998057360638	863.599975585938
791.720827120108	862.400024414063
792.443506600841	862
793.166095810722	862.200012207031
793.888594757635	862.200012207031
794.611003449465	862
795.333321894098	862.599975585938
796.055550099417	861.599975585938
796.777688073308	862.200012207031
797.499735823654	862.599975585938
798.221693358334	862.200012207031
798.943560685235	862.200012207031
799.665337812239	862.799987792969
800.387024747226	863.400024414063
801.108621498075	861.799987792969
801.830128072674	861.799987792969
802.551544478902	861.799987792969
803.272870724636	862.599975585938
803.994106817761	863
804.715252766148	860.599975585938
805.436308577687	863.200012207031
806.157274260251	863
806.878149821721	863.200012207031
807.598935269973	862.799987792969
808.319630612886	862.799987792969
809.040235858336	862.200012207031
809.760751014202	861.200012207031
810.481176088361	862
811.201511088685	862
811.921756023059	861.400024414063
812.641910899347	861.799987792969
813.361975725432	863.599975585938
814.081950509188	861.799987792969
814.801835258489	862.599975585938
815.521629981206	863.400024414063
816.241334685218	863
816.960949378392	863.200012207031
817.680474068606	862.599975585938
818.399908763731	862.400024414063
819.11925347164	863.799987792969
819.838508200202	863
820.55767295729	862.200012207031
821.276747750778	862.200012207031
821.995732588531	862
822.714627478425	862.400024414063
823.433432428327	862.400024414063
824.152147446105	863.599975585938
824.870772539632	863.400024414063
825.589307716775	861.400024414063
826.307752985404	862.200012207031
827.026108353378	862.400024414063
827.744373828579	862
828.462549418867	863.200012207031
829.180635132107	862
829.898630976168	862
830.616536958915	860.599975585938
831.334353088218	861.799987792969
832.052079371938	862
832.769715817942	862.400024414063
833.487262434092	861.799987792969
834.204719228255	862
834.922086208293	862
835.639363382073	862.400024414063
836.356550757456	862.799987792969
837.073648342304	863.400024414063
837.790656144484	862.200012207031
838.507574171847	864.400024414063
839.22440243227	861.400024414063
839.941140933601	862.799987792969
840.657789683706	863
841.374348690448	862.200012207031
842.090817961686	862.200012207031
842.807197505276	862.400024414063
843.523487329083	864.200012207031
844.23968744096	862.599975585938
844.955797848771	862.599975585938
845.671818560374	862
846.387749583622	862
847.103590926378	861.799987792969
847.819342596497	862.200012207031
848.535004601833	862
849.25057695025	861.599975585938
849.966059649598	862.200012207031
850.681452707735	862.200012207031
851.396756132513	863
852.111969931789	863.599975585938
852.827094113419	862
853.542128685257	863.599975585938
854.257073655158	863
854.971929030969	862.599975585938
855.686694820551	864.400024414063
856.40137103175	861.200012207031
857.115957672423	862.400024414063
857.830454750423	862.799987792969
858.544862273597	863.799987792969
859.259180249797	862.400024414063
859.97340868688	862.400024414063
860.687547592688	862
861.401596975075	863
862.115556841891	862.200012207031
862.829427200985	863.599975585938
863.543208060205	863.200012207031
864.256899427402	863.400024414063
864.970501310423	862.799987792969
865.684013717114	861.400024414063
866.397436655325	862
867.110770132901	862
867.824014157691	862.200012207031
868.537168737542	863.599975585938
869.250233880299	862.200012207031
869.963209593803	863.400024414063
870.676095885902	862
871.388892764445	861.599975585938
872.101600237276	862.599975585938
872.814218312233	862.200012207031
873.526746997165	861.799987792969
874.239186299914	862.400024414063
874.951536228323	863
875.663796790231	864
876.375967993487	862.799987792969
877.088049845928	863.599975585938
877.8000423554	863.599975585938
878.511945529739	865
879.22375937679	863.599975585938
879.935483904388	861.400024414063
880.64711912038	863.599975585938
881.358665032604	861.799987792969
882.070121648892	862.599975585938
882.78148897709	862.799987792969
883.492767025039	864.400024414063
884.203955800571	862.599975585938
884.915055311525	863.200012207031
885.626065565741	863.400024414063
886.336986571053	862.400024414063
887.047818335298	863.799987792969
887.758560866315	863.599975585938
888.469214171937	863.599975585938
889.179778260005	862
889.890253138347	864.599975585938
890.600638814803	863.200012207031
891.310935297204	862.200012207031
892.021142593385	863
892.731260711183	861.799987792969
893.441289658429	862.400024414063
894.15122944295	864
894.861080072591	862.400024414063
895.570841555173	863.599975585938
896.280513898534	862
896.990097110503	862
897.699591198913	861.599975585938
898.408996171595	863.200012207031
899.118312036375	863.599975585938
899.827538801089	864.599975585938
900.536676473561	863.200012207031
901.245725061628	862.200012207031
901.954684573109	862.400024414063
902.663555015838	862.599975585938
903.372336397644	861.200012207031
904.081028726351	863
904.789632009793	863.599975585938
905.49814625579	864.400024414063
906.20657147217	861.400024414063
906.914907666765	865
907.623154847391	861.599975585938
908.331313021885	863
909.039382198064	863.400024414063
909.747362383754	862
910.455253586782	864
911.163055814972	863.799987792969
911.870769076143	863
912.578393378126	864
913.285928728738	863.400024414063
913.993375135802	863.599975585938
914.700732607145	862.200012207031
915.408001150579	863.400024414063
916.115180773937	863
916.822271485037	863
917.529273291693	863.400024414063
918.236186201733	862.599975585938
918.943010222971	862.400024414063
919.649745363234	861.599975585938
920.356391630333	862.400024414063
921.062949032096	861.599975585938
921.769417576333	863
922.475797270864	862.400024414063
923.182088123512	863.599975585938
923.888290142089	863
924.594403334414	863.200012207031
925.300427708304	862.799987792969
926.006363271572	863.400024414063
926.712210032039	862.799987792969
927.417967997522	861.200012207031
928.123637175827	863.599975585938
928.829217574776	863.599975585938
929.534709202184	863
930.240112065859	860.599975585938
930.945426173621	863.200012207031
931.650651533283	861.799987792969
932.355788152653	861.799987792969
933.060836039547	861.400024414063
933.765795201776	862
934.470665647153	863.400024414063
935.175447383492	862.799987792969
935.880140418599	863.200012207031
936.584744760286	862.799987792969
937.289260416366	863.599975585938
937.993687394647	864
938.698025702939	864
939.402275349051	863.200012207031
940.106436340793	862.400024414063
940.810508685976	863.400024414063
941.5144923924	863.200012207031
942.21838746788	864
942.922193920223	863.200012207031
943.625911757231	863.400024414063
944.329540986716	862.200012207031
945.033081616484	862.799987792969
945.736533654334	862.599975585938
946.439897108083	861.799987792969
947.143171985529	862.200012207031
947.846358294477	862.799987792969
948.549456042732	863.599975585938
949.2524652381	864.400024414063
949.955385888382	863.400024414063
950.658218001384	863
951.360961584907	862.799987792969
952.063616646755	864.799987792969
952.766183194733	863.400024414063
953.468661236636	864.400024414063
954.171050780271	863.400024414063
954.873351833437	864.200012207031
955.575564403935	862
956.277688499565	862.599975585938
956.97972412813	861.599975585938
957.681671297424	863.200012207031
958.383530015255	862
959.085300289414	863.599975585938
959.786982127703	864
960.488575537918	864.200012207031
961.190080527859	863
961.891497105327	861.799987792969
962.592825278111	863.200012207031
963.294065054012	862.400024414063
963.995216440829	862
964.696279446353	862.599975585938
965.397254078383	864.599975585938
966.098140344714	862.400024414063
966.798938253139	863.200012207031
967.499647811456	862.400024414063
968.200269027458	863.400024414063
968.900801908937	863.799987792969
969.601246463685	862.599975585938
970.3016026995	862.400024414063
971.001870624169	864
971.702050245491	862.799987792969
972.402141571249	861.799987792969
973.102144609245	861.599975585938
973.802059367267	862.200012207031
974.501885853103	862.799987792969
975.201624074541	863
975.901274039379	862.400024414063
976.600835755399	862.599975585938
977.3003092304	862
977.999694472158	863.400024414063
978.698991488473	863.400024414063
979.39820028713	863.400024414063
980.097320875915	861
980.796353262618	862.799987792969
981.495297455024	863.599975585938
982.194153460919	864.799987792969
982.892921288093	862
983.591600944331	862.200012207031
984.290192437419	862.200012207031
984.98869577514	861.799987792969
985.687110965282	862.200012207031
986.385438015629	863.799987792969
987.083676933961	861.200012207031
987.781827728069	864.200012207031
988.479890405732	862.799987792969
989.177864974732	862.200012207031
989.875751442857	862.799987792969
990.573549817888	862.799987792969
991.271260107602	862.799987792969
991.968882319786	863.400024414063
992.666416462217	863.200012207031
993.363862542681	861.799987792969
994.061220568959	862
994.758490548823	863.200012207031
995.455672490061	861.400024414063
996.152766400451	862.799987792969
996.849772287773	863.400024414063
997.5466901598	862.400024414063
998.243520024317	863.599975585938
998.940261889097	862.200012207031
999.636915761923	862.200012207031
1000.33348165057	863.200012207031
1001.02995956281	862
1001.72634950643	862.599975585938
1002.42265148919	862.799987792969
1003.11886551889	862.400024414063
1003.81499160328	862.400024414063
1004.51102975015	863
1005.20697996727	862.400024414063
1005.90284226242	863.400024414063
1006.59861664337	863.599975585938
1007.2943031179	862.400024414063
1007.98990169377	862.599975585938
1008.68541237876	863.599975585938
1009.38083518064	863.400024414063
1010.07617010719	863.200012207031
1010.77141716617	864.799987792969
1011.46657636536	861.799987792969
1012.16164771253	863
1012.85663121546	862.400024414063
1013.5515268819	862.200012207031
1014.24633471963	863.200012207031
1014.94105473642	863.200012207031
1015.63568694004	863.400024414063
1016.33023133826	863.599975585938
1017.02468793885	864.200012207031
1017.71905674957	864.400024414063
1018.41333777819	862
1019.10753103249	863.400024414063
1019.80163652022	863.400024414063
1020.49565424916	864.400024414063
1021.18958422707	863.200012207031
1021.88342646171	863.200012207031
1022.57718096085	863.400024414063
1023.27084773227	864.799987792969
1023.96442678371	862.400024414063
1024.65791812296	863.400024414063
1025.35132175776	863.799987792969
1026.04463769589	864.200012207031
1026.73786594511	863.799987792969
1027.43100651318	863.599975585938
1028.12405940786	865.799987792969
1028.81702463692	864
1029.50990220812	863.400024414063
1030.20269212921	864.799987792969
1030.89539440798	864
1031.58800905216	863.799987792969
1032.28053606952	864
1032.97297546784	864
1033.66532725485	863.599975585938
1034.35759143832	863.599975585938
1035.04976802602	862.599975585938
1035.7418570257	864.799987792969
1036.43385844511	864.200012207031
1037.12577229202	864.200012207031
1037.81759857419	863.400024414063
1038.50933729937	864.400024414063
1039.20098847531	863.599975585938
1039.89255210978	861.599975585938
1040.58402821053	862.400024414063
1041.27541678532	862
1041.96671784191	864
1042.65793138804	863.599975585938
1043.34905743147	863
1044.04009597996	863.799987792969
1044.73104704125	863.599975585938
1045.42191062312	864.200012207031
1046.1126867333	864
1046.80337537955	863.799987792969
1047.49397656962	863.599975585938
1048.18449031127	864.200012207031
1048.87491661225	863.599975585938
1049.5652554803	865
1050.25550692319	863
1050.94567094865	862.200012207031
1051.63574756444	863.599975585938
1052.32573677832	864.400024414063
1053.01563859803	864
1053.70545303131	863.799987792969
1054.39518008592	862.799987792969
1055.08481976961	863.599975585938
1055.77437209013	864
1056.46383705522	862.400024414063
1057.15321467262	862.599975585938
1057.8425049501	863.400024414063
1058.53170789539	864
1059.22082351624	862.799987792969
1059.9098518204	863
1060.59879281561	863.599975585938
1061.28764650962	862.599975585938
1061.97641291016	863.799987792969
1062.665092025	863.400024414063
1063.35368386187	863.400024414063
1064.04218842851	863.599975585938
1064.73060573268	863
1065.4189357821	862.400024414063
1066.10717858452	864
1066.7953341477	863
1067.48340247936	863
1068.17138358725	862.599975585938
1068.85927747912	862
1069.5470841627	863
1070.23480364573	863.200012207031
1070.92243593595	864.200012207031
1071.60998104111	864.599975585938
1072.29743896894	863.400024414063
1072.98480972718	863.799987792969
1073.67209332357	862.200012207031
1074.35928976585	862
1075.04639906176	863.400024414063
1075.73342121903	863.200012207031
1076.42035624541	864.400024414063
1077.10720414862	863
1077.79396493641	863.799987792969
1078.48063861651	863.400024414063
1079.16722519666	863
1079.85372468459	863
1080.54013708804	862.200012207031
1081.22646241474	864
1081.91270067243	862.200012207031
1082.59885186884	861.799987792969
1083.28491601171	864.599975585938
1083.97089310877	864.200012207031
1084.65678316774	863
1085.34258619637	864
1086.02830220239	863
1086.71393119352	863.799987792969
1087.39947317751	862.200012207031
1088.08492816207	863.400024414063
1088.77029615495	862.400024414063
1089.45557716387	864.200012207031
1090.14077119656	864.799987792969
1090.82587826075	862.799987792969
1091.51089836417	863
1092.19583151456	862.200012207031
1092.88067771963	862.599975585938
1093.56543698712	863.400024414063
1094.25010932475	864.400024414063
1094.93469474026	862.799987792969
1095.61919324137	862
1096.3036048358	864
1096.98792953129	863.599975585938
1097.67216733555	862.799987792969
1098.35631825632	864
1099.04038230132	864.400024414063
1099.72435947828	863
1100.40824979492	863
1101.09205325895	863.200012207031
1101.77576987812	863.200012207031
1102.45939966014	863.599975585938
1103.14294261273	863.200012207031
1103.82639874362	863.599975585938
1104.50976806054	864.400024414063
1105.19305057119	864
1105.87624628331	862.200012207031
1106.55935520461	862.799987792969
1107.24237734283	864.799987792969
1107.92531270566	864.599975585938
1108.60816130085	863
1109.2909231361	864.400024414063
1109.97359821914	863.799987792969
1110.65618655768	864
1111.33868815946	863.599975585938
1112.02110303217	864.200012207031
1112.70343118355	864.799987792969
1113.3856726213	864.799987792969
1114.06782735316	864
1114.74989538683	863.599975585938
1115.43187673002	862.599975585938
1116.11377139047	864.400024414063
1116.79557937588	863.599975585938
1117.47730069397	864.799987792969
1118.15893535245	863.799987792969
1118.84048335904	864.599975585938
1119.52194472146	864.200012207031
1120.20331944741	864.599975585938
1120.88460754462	865
1121.56580902079	863.799987792969
1122.24692388364	866.799987792969
1122.92795214088	864.400024414063
1123.60889380022	864.799987792969
1124.28974886938	864.200012207031
1124.97051735606	864.599975585938
1125.65119926799	863.400024414063
1126.33179461286	865.400024414063
1127.0123033984	866.200012207031
1127.6927256323	864.200012207031
1128.37306132229	865.799987792969
1129.05331047606	864.599975585938
1129.73347310134	864.400024414063
1130.41354920582	864.799987792969
1131.09353879722	864.400024414063
1131.77344188324	864.200012207031
1132.45325847159	863
1133.13298856999	863.599975585938
1133.81263218612	865.400024414063
1134.49218932772	865.200012207031
1135.17166000247	864.799987792969
1135.85104421809	864.799987792969
1136.53034198227	862.599975585938
1137.20955330274	865
1137.88867818718	864.799987792969
1138.56771664331	864.400024414063
1139.24666867883	864
1139.92553430144	864.400024414063
1140.60431351885	864.400024414063
1141.28300633876	865
1141.96161276887	864.799987792969
1142.64013281689	863.400024414063
1143.31856649051	863.200012207031
1143.99691379744	863.200012207031
1144.67517474538	864.799987792969
1145.35334934203	863.599975585938
1146.03143759509	863
1146.70943951226	864.599975585938
1147.38735510125	864
1148.06518436974	865.200012207031
1148.74292732545	863.400024414063
1149.42058397606	865
1150.09815432928	864.200012207031
1150.7756383928	864.799987792969
1151.45303617432	864.799987792969
1152.13034768155	862.400024414063
1152.80757292217	864.599975585938
1153.48471190389	866.200012207031
1154.16176463439	865.599975585938
1154.83873112138	864.200012207031
1155.51561137255	864.599975585938
1156.1924053956	863.599975585938
1156.86911319822	863.200012207031
1157.5457347881	864.400024414063
1158.22227017294	864.200012207031
1158.89871936044	864
1159.57508235828	861.599975585938
1160.25135917416	863.400024414063
1160.92754981578	864.799987792969
1161.60365429081	864.200012207031
1162.27967260697	863.799987792969
1162.95560477193	863.400024414063
1163.63145079339	862.200012207031
1164.30721067904	863.599975585938
1164.98288443657	864.799987792969
1165.65847207367	864.400024414063
1166.33397359803	863.799987792969
1167.00938901735	863
1167.6847183393	864.400024414063
1168.35996157157	864.200012207031
1169.03511872187	864.200012207031
1169.71018979787	863.200012207031
1170.38517480726	865.200012207031
1171.06007375773	862
1171.73488665696	864.200012207031
1172.40961351265	863.599975585938
1173.08425433247	863.400024414063
1173.75880912412	864.200012207031
1174.43327789528	864.599975585938
1175.10766065364	864.799987792969
1175.78195740687	863
1176.45616816267	864
1177.13029292871	862.799987792969
1177.80433171269	864.400024414063
1178.47828452229	864.599975585938
1179.15215136518	864.400024414063
1179.82593224905	862.799987792969
1180.49962718159	864
1181.17323617047	865.200012207031
1181.84675922337	862.400024414063
1182.52019634799	865.599975585938
1183.193547552	864.200012207031
1183.86681284307	863.200012207031
1184.53999222889	864.599975585938
1185.21308571714	864.799987792969
1185.8860933155	864.200012207031
1186.55901503165	864.599975585938
1187.23185087326	863.200012207031
1187.90460084802	863.799987792969
1188.5772649636	863.599975585938
1189.24984322768	863.799987792969
1189.92233564794	864.599975585938
1190.59474223206	864.799987792969
1191.2670629877	863.400024414063
1191.93929792255	864.799987792969
1192.61144704428	864.400024414063
1193.28351036058	864.400024414063
1193.9554878791	865.200012207031
1194.62737960754	865.200012207031
1195.29918555356	865.200012207031
1195.97090572483	863.599975585938
1196.64254012903	864.599975585938
1197.31408877384	863.400024414063
1197.98555166693	864.599975585938
1198.65692881596	865
1199.32822022862	864
1199.99942591256	863.400024414063
1200.67054587548	864
1201.34158012503	864.400024414063
1202.01252866889	865
1202.68339151473	863.200012207031
1203.35416867021	864.599975585938
1204.02486014301	864.400024414063
1204.6954659408	864.400024414063
1205.36598607124	863.400024414063
1206.03642054201	866
1206.70676936078	866
1207.3770325352	865
1208.04721007295	864.799987792969
1208.7173019817	864.400024414063
1209.38730826911	865.799987792969
1210.05722894285	864.599975585938
1210.72706401059	865.200012207031
1211.39681347999	863.400024414063
1212.06647735872	863.200012207031
1212.73605565444	865.400024414063
1213.40554837481	864.400024414063
1214.07495552751	863.400024414063
1214.74427712019	865.599975585938
1215.41351316052	865.200012207031
1216.08266365617	864.200012207031
1216.75172861479	864.599975585938
1217.42070804405	865.200012207031
1218.0896019516	865.599975585938
1218.75841034513	864.799987792969
1219.42713323227	866
1220.0957706207	865
1220.76432251808	864.400024414063
1221.43278893207	866
1222.10116987032	865.200012207031
1222.7694653405	865.799987792969
1223.43767535026	864.599975585938
1224.10579990727	864.200012207031
1224.77383901918	864.400024414063
1225.44179269366	866.599975585938
1226.10966093835	866.599975585938
1226.77744376093	864.599975585938
1227.44514116904	866.799987792969
1228.11275317034	865.799987792969
1228.78027977249	865.200012207031
1229.44772098315	865
1230.11507680996	865.599975585938
1230.7823472606	865
1231.44953234271	866.599975585938
1232.11663206394	864.400024414063
1232.78364643195	864.599975585938
1233.4505754544	866.599975585938
1234.11741913894	864.799987792969
1234.78417749322	865.200012207031
1235.45085052489	865
1236.11743824162	865.799987792969
1236.78394065104	864.599975585938
1237.45035776082	865.200012207031
1238.1166895786	864.400024414063
1238.78293611204	865.799987792969
1239.44909736878	864.799987792969
1240.11517335648	865.200012207031
1240.78116408279	865.400024414063
1241.44706955535	866.400024414063
1242.11288978182	863.799987792969
1242.77862476985	865.200012207031
1243.44427452708	864
1244.10983906116	865.799987792969
1244.77531837974	865.400024414063
1245.44071249047	864.400024414063
1246.106021401	865.400024414063
1246.77124511898	864.200012207031
1247.43638365204	865
1248.10143700783	865.599975585938
1248.76640519401	865.200012207031
1249.43128821822	866.599975585938
1250.0960860881	865.200012207031
1250.76079881129	865
1251.42542639545	864.400024414063
1252.08996884822	864.200012207031
1252.75442617723	864.599975585938
1253.41879839014	864.799987792969
1254.08308549458	864.400024414063
1254.74728749821	865.799987792969
1255.41140440866	864.599975585938
1256.07543623357	865.799987792969
1256.73938298059	864.200012207031
1257.40324465735	864
1258.0670212715	864
1258.73071283068	865.400024414063
1259.39431934253	864.400024414063
1260.05784081468	863.799987792969
1260.72127725479	864.400024414063
1261.38462867049	864.200012207031
1262.0478950694	865.200012207031
1262.71107645919	866.200012207031
1263.37417284748	865.400024414063
1264.03718424191	864.799987792969
1264.70011065011	864
1265.36295207974	864.200012207031
1266.02570853841	864.799987792969
1266.68838003378	863
1267.35096657346	866.400024414063
1268.01346816511	864.400024414063
1268.67588481636	864
1269.33821653483	864
1270.00046332817	865.400024414063
1270.66262520401	865.400024414063
1271.32470216998	864.200012207031
1271.98669423372	865
1272.64860140285	862.599975585938
1273.31042368503	864.400024414063
1273.97216108786	864.400024414063
1274.633813619	864.400024414063
1275.29538128606	864.599975585938
1275.95686409669	865.200012207031
1276.6182620585	865
1277.27957517914	864
1277.94080346624	863
1278.60194692741	865.799987792969
1279.2630055703	865.400024414063
1279.92397940253	865
1280.58486843173	863.799987792969
1281.24567266552	865.400024414063
1281.90639211155	863.799987792969
1282.56702677743	864.200012207031
1283.2275766708	864.799987792969
1283.88804179927	864.200012207031
1284.54842217049	865.400024414063
1285.20871779206	862.799987792969
1285.86892867163	864.799987792969
1286.52905481681	864.599975585938
1287.18909623523	862.599975585938
1287.84905293452	864
1288.5089249223	864.200012207031
1289.16871220619	865
1289.82841479383	863.799987792969
1290.48803269282	864.599975585938
1291.1475659108	864.799987792969
1291.80701445539	865.599975585938
1292.46637833421	866.400024414063
1293.12565755489	864.799987792969
1293.78485212504	864.799987792969
1294.44396205229	864.200012207031
1295.10298734425	866.200012207031
1295.76192800856	864.599975585938
1296.42078405283	864.599975585938
1297.07955548467	864.599975585938
1297.73824231171	865.599975585938
1298.39684454158	864.400024414063
1299.05536218188	866
1299.71379524023	864.799987792969
1300.37214372427	864.799987792969
1301.03040764159	864.200012207031
1301.68858699983	865.200012207031
1302.34668180659	865.200012207031
1303.0046920695	865
1303.66261779617	864.799987792969
1304.32045899422	865.799987792969
1304.97821567126	864.200012207031
1305.63588783492	866.400024414063
1306.29347549279	866.400024414063
1306.95097865251	867.200012207031
1307.60839732168	865.400024414063
1308.26573150791	865.400024414063
1308.92298121883	865.200012207031
1309.58014646204	865.599975585938
1310.23722724517	865.599975585938
1310.89422357581	866
1311.55113546158	864.799987792969
1312.2079629101	864.799987792969
1312.86470592898	865
1313.52136452582	865.599975585938
1314.17793870824	865.799987792969
1314.83442848386	866.599975585938
1315.49083386027	864.200012207031
1316.14715484509	866.400024414063
1316.80339144594	864.599975585938
1317.45954367041	866.799987792969
1318.11561152611	865.200012207031
1318.77159502067	865.599975585938
1319.42749416168	866.200012207031
1320.08330895674	866.400024414063
1320.73903941348	866
1321.3946855395	866.400024414063
1322.0502473424	865.200012207031
1322.70572482978	864.200012207031
1323.36111800926	864.799987792969
1324.01642688845	864.799987792969
1324.67165147494	866.599975585938
1325.32679177634	867.599975585938
1325.98184780025	864.799987792969
1326.63681955429	866.400024414063
1327.29170704605	866.400024414063
1327.94651028314	865.200012207031
1328.60122927316	865.799987792969
1329.25586402371	866.200012207031
1329.9104145424	865.799987792969
1330.56488083683	867.799987792969
1331.2192629146	865.599975585938
1331.87356078331	865.799987792969
1332.52777445056	866.200012207031
1333.18190392395	866.400024414063
1333.83594921109	867
1334.48991031958	864
1335.143787257	865.599975585938
1335.79758003097	866
1336.45128864908	865.200012207031
1337.10491311893	865
1337.75845344813	865.400024414063
1338.41190964425	866.599975585938
1339.06528171491	866.200012207031
1339.71856966771	865.799987792969
1340.37177351023	867.799987792969
1341.02489325007	864.599975585938
1341.67792889484	864.200012207031
1342.33088045212	867
1342.98374792952	865.200012207031
1343.63653133462	865.200012207031
1344.28923067503	864
1344.94184595833	865.799987792969
1345.59437719212	866.599975585938
1346.246824384	866
1346.89918754155	865.200012207031
1347.55146667238	866.400024414063
1348.20366178407	865.400024414063
1348.85577288421	865.799987792969
1349.50779998041	866.200012207031
1350.15974308024	864.799987792969
1350.8116021913	866.200012207031
1351.46337732119	865.599975585938
1352.11506847748	864.599975585938
1352.76667566778	865.400024414063
1353.41819889967	866
1354.06963818074	866
1354.72099351858	865.400024414063
1355.37226492079	865.200012207031
1356.02345239494	864.599975585938
1356.67455594862	865.599975585938
1357.32557558943	865.799987792969
1357.97651132496	866.799987792969
1358.62736316277	866.400024414063
1359.27813111048	863.799987792969
1359.92881517565	865
1360.57941536589	867.200012207031
1361.22993168876	865.799987792969
1361.88036415186	865.799987792969
1362.53071276278	866.200012207031
1363.1809775291	866.599975585938
1363.8311584584	866.799987792969
1364.48125555826	866.599975585938
1365.13126883627	867.200012207031
1365.78119830001	864
1366.43104395707	866.799987792969
1367.08080581503	866.400024414063
1367.73048388147	866
1368.38007816397	865.400024414063
1369.02958867011	864.599975585938
1369.67901540748	864.799987792969
1370.32835838365	867
1370.9776176062	867.799987792969
1371.62679308273	865.799987792969
1372.27588482079	866.599975585938
1372.92489282798	867.400024414063
1373.57381711188	866
1374.22265768006	866.400024414063
1374.87141454009	865.400024414063
1375.52008769957	866.200012207031
1376.16867716606	866.599975585938
1376.81718294715	865.200012207031
1377.4656050504	865.200012207031
1378.1139434834	866.400024414063
1378.76219825373	868.200012207031
1379.41036936895	866
1380.05845683664	865.599975585938
1380.70646066439	866
1381.35438085976	865.799987792969
1382.00221743032	866.799987792969
1382.64997038366	866.400024414063
1383.29763972735	868.200012207031
1383.94522546895	865.799987792969
1384.59272761605	865.400024414063
1385.24014617621	867.200012207031
1385.88748115701	865.799987792969
1386.53473256602	867.400024414063
1387.18190041081	865.599975585938
1387.82898469895	865.400024414063
1388.47598543802	865.599975585938
1389.12290263558	866.400024414063
1389.7697362992	866.200012207031
1390.41648643646	866.599975585938
1391.06315305492	866.799987792969
1391.70973616215	865.599975585938
1392.35623576573	865.400024414063
1393.00265187321	866.400024414063
1393.64898449217	867.599975585938
1394.29523363018	867
1394.94139929481	865.799987792969
1395.58748149361	866
1396.23348023415	866.400024414063
1396.87939552402	866
1397.52522737076	865.599975585938
1398.17097578195	865.799987792969
1398.81664076514	864.400024414063
1399.46222232792	867.599975585938
1400.10772047783	865.799987792969
1400.75313522245	865.400024414063
1401.39846656934	865.799987792969
1402.04371452605	865.799987792969
1402.68887910016	868.599975585938
1403.33396029924	867
1403.97895813083	867.200012207031
1404.6238726025	867
1405.26870372182	868.200012207031
1405.91345149634	868.200012207031
1406.55811593363	866.400024414063
1407.20269704125	866.400024414063
1407.84719482676	865.799987792969
1408.49160929772	866.400024414063
1409.13594046168	866.799987792969
1409.78018832622	867
1410.42435289887	867.799987792969
1411.06843418722	868.400024414063
1411.7124321988	865.799987792969
1412.3563469412	869
1413.00017842194	868.799987792969
1413.64392664861	867
1414.28759162875	868.599975585938
1414.93117336992	867.400024414063
1415.57467187967	868.799987792969
1416.21808716557	868
1416.86141923516	867.400024414063
1417.50466809601	868.799987792969
1418.14783375567	867
1418.79091622169	867.799987792969
1419.43391550162	869.400024414063
1420.07683160303	868.799987792969
1420.71966453346	869.799987792969
1421.36241430046	870
1422.0050809116	869.400024414063
1422.64766437442	870
1423.29016469647	869.400024414063
1423.93258188531	870.400024414063
1424.57491594848	870
1425.21716689354	869
1425.85933472805	871
1426.50141945954	870.799987792969
1427.14342109557	868.400024414063
1427.78533964369	870.799987792969
1428.42717511144	868.400024414063
1429.06892750639	870.200012207031
1429.71059683607	870.599975585938
1430.35218310803	869.799987792969
1430.99368632983	867.400024414063
1431.635106509	870.400024414063
1432.2764436531	867.799987792969
1432.91769776967	871.200012207031
1433.55886886627	872.200012207031
1434.19995695043	870.799987792969
1434.84096202969	868.400024414063
1435.48188411162	870.799987792969
1436.12272320375	871.200012207031
1436.76347931363	868.799987792969
1437.40415244879	867.799987792969
1438.0447426168	869.799987792969
1438.68524982518	870.400024414063
1439.32567408148	871.599975585938
1439.96601539325	869.799987792969
1440.60627376803	869.200012207031
1441.24644921336	870.200012207031
1441.88654173678	870
1442.52655134583	871.200012207031
1443.16647804806	868
1443.806321851	869
1444.4460827622	869
1445.0857607892	868
1445.72535593953	868.799987792969
1446.36486822074	869.400024414063
1447.00429764037	868.599975585938
1447.64364420595	870.400024414063
1448.28290792502	868.400024414063
1448.92208880512	869.200012207031
1449.56118685379	869.400024414063
1450.20020207857	869
1450.83913448699	870
1451.47798408659	868.599975585938
1452.1167508849	870
1452.75543488947	869.200012207031
1453.39403610782	869.799987792969
1454.0325545475	869
1454.67099021603	869.599975585938
1455.30934312097	867.799987792969
1455.94761326982	868
1456.58580067014	867.799987792969
1457.22390532945	868.799987792969
1457.86192725529	868.400024414063
1458.49986645519	868
1459.13772293668	869.400024414063
1459.7754967073	869
1460.41318777457	871
1461.05079614604	866.599975585938
1461.68832182922	865.799987792969
1462.32576483166	867.599975585938
1462.96312516087	867.599975585938
1463.6004028244	867.400024414063
1464.23759782977	867.599975585938
1464.8747101845	866.799987792969
1465.51173989614	867.400024414063
1466.14868697221	867.200012207031
1466.78555142024	866.599975585938
1467.42233324774	866.599975585938
1468.05903246227	869.599975585938
1468.69564907133	865.799987792969
1469.33218308246	865.799987792969
1469.96863450317	866.799987792969
1470.60500334102	866.799987792969
1471.2412896035	867.400024414063
1471.87749329816	867.200012207031
1472.51361443251	866.400024414063
1473.14965301409	865.200012207031
1473.78560905041	865.799987792969
1474.421482549	867.799987792969
1475.05727351739	868.400024414063
1475.69298196309	868
1476.32860789364	867
1476.96415131654	866.200012207031
1477.59961223934	866.799987792969
1478.23499066954	866.400024414063
1478.87028661467	865.599975585938
1479.50550008226	865.799987792969
1480.14063107981	865.400024414063
1480.77567961486	867
1481.41064569492	865.799987792969
1482.04552932752	866.200012207031
1482.68033052017	865.799987792969
1483.31504928039	867.799987792969
1483.9496856157	866.799987792969
1484.58423953363	868.599975585938
1485.21871104168	866.799987792969
1485.85310014738	867
1486.48740685824	866.400024414063
1487.12163118178	866
1487.75577312553	867.400024414063
1488.38983269698	867
1489.02380990367	867
1489.65770475311	865.400024414063
1490.29151725281	866.200012207031
1490.92524741029	865
1491.55889523306	864.599975585938
1492.19246072863	866.400024414063
1492.82594390453	865.799987792969
1493.45934476826	865
1494.09266332734	864.400024414063
1494.72589958928	864.599975585938
1495.3590535616	865.200012207031
1495.99212525181	865.200012207031
1496.62511466741	866.200012207031
1497.25802181592	867.400024414063
1497.89084670485	866.200012207031
1498.52358934172	867.400024414063
1499.15624973403	865.799987792969
1499.7888278893	865.799987792969
1500.42132381503	865.599975585938
1501.05373751873	864.400024414063
1501.68606900792	866.200012207031
1502.31831829009	866.599975585938
1502.95048537277	866.400024414063
1503.58257026346	866.200012207031
1504.21457296966	866.400024414063
1504.84649349889	866.400024414063
1505.47833185864	867.400024414063
1506.11008805644	867.599975585938
1506.74176209978	866
1507.37335399617	866.400024414063
1508.00486375312	866
1508.63629137813	865.799987792969
1509.2676368787	865.799987792969
1509.89890026235	866.400024414063
1510.53008153658	866.799987792969
1511.16118070889	865.799987792969
1511.79219778677	866.599975585938
1512.42313277775	867
1513.05398568932	866.200012207031
1513.68475652898	867
1514.31544530424	866.200012207031
1514.9460520226	865.799987792969
1515.57657669155	865.799987792969
1516.20701931861	864.599975585938
1516.83737991127	865.599975585938
1517.46765847702	865.799987792969
1518.09785502339	867.200012207031
1518.72796955785	866.599975585938
1519.35800208792	866.799987792969
1519.98795262109	866.799987792969
1520.61782116486	867.400024414063
1521.24760772673	866.799987792969
1521.87731231419	866.200012207031
1522.50693493475	867.200012207031
1523.1364755959	867.799987792969
1523.76593430514	865.599975585938
1524.39531106997	866.400024414063
1525.02460589788	866.400024414063
1525.65381879637	867
1526.28294977293	866
1526.91199883507	865.599975585938
1527.54096599027	865.599975585938
1528.16985124603	865.400024414063
1528.79865460984	865.400024414063
1529.4273760892	865.599975585938
1530.05601569161	863.400024414063
1530.68457342455	865.799987792969
1531.31304929552	865
1531.94144331201	867
1532.56975548151	866.200012207031
1533.19798581152	864.799987792969
1533.82613430953	866.400024414063
1534.45420098302	865.799987792969
1535.08218583949	866.200012207031
1535.71008888643	865.799987792969
1536.33791013134	865.799987792969
1536.96564958169	864.799987792969
1537.59330724498	864.799987792969
1538.22088312871	863.799987792969
1538.84837724034	865.200012207031
1539.47578958739	865
1540.10312017733	866.400024414063
1540.73036901765	865.200012207031
1541.35753611584	864.599975585938
1541.98462147939	865.799987792969
1542.61162511578	864.200012207031
1543.2385470325	864.599975585938
1543.86538723704	867
1544.49214573688	865.599975585938
1545.11882253951	866.200012207031
1545.74541765241	865.799987792969
1546.37193108306	864.200012207031
1546.99836283896	864.400024414063
1547.62471292758	865.799987792969
1548.25098135641	863.400024414063
1548.87716813294	864.200012207031
1549.50327326464	864.599975585938
1550.12929675899	866
1550.75523862349	864
1551.38109886561	865.400024414063
1552.00687749284	866
1552.63257451264	865.599975585938
1553.25818993252	864.599975585938
1553.88372375994	865.200012207031
1554.50917600239	865.599975585938
1555.13454666734	865.200012207031
1555.75983576228	865.400024414063
1556.38504329469	865.799987792969
1557.01016927204	864
1557.63521370181	864.200012207031
1558.26017659149	864.200012207031
1558.88505794854	862.799987792969
1559.50985778045	866.400024414063
1560.13457609469	866.200012207031
1560.75921289874	864
1561.38376820008	864.799987792969
1562.00824200618	865.200012207031
1562.63263432452	864.400024414063
1563.25694516257	864.599975585938
1563.88117452781	863.599975585938
1564.50532242772	864.599975585938
1565.12938886976	865.200012207031
1565.75337386141	866.599975585938
1566.37727741015	866.400024414063
1567.00109952345	864.599975585938
1567.62484020878	864.599975585938
1568.24849947361	865
1568.87207732542	866.599975585938
1569.49557377168	865.599975585938
1570.11898881986	865.599975585938
1570.74232247743	865.400024414063
1571.36557475186	865.200012207031
1571.98874565062	867.200012207031
1572.61183518119	865.400024414063
1573.23484335103	863.599975585938
1573.85777016761	866
1574.4806156384	862.400024414063
1575.10337977088	865.799987792969
1575.7260625725	864.599975585938
1576.34866405074	866
1576.97118421306	864.400024414063
1577.59362306694	866
1578.21598061984	864.200012207031
1578.83825687922	865.400024414063
1579.46045185255	865.599975585938
1580.08256554731	864.599975585938
1580.70459797094	865.799987792969
1581.32654913093	864.200012207031
1581.94841903473	865.799987792969
1582.57020768981	864.799987792969
1583.19191510364	867
1583.81354128367	865.200012207031
1584.43508623737	865.599975585938
1585.05654997221	864.400024414063
1585.67793249564	866
1586.29923381514	865
1586.92045393815	864.799987792969
1587.54159287216	864.599975585938
1588.1626506246	865
1588.78362720296	866.200012207031
1589.40452261468	865.400024414063
1590.02533686724	865.400024414063
1590.64606996808	864.599975585938
1591.26672192467	865.599975585938
1591.88729274447	865.200012207031
1592.50778243493	865.200012207031
1593.12819100352	865.599975585938
1593.7485184577	866.200012207031
1594.36876480492	865.599975585938
1594.98893005264	864.400024414063
1595.60901420832	864.599975585938
1596.22901727941	864.799987792969
1596.84893927338	864
1597.46878019767	865.799987792969
1598.08854005975	864
1598.70821886707	864
1599.32781662708	864.599975585938
1599.94733334725	865.799987792969
1600.56676903502	866.200012207031
1601.18612369785	866.200012207031
1601.8053973432	866.400024414063
1602.42458997851	867.200012207031
1603.04370161124	867
1603.66273224884	865
1604.28168189878	865.799987792969
1604.90055056849	865.599975585938
1605.51933826543	865.599975585938
1606.13804499705	866.400024414063
1606.75667077081	866.400024414063
1607.37521559415	866.599975585938
1607.99367947452	866.400024414063
1608.61206241938	867.400024414063
1609.23036443618	865.400024414063
1609.84858553236	867.400024414063
1610.46672571537	867.599975585938
1611.08478499267	867.200012207031
1611.7027633717	866.400024414063
1612.3206608599	865.599975585938
1612.93847746473	866.200012207031
1613.55621319364	867.599975585938
1614.17386805407	867.200012207031
1614.79144205347	867
1615.40893519928	865.200012207031
1616.02634749895	865.400024414063
1616.64367895993	866
1617.26092958966	866.799987792969
1617.87809939559	867.400024414063
1618.49518838516	868.200012207031
1619.11219656582	868.400024414063
1619.729123945	867
1620.34597053016	866.599975585938
1620.96273632874	866.200012207031
1621.57942134818	866.200012207031
1622.19602559592	866
1622.8125490794	867.799987792969
1623.42899180607	866
1624.04535378337	865.200012207031
1624.66163501874	869.400024414063
1625.27783551963	867.400024414063
1625.89395529346	866
1626.50999434768	866.799987792969
1627.12595268974	867
1627.74183032707	866.599975585938
1628.3576272671	864.599975585938
1628.97334351729	865.599975585938
1629.58897908506	865.400024414063
1630.20453397786	865.200012207031
1630.82000820313	865.599975585938
1631.43540176829	864.200012207031
1632.05071468079	864.799987792969
1632.66594694807	865
1633.28109857756	863.799987792969
1633.8961695767	864
1634.51115995292	864
1635.12606971366	864
1635.74089886636	863.599975585938
1636.35564741844	865
1636.97031537734	863
1637.58490275051	863.799987792969
1638.19940954536	864.400024414063
1638.81383576934	863
1639.42818142987	863.200012207031
1640.0424465344	862.799987792969
1640.65663109034	863
1641.27073510515	863.400024414063
1641.88475858623	862.799987792969
1642.49870154104	863
1643.11256397699	862.200012207031
1643.72634590152	862.799987792969
1644.34004732206	862.400024414063
1644.95366824604	863.799987792969
1645.56720868089	862.200012207031
1646.18066863404	862.200012207031
1646.79404811291	864.599975585938
1647.40734712494	864
1648.02056567755	863.400024414063
1648.63370377817	862.799987792969
1649.24676143423	864
1649.85973865316	863
1650.47263544238	862
1651.08545180932	863.599975585938
1651.6981877614	863.799987792969
1652.31084330606	863.200012207031
1652.92341845071	863
1653.53591320278	862.200012207031
1654.1483275697	863
1654.7606615589	863.799987792969
1655.37291517778	862.200012207031
1655.98508843379	862.799987792969
1656.59718133434	862.599975585938
1657.20919388685	863
1657.82112609875	863.200012207031
1658.43297797747	862.400024414063
1659.04474953041	862.799987792969
1659.65644076501	862.599975585938
1660.26805168869	862
1660.87958230886	861.200012207031
1661.49103263294	862
1662.10240266837	863.599975585938
1662.71369242255	861.799987792969
1663.32490190291	862.200012207031
1663.93603111687	861.599975585938
1664.54708007184	862
1665.15804877524	862.200012207031
1665.7689372345	863
1666.37974545703	862.799987792969
1666.99047345024	862
1667.60112122156	861.400024414063
1668.2116887784	862.400024414063
1668.82217612818	863
1669.43258327831	862.599975585938
1670.04291023622	861.799987792969
1670.65315700931	862
1671.263323605	861.200012207031
1671.8734100307	862.400024414063
1672.48341629384	862.400024414063
1673.09334240182	862.799987792969
1673.70318836206	862.599975585938
1674.31295418197	861.599975585938
1674.92263986896	863.200012207031
1675.53224543046	863
1676.14177087386	862.799987792969
1676.75121620658	863.400024414063
1677.36058143604	862.799987792969
1677.96986656964	862.200012207031
1678.5790716148	862
1679.18819657892	862.599975585938
1679.79724146943	861.200012207031
1680.40620629372	862.400024414063
1681.0150910592	861.400024414063
1681.6238957733	862.200012207031
1682.23262044341	861
1682.84126507694	864
1683.4498296813	860.799987792969
1684.0583142639	862.200012207031
1684.66671883216	861.799987792969
1685.27504339346	861.599975585938
1685.88328795523	862
1686.49145252487	861.799987792969
1687.09953710978	861.400024414063
1687.70754171737	861.799987792969
1688.31546635505	863.599975585938
1688.92331103021	861.799987792969
1689.53107575028	863
1690.13876052265	861.400024414063
1690.74636535472	862.599975585938
1691.3538902539	861.799987792969
1691.96133522759	860.599975585938
1692.5687002832	860.799987792969
1693.17598542812	859.599975585938
1693.78319066977	862.200012207031
1694.39031601554	861.599975585938
1694.99736147283	861.599975585938
1695.60432704905	860.599975585938
1696.2112127516	862.200012207031
1696.81801858788	862.599975585938
1697.42474456528	861.799987792969
1698.03139069121	862.200012207031
1698.63795697307	863.200012207031
1699.24444341826	863
1699.85085003417	862.799987792969
1700.45717682821	864
1701.06342380778	861.200012207031
1701.66959098026	862.200012207031
1702.27567835307	862
1702.88168593359	862
1703.48761372922	862.400024414063
1704.09346174737	860
1704.69922999542	860.400024414063
1705.30491848077	861.599975585938
1705.91052721083	861.799987792969
1706.51605619297	863
1707.12150543461	861.200012207031
1707.72687494312	861.599975585938
1708.33216472592	860.599975585938
1708.93737479039	861.200012207031
1709.54250514392	860.799987792969
