634.977642221345	894.200012207031
635.719821695905	891
636.461909203392	889.799987792969
637.203904751776	889.400024414063
637.945808349023	893.599975585938
638.687620003102	891.799987792969
639.42933972198	890.200012207031
640.170967513616	892
640.912503385981	892.200012207031
641.653947347041	890.599975585938
642.395299404758	889.200012207031
643.13655956709	890
643.877727842014	890
644.61880423748	890.200012207031
645.359788761455	890
646.100681421905	894.200012207031
646.841482226789	892.799987792969
647.582191184074	890
648.322808301711	889.400024414063
649.06333358767	890.200012207031
649.803767049909	889.599975585938
650.544108696385	890
651.28435853506	890.799987792969
652.024516573894	891.400024414063
652.764582820849	889.799987792969
653.504557283875	892.400024414063
654.244439970937	892.400024414063
654.984230889991	893.200012207031
655.723930048995	893.799987792969
656.463537455909	894.400024414063
657.203053118683	892.400024414063
657.942477045275	895
658.681809243647	893.599975585938
659.421049721747	895.400024414063
660.160198487535	896
660.899255548962	897.599975585938
661.638220913985	897.200012207031
662.377094590559	895.799987792969
663.115876586631	899
663.854566910165	898
664.593165569107	902
665.331672571406	901.400024414063
666.07008792502	899.799987792969
666.808411637902	899.599975585938
667.546643717996	899.799987792969
668.284784173258	899.599975585938
669.022833011641	899.599975585938
669.760790241089	901.200012207031
670.498655869554	900.400024414063
671.236429904987	895.599975585938
671.97411235534	897.400024414063
672.711703228551	900
673.449202532577	902
674.186610275364	899.599975585938
674.923926464857	899.599975585938
675.661151109008	898.599975585938
676.398284215759	900.599975585938
677.135325793058	901.200012207031
677.87227584885	901.400024414063
678.609134391082	903.400024414063
679.345901427696	898.400024414063
680.082576966644	899.200012207031
680.819161015861	897.599975585938
681.555653583298	896
682.292054676895	899.799987792969
683.028364304594	900.200012207031
683.764582474344	897.599975585938
684.500709194083	898.599975585938
685.236744471752	897
685.972688315294	900
686.708540732652	896.799987792969
687.444301731762	895.200012207031
688.179971320572	895.599975585938
688.915549507013	894.400024414063
689.651036299034	893.799987792969
690.386431704569	893.599975585938
691.121735731559	892.599975585938
691.85694838794	893
692.592069681652	895.400024414063
693.327099620632	894.400024414063
694.062038212821	896.200012207031
694.796885466149	893
695.531641388561	894.400024414063
696.266305987987	892.200012207031
697.000879272367	892.200012207031
697.735361249632	892.799987792969
698.469751927722	897
699.204051314568	895.200012207031
699.938259418107	896.400024414063
700.672376246272	891
701.406401806997	890.799987792969
702.140336108212	893.400024414063
702.874179157855	890.400024414063
703.607930963856	889.200012207031
704.341591534147	893.200012207031
705.07516087666	891.599975585938
705.808638999324	892.200012207031
706.542025910073	893.200012207031
707.275321616841	890.599975585938
708.008526127549	892.599975585938
708.741639450132	892.200012207031
709.474661592521	893
710.207592562641	891.599975585938
710.940432368424	891.799987792969
711.673181017796	893.400024414063
712.405838518687	890.799987792969
713.138404879025	894
713.870880106731	894
714.603264209738	891.400024414063
715.335557195971	893.400024414063
716.067759073357	889.799987792969
716.799869849816	892.200012207031
717.531889533281	892.599975585938
718.263818131673	893
718.995655652917	891.400024414063
719.727402104934	893.400024414063
720.45905749565	894.200012207031
721.19062183299	889.200012207031
721.922095124877	891
722.653477379231	891.400024414063
723.384768603973	893.799987792969
724.11596880703	892.799987792969
724.847077996319	896
725.578096179762	893.599975585938
726.309023365281	894.799987792969
727.039859560792	897.400024414063
727.770604774222	894.400024414063
728.501259013484	895.200012207031
729.231822286501	893.400024414063
729.962294601191	894.599975585938
730.692675965469	893.400024414063
731.42296638726	890.400024414063
732.153165874472	889.799987792969
732.883274435032	893.599975585938
733.613292076851	891
734.343218807843	890
735.07305463593	892.599975585938
735.802799569028	893
736.532453615048	891.599975585938
737.262016781904	892
737.991489077517	891.400024414063
738.720870509794	891
739.450161086654	892.599975585938
740.179360816009	893.400024414063
740.908469705772	893.200012207031
741.637487763854	891.799987792969
742.366414998168	894.200012207031
743.095251416623	891.799987792969
743.823997027137	893.200012207031
744.552651837618	891.599975585938
745.281215855978	894.200012207031
746.009689090124	892.200012207031
746.738071547964	896.599975585938
747.466363237419	893
748.194564166384	891.599975585938
748.92267434278	891.400024414063
749.650693774504	891
750.378622469476	894.599975585938
751.106460435596	894.599975585938
751.834207680771	894.599975585938
752.561864212909	895.400024414063
753.289430039919	896
754.016905169707	894.799987792969
754.744289610175	893.599975585938
755.471583369231	889
756.198786454782	892.200012207031
756.925898874728	892.799987792969
757.652920636979	891.400024414063
758.379851749433	891
759.106692219996	890.799987792969
759.833442056572	892.200012207031
760.560101267063	894.799987792969
761.28666985937	893.200012207031
762.0131478414	893.200012207031
762.739535221046	895.400024414063
763.465832006219	896
764.192038204812	897
764.918153824731	896.599975585938
765.644178873872	898.400024414063
766.370113360138	897.200012207031
767.095957291425	901.200012207031
767.821710675635	901.799987792969
768.547373520665	900.599975585938
769.272945834415	904
769.998427624781	903.799987792969
770.723818899658	906
771.449119666949	905.200012207031
772.174329934546	906
772.899449710347	908.200012207031
773.624479002248	904.400024414063
774.349417818145	904.200012207031
775.074266165934	902
775.799024053505	902.200012207031
776.523691488757	901.200012207031
777.248268479582	900.200012207031
777.972755033877	900.200012207031
778.69715115953	900
779.421456864441	901.799987792969
780.145672156493	903
780.869797043587	901.799987792969
781.593831533611	897.599975585938
782.317775634457	896
783.041629354012	899.599975585938
783.765392700174	897
784.489065680828	898
785.212648303866	898.799987792969
785.936140577177	895
786.659542508652	895.599975585938
787.382854106174	897
788.106075377639	899.200012207031
788.829206330928	897.400024414063
789.552246973933	897.599975585938
790.275197314542	897.799987792969
790.998057360638	899.200012207031
791.720827120108	898.799987792969
792.443506600841	898.799987792969
793.166095810722	899.400024414063
793.888594757635	898.799987792969
794.611003449465	896.799987792969
795.333321894098	898.599975585938
796.055550099417	899.200012207031
796.777688073308	899.200012207031
797.499735823654	900
798.221693358334	898.799987792969
798.943560685235	899.200012207031
799.665337812239	898
800.387024747226	901.599975585938
801.108621498075	898
801.830128072674	902.599975585938
802.551544478902	900.200012207031
803.272870724636	903.400024414063
803.994106817761	903.200012207031
804.715252766148	900.599975585938
805.436308577687	902.799987792969
806.157274260251	903.799987792969
806.878149821721	905.200012207031
807.598935269973	905.200012207031
808.319630612886	903
809.040235858336	904.400024414063
809.760751014202	900.200012207031
810.481176088361	901.799987792969
811.201511088685	897
811.921756023059	897.400024414063
812.641910899347	895.400024414063
813.361975725432	895.599975585938
814.081950509188	898.799987792969
814.801835258489	897.599975585938
815.521629981206	899.799987792969
816.241334685218	902.400024414063
816.960949378392	898
817.680474068606	898.799987792969
818.399908763731	898.799987792969
819.11925347164	899.400024414063
819.838508200202	898.400024414063
820.55767295729	895.799987792969
821.276747750778	899.200012207031
821.995732588531	893.400024414063
822.714627478425	898.599975585938
823.433432428327	897.400024414063
824.152147446105	898
824.870772539632	901.200012207031
825.589307716775	903.200012207031
826.307752985404	902
827.026108353378	900.799987792969
827.744373828579	898
828.462549418867	899.400024414063
829.180635132107	898
829.898630976168	901.200012207031
830.616536958915	900
831.334353088218	900
832.052079371938	899.400024414063
832.769715817942	897.200012207031
833.487262434092	899.599975585938
834.204719228255	897.200012207031
834.922086208293	894.200012207031
835.639363382073	894.599975585938
836.356550757456	895.799987792969
837.073648342304	895.200012207031
837.790656144484	896.400024414063
838.507574171847	895.799987792969
839.22440243227	898.799987792969
839.941140933601	899
840.657789683706	897.799987792969
841.374348690448	898.200012207031
842.090817961686	895.599975585938
842.807197505276	898.200012207031
843.523487329083	894
844.23968744096	897.200012207031
844.955797848771	896.400024414063
845.671818560374	894.799987792969
846.387749583622	894.799987792969
847.103590926378	896
847.819342596497	894
848.535004601833	895.799987792969
849.25057695025	896.400024414063
849.966059649598	899.799987792969
850.681452707735	898.799987792969
851.396756132513	898.400024414063
852.111969931789	898.400024414063
852.827094113419	903.599975585938
853.542128685257	899.200012207031
854.257073655158	897
854.971929030969	902
855.686694820551	905.200012207031
856.40137103175	900.799987792969
857.115957672423	903.599975585938
857.830454750423	903.200012207031
858.544862273597	904.200012207031
859.259180249797	908
859.97340868688	909
860.687547592688	905
861.401596975075	907.400024414063
862.115556841891	905.200012207031
862.829427200985	906.400024414063
863.543208060205	903.400024414063
864.256899427402	903.799987792969
864.970501310423	899.400024414063
865.684013717114	902.799987792969
866.397436655325	901.200012207031
867.110770132901	901.599975585938
867.824014157691	902.799987792969
868.537168737542	903.599975585938
869.250233880299	901.599975585938
869.963209593803	903.799987792969
870.676095885902	904.400024414063
871.388892764445	902.200012207031
872.101600237276	905.200012207031
872.814218312233	905.400024414063
873.526746997165	907.200012207031
874.239186299914	909.400024414063
874.951536228323	910
875.663796790231	907.200012207031
876.375967993487	912
877.088049845928	910.799987792969
877.8000423554	907.799987792969
878.511945529739	909
879.22375937679	905.200012207031
879.935483904388	906.599975585938
880.64711912038	909.200012207031
881.358665032604	910.400024414063
882.070121648892	909.799987792969
882.78148897709	908.599975585938
883.492767025039	911.400024414063
884.203955800571	913.400024414063
884.915055311525	915.200012207031
885.626065565741	911
886.336986571053	911.599975585938
887.047818335298	917.799987792969
887.758560866315	916.200012207031
888.469214171937	916.200012207031
889.179778260005	917.200012207031
889.890253138347	912.599975585938
890.600638814803	914.200012207031
891.310935297204	909.400024414063
892.021142593385	914
892.731260711183	919.400024414063
893.441289658429	920.200012207031
894.15122944295	915.200012207031
894.861080072591	913.599975585938
895.570841555173	913.799987792969
896.280513898534	913.799987792969
896.990097110503	913.599975585938
897.699591198913	914.599975585938
898.408996171595	915
899.118312036375	917.400024414063
899.827538801089	920.200012207031
900.536676473561	916
901.245725061628	918
901.954684573109	916.400024414063
902.663555015838	919
903.372336397644	914.400024414063
904.081028726351	917.599975585938
904.789632009793	917.799987792969
905.49814625579	913.200012207031
906.20657147217	912
906.914907666765	916.400024414063
907.623154847391	911.799987792969
908.331313021885	911.200012207031
909.039382198064	911.200012207031
909.747362383754	915.200012207031
910.455253586782	912.400024414063
911.163055814972	915.400024414063
911.870769076143	916.200012207031
912.578393378126	914.599975585938
913.285928728738	911
913.993375135802	911
914.700732607145	911
915.408001150579	908
916.115180773937	905.400024414063
916.822271485037	906.400024414063
917.529273291693	907
918.236186201733	907
918.943010222971	904.200012207031
919.649745363234	906.400024414063
920.356391630333	904
921.062949032096	902.200012207031
921.769417576333	902.400024414063
922.475797270864	904.799987792969
923.182088123512	902
923.888290142089	899.799987792969
924.594403334414	899.400024414063
925.300427708304	901
926.006363271572	900.799987792969
926.712210032039	900.799987792969
927.417967997522	903.200012207031
928.123637175827	902.400024414063
928.829217574776	896.599975585938
929.534709202184	898.799987792969
930.240112065859	900.200012207031
930.945426173621	900.200012207031
931.650651533283	899.200012207031
932.355788152653	899.200012207031
933.060836039547	901.200012207031
933.765795201776	897
934.470665647153	898.200012207031
935.175447383492	897.200012207031
935.880140418599	900
936.584744760286	899.200012207031
937.289260416366	899
937.993687394647	900
938.698025702939	898.799987792969
939.402275349051	897.799987792969
940.106436340793	900.400024414063
940.810508685976	901
941.5144923924	902.599975585938
942.21838746788	901
942.922193920223	900.400024414063
943.625911757231	902.799987792969
944.329540986716	902.799987792969
945.033081616484	899.400024414063
945.736533654334	900.799987792969
946.439897108083	904.599975585938
947.143171985529	900.200012207031
947.846358294477	901.400024414063
948.549456042732	906.400024414063
949.2524652381	900.799987792969
949.955385888382	905
950.658218001384	903.400024414063
951.360961584907	902
952.063616646755	904.599975585938
952.766183194733	900.400024414063
953.468661236636	900.799987792969
954.171050780271	899
954.873351833437	898.799987792969
955.575564403935	899
956.277688499565	898.799987792969
956.97972412813	899.799987792969
957.681671297424	897.799987792969
958.383530015255	896.799987792969
959.085300289414	894.799987792969
959.786982127703	896.200012207031
960.488575537918	897.400024414063
961.190080527859	898.400024414063
961.891497105327	899.200012207031
962.592825278111	897.200012207031
963.294065054012	896.400024414063
963.995216440829	896.400024414063
964.696279446353	900
965.397254078383	900
966.098140344714	900.599975585938
966.798938253139	898.400024414063
967.499647811456	900
968.200269027458	900.799987792969
968.900801908937	896
969.601246463685	895.599975585938
970.3016026995	894.200012207031
971.001870624169	896
971.702050245491	894
972.402141571249	895
973.102144609245	895.799987792969
973.802059367267	897.400024414063
974.501885853103	898.400024414063
975.201624074541	898
975.901274039379	901.200012207031
976.600835755399	899.200012207031
977.3003092304	899
977.999694472158	898.799987792969
978.698991488473	899.599975585938
979.39820028713	898
980.097320875915	898.799987792969
980.796353262618	898.599975585938
981.495297455024	897
982.194153460919	894
982.892921288093	897.400024414063
983.591600944331	895.599975585938
984.290192437419	893.599975585938
984.98869577514	894.400024414063
985.687110965282	895
986.385438015629	895.200012207031
987.083676933961	898.200012207031
987.781827728069	892.599975585938
988.479890405732	895.799987792969
989.177864974732	896.599975585938
989.875751442857	896.400024414063
990.573549817888	898.799987792969
991.271260107602	896.400024414063
991.968882319786	897
992.666416462217	897.200012207031
993.363862542681	896.799987792969
994.061220568959	894.400024414063
994.758490548823	896
995.455672490061	895.200012207031
996.152766400451	895.799987792969
996.849772287773	897
997.5466901598	895.400024414063
998.243520024317	898.599975585938
998.940261889097	895.400024414063
999.636915761923	894
1000.33348165057	894.799987792969
1001.02995956281	895.400024414063
1001.72634950643	896.599975585938
1002.42265148919	896
1003.11886551889	897.400024414063
1003.81499160328	895.400024414063
1004.51102975015	894.799987792969
1005.20697996727	897
1005.90284226242	898
1006.59861664337	899.799987792969
1007.2943031179	898.799987792969
1007.98990169377	900.200012207031
1008.68541237876	898.400024414063
1009.38083518064	897.200012207031
1010.07617010719	900
1010.77141716617	899.400024414063
1011.46657636536	898.200012207031
1012.16164771253	896.799987792969
1012.85663121546	895.599975585938
1013.5515268819	897.200012207031
1014.24633471963	898.599975585938
1014.94105473642	900.200012207031
1015.63568694004	901.599975585938
1016.33023133826	898.599975585938
1017.02468793885	903
1017.71905674957	904
1018.41333777819	900.799987792969
1019.10753103249	904.599975585938
1019.80163652022	901.200012207031
1020.49565424916	902.200012207031
1021.18958422707	903.599975585938
1021.88342646171	907
1022.57718096085	905.400024414063
1023.27084773227	905.599975585938
1023.96442678371	907.799987792969
1024.65791812296	909
1025.35132175776	912.200012207031
1026.04463769589	908.200012207031
1026.73786594511	908.799987792969
1027.43100651318	912.599975585938
1028.12405940786	916.799987792969
1028.81702463692	909.200012207031
1029.50990220812	914.599975585938
1030.20269212921	915.599975585938
1030.89539440798	917.200012207031
1031.58800905216	915.200012207031
1032.28053606952	920.400024414063
1032.97297546784	916.200012207031
1033.66532725485	922.799987792969
1034.35759143832	919.799987792969
1035.04976802602	919
1035.7418570257	918.400024414063
1036.43385844511	921.799987792969
1037.12577229202	919.599975585938
1037.81759857419	923.400024414063
1038.50933729937	922.200012207031
1039.20098847531	922.400024414063
1039.89255210978	920.599975585938
1040.58402821053	916.599975585938
1041.27541678532	917.400024414063
1041.96671784191	913.799987792969
1042.65793138804	914.599975585938
1043.34905743147	915.200012207031
1044.04009597996	914
1044.73104704125	909.200012207031
1045.42191062312	909.599975585938
1046.1126867333	911
1046.80337537955	906.200012207031
1047.49397656962	908.200012207031
1048.18449031127	909.400024414063
1048.87491661225	907.200012207031
1049.5652554803	910.400024414063
1050.25550692319	906.599975585938
1050.94567094865	910.200012207031
1051.63574756444	910
1052.32573677832	910.599975585938
1053.01563859803	906
1053.70545303131	907.799987792969
1054.39518008592	910.400024414063
1055.08481976961	909.400024414063
1055.77437209013	906.799987792969
1056.46383705522	906.400024414063
1057.15321467262	906.200012207031
1057.8425049501	907.400024414063
1058.53170789539	906.599975585938
1059.22082351624	905.400024414063
1059.9098518204	903
1060.59879281561	900
1061.28764650962	904.400024414063
1061.97641291016	903.599975585938
1062.665092025	904.400024414063
1063.35368386187	904.599975585938
1064.04218842851	907.400024414063
1064.73060573268	908
1065.4189357821	908.400024414063
1066.10717858452	904.599975585938
1066.7953341477	909.400024414063
1067.48340247936	907.400024414063
1068.17138358725	905.400024414063
1068.85927747912	908.799987792969
1069.5470841627	910.799987792969
1070.23480364573	912.200012207031
1070.92243593595	913.400024414063
1071.60998104111	912.799987792969
1072.29743896894	912.400024414063
1072.98480972718	909.799987792969
1073.67209332357	911.799987792969
1074.35928976585	909.599975585938
1075.04639906176	911.400024414063
1075.73342121903	907.400024414063
1076.42035624541	908
1077.10720414862	909
1077.79396493641	909
1078.48063861651	909.200012207031
1079.16722519666	905
1079.85372468459	902.599975585938
1080.54013708804	903.599975585938
1081.22646241474	898.799987792969
1081.91270067243	901.599975585938
1082.59885186884	899
1083.28491601171	901
1083.97089310877	901.400024414063
1084.65678316774	901.799987792969
1085.34258619637	901.799987792969
1086.02830220239	902.400024414063
1086.71393119352	901.400024414063
1087.39947317751	900
1088.08492816207	899.599975585938
1088.77029615495	902
1089.45557716387	901.200012207031
1090.14077119656	900.200012207031
1090.82587826075	903.200012207031
1091.51089836417	899.400024414063
1092.19583151456	897.799987792969
1092.88067771963	895.599975585938
1093.56543698712	899.799987792969
1094.25010932475	899.200012207031
1094.93469474026	896.400024414063
1095.61919324137	896.400024414063
1096.3036048358	901.400024414063
1096.98792953129	901
1097.67216733555	897.599975585938
1098.35631825632	898
1099.04038230132	902.799987792969
1099.72435947828	901.400024414063
1100.40824979492	898.599975585938
1101.09205325895	901.400024414063
1101.77576987812	900.200012207031
1102.45939966014	902.200012207031
1103.14294261273	899.599975585938
1103.82639874362	899
1104.50976806054	902
1105.19305057119	903.200012207031
1105.87624628331	906.200012207031
1106.55935520461	903
1107.24237734283	905.400024414063
1107.92531270566	906
1108.60816130085	906
1109.2909231361	907.599975585938
1109.97359821914	908
1110.65618655768	904.400024414063
1111.33868815946	907.400024414063
1112.02110303217	905.200012207031
1112.70343118355	908.200012207031
1113.3856726213	905.799987792969
1114.06782735316	907.599975585938
1114.74989538683	909.599975585938
1115.43187673002	909.799987792969
1116.11377139047	909.400024414063
1116.79557937588	905.799987792969
1117.47730069397	910
1118.15893535245	912.400024414063
1118.84048335904	915
1119.52194472146	910.200012207031
1120.20331944741	913.400024414063
1120.88460754462	913.200012207031
1121.56580902079	912.599975585938
1122.24692388364	912.599975585938
1122.92795214088	917.400024414063
1123.60889380022	919.599975585938
1124.28974886938	917.799987792969
1124.97051735606	916.799987792969
1125.65119926799	918.799987792969
1126.33179461286	911
1127.0123033984	915
1127.6927256323	916.599975585938
1128.37306132229	919.200012207031
1129.05331047606	918.599975585938
1129.73347310134	918.200012207031
1130.41354920582	914.799987792969
1131.09353879722	912.799987792969
1131.77344188324	914.200012207031
1132.45325847159	919.799987792969
1133.13298856999	916.799987792969
1133.81263218612	917.400024414063
1134.49218932772	918.200012207031
1135.17166000247	919.200012207031
1135.85104421809	920.799987792969
1136.53034198227	920.400024414063
1137.20955330274	920
1137.88867818718	917.799987792969
1138.56771664331	914.400024414063
1139.24666867883	914.799987792969
1139.92553430144	918
1140.60431351885	912.799987792969
1141.28300633876	918.200012207031
1141.96161276887	911.599975585938
1142.64013281689	920
1143.31856649051	915.200012207031
1143.99691379744	915.400024414063
1144.67517474538	918.400024414063
1145.35334934203	915.799987792969
1146.03143759509	923.200012207031
1146.70943951226	917.799987792969
1147.38735510125	920.400024414063
1148.06518436974	919.799987792969
1148.74292732545	922
1149.42058397606	918
1150.09815432928	922.400024414063
1150.7756383928	923.400024414063
1151.45303617432	928
1152.13034768155	929.400024414063
1152.80757292217	927.599975585938
1153.48471190389	932
1154.16176463439	926.200012207031
1154.83873112138	924.599975585938
1155.51561137255	924.799987792969
1156.1924053956	924.799987792969
1156.86911319822	925.200012207031
1157.5457347881	927
1158.22227017294	920
1158.89871936044	921.599975585938
1159.57508235828	920.599975585938
1160.25135917416	920.400024414063
1160.92754981578	917.799987792969
1161.60365429081	919.799987792969
1162.27967260697	919.400024414063
1162.95560477193	917.599975585938
1163.63145079339	916.400024414063
1164.30721067904	915.799987792969
1164.98288443657	915.200012207031
1165.65847207367	915.400024414063
1166.33397359803	915
1167.00938901735	916
1167.6847183393	914.400024414063
1168.35996157157	915.200012207031
1169.03511872187	913.400024414063
1169.71018979787	908.599975585938
1170.38517480726	912.400024414063
1171.06007375773	914.200012207031
1171.73488665696	910.599975585938
1172.40961351265	911.799987792969
1173.08425433247	909.799987792969
1173.75880912412	910.599975585938
1174.43327789528	912.400024414063
1175.10766065364	914.799987792969
1175.78195740687	913.200012207031
1176.45616816267	911.400024414063
1177.13029292871	907
1177.80433171269	912.200012207031
1178.47828452229	913.400024414063
1179.15215136518	911.400024414063
1179.82593224905	911.599975585938
1180.49962718159	910
1181.17323617047	911
1181.84675922337	913.200012207031
1182.52019634799	911.200012207031
1183.193547552	911.200012207031
1183.86681284307	910.599975585938
1184.53999222889	913
1185.21308571714	908.400024414063
1185.8860933155	909
1186.55901503165	911.799987792969
1187.23185087326	908.799987792969
1187.90460084802	909.200012207031
1188.5772649636	910.400024414063
1189.24984322768	909.400024414063
1189.92233564794	909.400024414063
1190.59474223206	908.200012207031
1191.2670629877	909.799987792969
1191.93929792255	911.400024414063
1192.61144704428	908.599975585938
1193.28351036058	912.200012207031
1193.9554878791	912.799987792969
1194.62737960754	911.799987792969
1195.29918555356	909.599975585938
1195.97090572483	909.599975585938
1196.64254012903	913.799987792969
1197.31408877384	912.599975585938
1197.98555166693	914.200012207031
1198.65692881596	911.599975585938
1199.32822022862	909.400024414063
1199.99942591256	907.200012207031
1200.67054587548	908.400024414063
1201.34158012503	911.200012207031
1202.01252866889	910.400024414063
1202.68339151473	910.400024414063
1203.35416867021	911
1204.02486014301	915
1204.6954659408	917.200012207031
1205.36598607124	914
1206.03642054201	912.400024414063
1206.70676936078	912.799987792969
1207.3770325352	912
1208.04721007295	916.200012207031
1208.7173019817	915.200012207031
1209.38730826911	912.599975585938
1210.05722894285	913.799987792969
1210.72706401059	912.599975585938
1211.39681347999	914.400024414063
1212.06647735872	912.799987792969
1212.73605565444	913.799987792969
1213.40554837481	915.200012207031
1214.07495552751	913
1214.74427712019	914.599975585938
1215.41351316052	915
1216.08266365617	912.599975585938
1216.75172861479	915.200012207031
1217.42070804405	913.599975585938
1218.0896019516	917
1218.75841034513	914
1219.42713323227	918.799987792969
1220.0957706207	922.799987792969
1220.76432251808	918.799987792969
1221.43278893207	921.200012207031
1222.10116987032	919.400024414063
1222.7694653405	920.599975585938
1223.43767535026	921.799987792969
1224.10579990727	918.599975585938
1224.77383901918	918.400024414063
1225.44179269366	918
1226.10966093835	918
1226.77744376093	920.799987792969
1227.44514116904	920.799987792969
1228.11275317034	923.599975585938
1228.78027977249	924.599975585938
1229.44772098315	918.400024414063
1230.11507680996	918.400024414063
1230.7823472606	919.200012207031
1231.44953234271	923
1232.11663206394	915.799987792969
1232.78364643195	917.400024414063
1233.4505754544	917.400024414063
1234.11741913894	918.599975585938
1234.78417749322	919
1235.45085052489	916.599975585938
1236.11743824162	917.400024414063
1236.78394065104	922.400024414063
1237.45035776082	919
1238.1166895786	915.599975585938
1238.78293611204	918.400024414063
1239.44909736878	918.799987792969
1240.11517335648	917.799987792969
1240.78116408279	920
1241.44706955535	922
1242.11288978182	919.400024414063
1242.77862476985	917.799987792969
1243.44427452708	920
1244.10983906116	919.799987792969
1244.77531837974	918.599975585938
1245.44071249047	913.799987792969
1246.106021401	914
1246.77124511898	919.200012207031
1247.43638365204	917.799987792969
1248.10143700783	920.400024414063
1248.76640519401	919.599975585938
1249.43128821822	914.799987792969
1250.0960860881	918.200012207031
1250.76079881129	918.400024414063
1251.42542639545	917.599975585938
1252.08996884822	917.799987792969
1252.75442617723	916.599975585938
1253.41879839014	915.799987792969
1254.08308549458	913
1254.74728749821	916.400024414063
1255.41140440866	918.200012207031
1256.07543623357	917
1256.73938298059	914.200012207031
1257.40324465735	914
1258.0670212715	918.200012207031
1258.73071283068	920.200012207031
1259.39431934253	916.400024414063
1260.05784081468	917
1260.72127725479	916.200012207031
1261.38462867049	913.200012207031
1262.0478950694	916.400024414063
1262.71107645919	915
1263.37417284748	914.799987792969
1264.03718424191	911.799987792969
1264.70011065011	918.400024414063
1265.36295207974	915.400024414063
1266.02570853841	914.599975585938
1266.68838003378	914
1267.35096657346	913.599975585938
1268.01346816511	911.799987792969
1268.67588481636	913.200012207031
1269.33821653483	917.599975585938
1270.00046332817	913.400024414063
1270.66262520401	918.200012207031
1271.32470216998	916.400024414063
1271.98669423372	915.400024414063
1272.64860140285	914.599975585938
1273.31042368503	916.200012207031
1273.97216108786	915.599975585938
1274.633813619	918
1275.29538128606	921.200012207031
1275.95686409669	919
1276.6182620585	919.400024414063
1277.27957517914	918.799987792969
1277.94080346624	920.799987792969
1278.60194692741	920.400024414063
1279.2630055703	921
1279.92397940253	923.400024414063
1280.58486843173	923.599975585938
1281.24567266552	924
1281.90639211155	923.799987792969
1282.56702677743	921.599975585938
1283.2275766708	923.400024414063
1283.88804179927	920.799987792969
1284.54842217049	925
1285.20871779206	924.799987792969
1285.86892867163	924.200012207031
1286.52905481681	925
1287.18909623523	927.599975585938
1287.84905293452	926.799987792969
1288.5089249223	925
1289.16871220619	935.200012207031
1289.82841479383	926.400024414063
1290.48803269282	923
1291.1475659108	926.400024414063
1291.80701445539	923.200012207031
1292.46637833421	924.400024414063
1293.12565755489	931.200012207031
1293.78485212504	927.799987792969
1294.44396205229	928.200012207031
1295.10298734425	928.599975585938
1295.76192800856	928.799987792969
1296.42078405283	930.200012207031
1297.07955548467	928.799987792969
1297.73824231171	930
1298.39684454158	930.200012207031
1299.05536218188	933
1299.71379524023	936.799987792969
1300.37214372427	930.400024414063
1301.03040764159	932.200012207031
1301.68858699983	931
1302.34668180659	929.200012207031
1303.0046920695	931.599975585938
1303.66261779617	928.799987792969
1304.32045899422	932
1304.97821567126	926.200012207031
1305.63588783492	930.599975585938
1306.29347549279	935
1306.95097865251	937.400024414063
1307.60839732168	936.200012207031
1308.26573150791	933
1308.92298121883	934.200012207031
1309.58014646204	933.200012207031
1310.23722724517	927.400024414063
1310.89422357581	933.799987792969
1311.55113546158	932.599975585938
1312.2079629101	935
1312.86470592898	936.400024414063
1313.52136452582	931.599975585938
1314.17793870824	938.400024414063
1314.83442848386	932.799987792969
1315.49083386027	940.400024414063
1316.14715484509	939.599975585938
1316.80339144594	936
1317.45954367041	939.200012207031
1318.11561152611	941.799987792969
1318.77159502067	935.200012207031
1319.42749416168	939
1320.08330895674	937.599975585938
1320.73903941348	938.799987792969
1321.3946855395	940.799987792969
1322.0502473424	940
1322.70572482978	939.400024414063
1323.36111800926	941.799987792969
1324.01642688845	944.599975585938
1324.67165147494	945.799987792969
1325.32679177634	945
1325.98184780025	940.400024414063
1326.63681955429	945
1327.29170704605	945.400024414063
1327.94651028314	943.400024414063
1328.60122927316	943
1329.25586402371	938.400024414063
1329.9104145424	940.599975585938
1330.56488083683	941.400024414063
1331.2192629146	937.200012207031
1331.87356078331	939.799987792969
1332.52777445056	938.400024414063
1333.18190392395	939.400024414063
1333.83594921109	933.400024414063
1334.48991031958	938
1335.143787257	936.200012207031
1335.79758003097	936.799987792969
1336.45128864908	935.400024414063
1337.10491311893	938.400024414063
1337.75845344813	939
1338.41190964425	938.799987792969
1339.06528171491	936.400024414063
1339.71856966771	935.599975585938
1340.37177351023	938
1341.02489325007	934.400024414063
1341.67792889484	936.200012207031
1342.33088045212	934.799987792969
1342.98374792952	931.400024414063
1343.63653133462	935.200012207031
1344.28923067503	937
1344.94184595833	934
1345.59437719212	934.799987792969
1346.246824384	934
1346.89918754155	937
1347.55146667238	939.400024414063
1348.20366178407	935
1348.85577288421	941
1349.50779998041	944.599975585938
1350.15974308024	943.200012207031
1350.8116021913	938.799987792969
1351.46337732119	943
1352.11506847748	944
1352.76667566778	942.200012207031
1353.41819889967	941.200012207031
1354.06963818074	941.799987792969
1354.72099351858	941.400024414063
1355.37226492079	943.400024414063
1356.02345239494	940.200012207031
1356.67455594862	943
1357.32557558943	940
1357.97651132496	941.400024414063
1358.62736316277	944.799987792969
1359.27813111048	943.799987792969
1359.92881517565	945.799987792969
1360.57941536589	946
1361.22993168876	944.799987792969
1361.88036415186	943.599975585938
1362.53071276278	941.200012207031
1363.1809775291	951.799987792969
1363.8311584584	948
1364.48125555826	943
1365.13126883627	939.400024414063
1365.78119830001	940.200012207031
1366.43104395707	943.599975585938
1367.08080581503	945.200012207031
1367.73048388147	939.599975585938
1368.38007816397	939
1369.02958867011	937.599975585938
1369.67901540748	943.599975585938
1370.32835838365	938.400024414063
1370.9776176062	940
1371.62679308273	939.599975585938
1372.27588482079	941
1372.92489282798	941.799987792969
1373.57381711188	943.799987792969
1374.22265768006	941.599975585938
1374.87141454009	944.200012207031
1375.52008769957	943.400024414063
1376.16867716606	941.200012207031
1376.81718294715	944.200012207031
1377.4656050504	945.599975585938
1378.1139434834	943.400024414063
1378.76219825373	949
1379.41036936895	952.599975585938
1380.05845683664	951.400024414063
1380.70646066439	952
1381.35438085976	955.799987792969
1382.00221743032	956
1382.64997038366	956.200012207031
1383.29763972735	949.799987792969
1383.94522546895	953
1384.59272761605	956
1385.24014617621	961.400024414063
1385.88748115701	961.599975585938
1386.53473256602	966.599975585938
1387.18190041081	961.599975585938
1387.82898469895	959.200012207031
1388.47598543802	964
1389.12290263558	961.200012207031
1389.7697362992	963.400024414063
1390.41648643646	961
1391.06315305492	964.200012207031
1391.70973616215	959.400024414063
1392.35623576573	967
1393.00265187321	966.200012207031
1393.64898449217	962
1394.29523363018	968
1394.94139929481	965.599975585938
1395.58748149361	969.400024414063
1396.23348023415	967.400024414063
1396.87939552402	968
1397.52522737076	961.400024414063
1398.17097578195	957.799987792969
1398.81664076514	961.799987792969
1399.46222232792	956.200012207031
1400.10772047783	958.799987792969
1400.75313522245	956.200012207031
1401.39846656934	959.599975585938
1402.04371452605	956.200012207031
1402.68887910016	958.799987792969
1403.33396029924	961.200012207031
1403.97895813083	960
1404.6238726025	956.799987792969
1405.26870372182	960.799987792969
1405.91345149634	955.400024414063
1406.55811593363	951.400024414063
1407.20269704125	954
1407.84719482676	949
1408.49160929772	948.599975585938
1409.13594046168	955.200012207031
1409.78018832622	954.400024414063
1410.42435289887	951
1411.06843418722	956
1411.7124321988	954.200012207031
1412.3563469412	956.799987792969
1413.00017842194	957.400024414063
1413.64392664861	961.400024414063
1414.28759162875	957.599975585938
1414.93117336992	960.599975585938
1415.57467187967	956.200012207031
1416.21808716557	962
1416.86141923516	960
1417.50466809601	959
1418.14783375567	962.200012207031
1418.79091622169	970.400024414063
1419.43391550162	968
1420.07683160303	967
1420.71966453346	971.200012207031
1421.36241430046	971.400024414063
1422.0050809116	973.599975585938
1422.64766437442	974.400024414063
1423.29016469647	975.400024414063
1423.93258188531	983
1424.57491594848	979.400024414063
1425.21716689354	979.799987792969
1425.85933472805	979.400024414063
1426.50141945954	985
1427.14342109557	983.200012207031
1427.78533964369	987.599975585938
1428.42717511144	989.799987792969
1429.06892750639	989.200012207031
1429.71059683607	985.599975585938
1430.35218310803	981
1430.99368632983	985.599975585938
1431.635106509	985.799987792969
1432.2764436531	983.400024414063
1432.91769776967	983.599975585938
1433.55886886627	982
1434.19995695043	987.400024414063
1434.84096202969	984.599975585938
1435.48188411162	983.799987792969
1436.12272320375	984.799987792969
1436.76347931363	985.599975585938
1437.40415244879	981.599975585938
1438.0447426168	985.799987792969
1438.68524982518	987.200012207031
1439.32567408148	985.400024414063
1439.96601539325	974.799987792969
1440.60627376803	983.200012207031
1441.24644921336	978.200012207031
1441.88654173678	974.599975585938
1442.52655134583	979.200012207031
1443.16647804806	982.599975585938
1443.806321851	978.400024414063
1444.4460827622	975.400024414063
1445.0857607892	973
1445.72535593953	970.400024414063
1446.36486822074	972.400024414063
1447.00429764037	970.400024414063
1447.64364420595	977
1448.28290792502	977.799987792969
1448.92208880512	978
1449.56118685379	980
1450.20020207857	979.599975585938
1450.83913448699	978.200012207031
1451.47798408659	977.400024414063
1452.1167508849	976.599975585938
1452.75543488947	976.799987792969
1453.39403610782	970.599975585938
1454.0325545475	968.400024414063
1454.67099021603	970.799987792969
1455.30934312097	973
1455.94761326982	967.400024414063
1456.58580067014	967.400024414063
1457.22390532945	967.400024414063
1457.86192725529	969.400024414063
1458.49986645519	972.599975585938
1459.13772293668	960.200012207031
1459.7754967073	962.400024414063
1460.41318777457	962.799987792969
1461.05079614604	963.799987792969
1461.68832182922	956.200012207031
1462.32576483166	957.599975585938
1462.96312516087	958.200012207031
1463.6004028244	958.599975585938
1464.23759782977	957.200012207031
1464.8747101845	959
1465.51173989614	960.599975585938
1466.14868697221	955.400024414063
1466.78555142024	958.200012207031
1467.42233324774	957
1468.05903246227	951.599975585938
1468.69564907133	954.200012207031
1469.33218308246	958.200012207031
1469.96863450317	957.200012207031
1470.60500334102	958.200012207031
1471.2412896035	959.400024414063
1471.87749329816	956.799987792969
1472.51361443251	952.400024414063
1473.14965301409	952.400024414063
1473.78560905041	952.599975585938
1474.421482549	955
1475.05727351739	954.799987792969
1475.69298196309	953
1476.32860789364	949.599975585938
1476.96415131654	952
1477.59961223934	955
1478.23499066954	948
1478.87028661467	948.599975585938
1479.50550008226	951.200012207031
1480.14063107981	953.599975585938
1480.77567961486	952.200012207031
1481.41064569492	948.799987792969
1482.04552932752	944.599975585938
1482.68033052017	951.200012207031
1483.31504928039	955.799987792969
1483.9496856157	958
1484.58423953363	957.799987792969
1485.21871104168	953.200012207031
1485.85310014738	952
1486.48740685824	950.200012207031
1487.12163118178	953.799987792969
1487.75577312553	953.400024414063
1488.38983269698	951.799987792969
1489.02380990367	953.200012207031
1489.65770475311	948.599975585938
1490.29151725281	953.599975585938
1490.92524741029	947.200012207031
1491.55889523306	945.200012207031
1492.19246072863	949.799987792969
1492.82594390453	946
1493.45934476826	950.400024414063
1494.09266332734	950
1494.72589958928	947.400024414063
1495.3590535616	945.200012207031
1495.99212525181	949.400024414063
1496.62511466741	945.400024414063
1497.25802181592	950.799987792969
1497.89084670485	948.200012207031
1498.52358934172	947.200012207031
1499.15624973403	950
1499.7888278893	952.799987792969
1500.42132381503	954.200012207031
1501.05373751873	953.799987792969
1501.68606900792	951.799987792969
1502.31831829009	948
1502.95048537277	944.599975585938
1503.58257026346	946.200012207031
1504.21457296966	947.799987792969
1504.84649349889	949.599975585938
1505.47833185864	949.400024414063
1506.11008805644	949.400024414063
1506.74176209978	944.799987792969
1507.37335399617	945.200012207031
1508.00486375312	944.400024414063
1508.63629137813	943.799987792969
1509.2676368787	944.400024414063
1509.89890026235	944.799987792969
1510.53008153658	943
1511.16118070889	942.599975585938
1511.79219778677	945.599975585938
1512.42313277775	946.200012207031
1513.05398568932	945.400024414063
1513.68475652898	948
1514.31544530424	946
1514.9460520226	941.799987792969
1515.57657669155	945.599975585938
1516.20701931861	941.200012207031
1516.83737991127	946.599975585938
1517.46765847702	944
1518.09785502339	943.200012207031
1518.72796955785	946.599975585938
1519.35800208792	941.200012207031
1519.98795262109	942.799987792969
1520.61782116486	940.400024414063
1521.24760772673	938.400024414063
1521.87731231419	938.400024414063
1522.50693493475	938.200012207031
1523.1364755959	935.799987792969
1523.76593430514	934
1524.39531106997	937.799987792969
1525.02460589788	933.200012207031
1525.65381879637	930.400024414063
1526.28294977293	931.599975585938
1526.91199883507	930
1527.54096599027	928.599975585938
1528.16985124603	929.200012207031
1528.79865460984	925.599975585938
1529.4273760892	927.400024414063
1530.05601569161	927
1530.68457342455	923.799987792969
1531.31304929552	923.599975585938
1531.94144331201	922.599975585938
1532.56975548151	925
1533.19798581152	926.799987792969
1533.82613430953	924.200012207031
1534.45420098302	925
1535.08218583949	923.400024414063
1535.71008888643	926.200012207031
1536.33791013134	923
1536.96564958169	926.599975585938
1537.59330724498	923.799987792969
1538.22088312871	922.200012207031
1538.84837724034	923.599975585938
1539.47578958739	928.799987792969
1540.10312017733	926.599975585938
1540.73036901765	917.200012207031
1541.35753611584	920.400024414063
1541.98462147939	923.200012207031
1542.61162511578	922.799987792969
1543.2385470325	922.400024414063
1543.86538723704	921.200012207031
1544.49214573688	922
1545.11882253951	924.200012207031
1545.74541765241	922
1546.37193108306	921.799987792969
1546.99836283896	923.799987792969
1547.62471292758	920.799987792969
1548.25098135641	922
1548.87716813294	920.200012207031
1549.50327326464	919
1550.12929675899	918
1550.75523862349	914.400024414063
1551.38109886561	920.799987792969
1552.00687749284	922
1552.63257451264	919.200012207031
1553.25818993252	920
1553.88372375994	921
1554.50917600239	917.400024414063
1555.13454666734	918
1555.75983576228	921
1556.38504329469	923.200012207031
1557.01016927204	915.799987792969
1557.63521370181	916.799987792969
1558.26017659149	920
1558.88505794854	916.799987792969
1559.50985778045	915.200012207031
1560.13457609469	917.799987792969
1560.75921289874	918.799987792969
1561.38376820008	920.200012207031
1562.00824200618	919.200012207031
1562.63263432452	916.200012207031
1563.25694516257	916.599975585938
1563.88117452781	917.200012207031
1564.50532242772	916.400024414063
1565.12938886976	917.200012207031
1565.75337386141	914.799987792969
1566.37727741015	914.200012207031
1567.00109952345	917.400024414063
1567.62484020878	924.599975585938
1568.24849947361	919.799987792969
1568.87207732542	919.200012207031
1569.49557377168	916.400024414063
1570.11898881986	920
1570.74232247743	922.200012207031
1571.36557475186	919.200012207031
1571.98874565062	921.599975585938
1572.61183518119	923
1573.23484335103	920.200012207031
1573.85777016761	922.799987792969
1574.4806156384	919.400024414063
1575.10337977088	919.599975585938
1575.7260625725	918
1576.34866405074	918.200012207031
1576.97118421306	920.799987792969
1577.59362306694	920
1578.21598061984	923.799987792969
1578.83825687922	923.599975585938
1579.46045185255	924
1580.08256554731	921.599975585938
1580.70459797094	922.200012207031
1581.32654913093	921.599975585938
1581.94841903473	925.400024414063
1582.57020768981	920.599975585938
1583.19191510364	925.200012207031
1583.81354128367	923.200012207031
1584.43508623737	924.400024414063
1585.05654997221	923
1585.67793249564	925
1586.29923381514	919.200012207031
1586.92045393815	927.200012207031
1587.54159287216	927.799987792969
1588.1626506246	926.400024414063
1588.78362720296	928.200012207031
1589.40452261468	927.400024414063
1590.02533686724	927
1590.64606996808	927.400024414063
1591.26672192467	924.799987792969
1591.88729274447	927
1592.50778243493	927.799987792969
1593.12819100352	930.200012207031
1593.7485184577	930.799987792969
1594.36876480492	928.400024414063
1594.98893005264	927.599975585938
1595.60901420832	927.799987792969
1596.22901727941	928.400024414063
1596.84893927338	930
1597.46878019767	929
1598.08854005975	931.200012207031
1598.70821886707	933
1599.32781662708	932.400024414063
1599.94733334725	933.799987792969
1600.56676903502	931.200012207031
1601.18612369785	930.200012207031
1601.8053973432	927.599975585938
1602.42458997851	927.599975585938
1603.04370161124	933.400024414063
1603.66273224884	931.400024414063
1604.28168189878	931.200012207031
1604.90055056849	931
1605.51933826543	936
1606.13804499705	936
1606.75667077081	935.799987792969
1607.37521559415	936.200012207031
1607.99367947452	939.799987792969
1608.61206241938	940
1609.23036443618	949.599975585938
1609.84858553236	946.200012207031
1610.46672571537	946.400024414063
1611.08478499267	952.799987792969
1611.7027633717	954.400024414063
1612.3206608599	956.400024414063
1612.93847746473	956.200012207031
1613.55621319364	962.599975585938
1614.17386805407	964.799987792969
1614.79144205347	973.599975585938
1615.40893519928	973
1616.02634749895	975.799987792969
1616.64367895993	981
1617.26092958966	986.200012207031
1617.87809939559	990.200012207031
1618.49518838516	999.400024414063
1619.11219656582	1004
1619.729123945	1006.20001220703
1620.34597053016	1019.20001220703
1620.96273632874	1019.20001220703
1621.57942134818	1027
1622.19602559592	1029
1622.8125490794	1028.19995117188
1623.42899180607	1032.40002441406
1624.04535378337	1032.40002441406
1624.66163501874	1037.59997558594
1625.27783551963	1029.40002441406
1625.89395529346	1027
1626.50999434768	1029.59997558594
1627.12595268974	1025
1627.74183032707	1024.59997558594
1628.3576272671	1010.79998779297
1628.97334351729	1003.40002441406
1629.58897908506	998
1630.20453397786	991.200012207031
1630.82000820313	988.799987792969
1631.43540176829	978.200012207031
1632.05071468079	973.400024414063
1632.66594694807	967.200012207031
1633.28109857756	958.599975585938
1633.8961695767	950.799987792969
1634.51115995292	949.799987792969
1635.12606971366	942.599975585938
1635.74089886636	939
1636.35564741844	938.400024414063
1636.97031537734	936.400024414063
1637.58490275051	931.400024414063
1638.19940954536	926.799987792969
1638.81383576934	924.200012207031
1639.42818142987	922.799987792969
1640.0424465344	921
1640.65663109034	919
1641.27073510515	918.200012207031
1641.88475858623	916
1642.49870154104	918
1643.11256397699	910.799987792969
1643.72634590152	914
1644.34004732206	908.200012207031
1644.95366824604	911
1645.56720868089	907
1646.18066863404	905.200012207031
1646.79404811291	904.200012207031
1647.40734712494	902.200012207031
1648.02056567755	902.400024414063
1648.63370377817	904.599975585938
1649.24676143423	903
1649.85973865316	901.400024414063
1650.47263544238	900.400024414063
1651.08545180932	905
1651.6981877614	900.599975585938
1652.31084330606	903
1652.92341845071	902.599975585938
1653.53591320278	900.200012207031
1654.1483275697	901.200012207031
1654.7606615589	902.200012207031
1655.37291517778	902
1655.98508843379	898.799987792969
1656.59718133434	902.400024414063
1657.20919388685	904
1657.82112609875	905.799987792969
1658.43297797747	900.799987792969
1659.04474953041	902.400024414063
1659.65644076501	902.599975585938
1660.26805168869	900.400024414063
1660.87958230886	899.799987792969
1661.49103263294	899.599975585938
1662.10240266837	898.200012207031
1662.71369242255	898.799987792969
1663.32490190291	897.799987792969
1663.93603111687	896.200012207031
1664.54708007184	896.599975585938
1665.15804877524	896.599975585938
1665.7689372345	897.799987792969
1666.37974545703	896.400024414063
1666.99047345024	896.599975585938
1667.60112122156	895.799987792969
1668.2116887784	896
1668.82217612818	891.200012207031
1669.43258327831	893
1670.04291023622	894.599975585938
1670.65315700931	893.599975585938
1671.263323605	895.200012207031
1671.8734100307	896.400024414063
1672.48341629384	899.400024414063
1673.09334240182	891.400024414063
1673.70318836206	893.799987792969
1674.31295418197	894.400024414063
1674.92263986896	895.400024414063
1675.53224543046	893.400024414063
1676.14177087386	893
1676.75121620658	894
1677.36058143604	891.200012207031
1677.96986656964	894.599975585938
1678.5790716148	893.799987792969
1679.18819657892	892
1679.79724146943	893.799987792969
1680.40620629372	889.799987792969
1681.0150910592	892.599975585938
1681.6238957733	892.799987792969
1682.23262044341	890.599975585938
1682.84126507694	892.799987792969
1683.4498296813	890.200012207031
1684.0583142639	890.200012207031
1684.66671883216	891.200012207031
1685.27504339346	890.599975585938
1685.88328795523	892.599975585938
1686.49145252487	888.400024414063
1687.09953710978	888.799987792969
1687.70754171737	890.599975585938
1688.31546635505	891.599975585938
1688.92331103021	892
1689.53107575028	889.599975585938
1690.13876052265	890
1690.74636535472	890.799987792969
1691.3538902539	891.599975585938
1691.96133522759	891.799987792969
1692.5687002832	888.599975585938
1693.17598542812	889.200012207031
1693.78319066977	891
1694.39031601554	893
1694.99736147283	892
1695.60432704905	891
1696.2112127516	894
1696.81801858788	893.400024414063
1697.42474456528	892
1698.03139069121	891.400024414063
1698.63795697307	892
1699.24444341826	890.400024414063
1699.85085003417	891.200012207031
1700.45717682821	888.400024414063
1701.06342380778	890
1701.66959098026	888.599975585938
1702.27567835307	887.400024414063
1702.88168593359	887.799987792969
1703.48761372922	885.599975585938
1704.09346174737	886.400024414063
1704.69922999542	887.400024414063
1705.30491848077	887.400024414063
1705.91052721083	886.799987792969
1706.51605619297	887
1707.12150543461	889
1707.72687494312	888.599975585938
1708.33216472592	885.799987792969
1708.93737479039	888.200012207031
1709.54250514392	885.799987792969
