634.977642221345	892.200012207031
635.719821695905	890.400024414063
636.461909203392	893
637.203904751776	892.200012207031
637.945808349023	895.200012207031
638.687620003102	891.599975585938
639.42933972198	894.400024414063
640.170967513616	893.400024414063
640.912503385981	891.200012207031
641.653947347041	891.400024414063
642.395299404758	888.200012207031
643.13655956709	887.799987792969
643.877727842014	888.799987792969
644.61880423748	888.799987792969
645.359788761455	890.400024414063
646.100681421905	889.200012207031
646.841482226789	891.400024414063
647.582191184074	892
648.322808301711	889.599975585938
649.06333358767	890.400024414063
649.803767049909	892.200012207031
650.544108696385	890.799987792969
651.28435853506	889.599975585938
652.024516573894	890.799987792969
652.764582820849	893.599975585938
653.504557283875	893.200012207031
654.244439970937	890.599975585938
654.984230889991	894.400024414063
655.723930048995	892.200012207031
656.463537455909	892.799987792969
657.203053118683	891.599975585938
657.942477045275	889.400024414063
658.681809243647	891
659.421049721747	891.599975585938
660.160198487535	892.799987792969
660.899255548962	893
661.638220913985	894.200012207031
662.377094590559	891.799987792969
663.115876586631	889
663.854566910165	893
664.593165569107	892
665.331672571406	894
666.07008792502	893.599975585938
666.808411637902	894.400024414063
667.546643717996	891.799987792969
668.284784173258	893
669.022833011641	892.200012207031
669.760790241089	893.599975585938
670.498655869554	893.400024414063
671.236429904987	894.799987792969
671.97411235534	890.599975585938
672.711703228551	894.599975585938
673.449202532577	894.799987792969
674.186610275364	896.400024414063
674.923926464857	897.400024414063
675.661151109008	896.200012207031
676.398284215759	894.799987792969
677.135325793058	891.599975585938
677.87227584885	890.599975585938
678.609134391082	896.200012207031
679.345901427696	895.400024414063
680.082576966644	894
680.819161015861	895.200012207031
681.555653583298	894
682.292054676895	893.599975585938
683.028364304594	891.200012207031
683.764582474344	889.599975585938
684.500709194083	889.799987792969
685.236744471752	892.599975585938
685.972688315294	892.200012207031
686.708540732652	892.799987792969
687.444301731762	894
688.179971320572	892.400024414063
688.915549507013	892.400024414063
689.651036299034	891
690.386431704569	887.799987792969
691.121735731559	889
691.85694838794	887.799987792969
692.592069681652	889
693.327099620632	889.599975585938
694.062038212821	893
694.796885466149	888.200012207031
695.531641388561	886
696.266305987987	892.599975585938
697.000879272367	889.400024414063
697.735361249632	890.200012207031
698.469751927722	890.599975585938
699.204051314568	889.599975585938
699.938259418107	890.400024414063
700.672376246272	887
701.406401806997	886.400024414063
702.140336108212	889.200012207031
702.874179157855	887.200012207031
703.607930963856	888.200012207031
704.341591534147	889.200012207031
705.07516087666	887.599975585938
705.808638999324	889.200012207031
706.542025910073	886
707.275321616841	888
708.008526127549	888.400024414063
708.741639450132	886
709.474661592521	888
710.207592562641	886
710.940432368424	888.200012207031
711.673181017796	887.400024414063
712.405838518687	888.200012207031
713.138404879025	888
713.870880106731	889.400024414063
714.603264209738	889.200012207031
715.335557195971	889.200012207031
716.067759073357	887.400024414063
716.799869849816	888.400024414063
717.531889533281	887
718.263818131673	884.599975585938
718.995655652917	886.599975585938
719.727402104934	885
720.45905749565	886.200012207031
721.19062183299	887
721.922095124877	889
722.653477379231	885.400024414063
723.384768603973	885
724.11596880703	888.599975585938
724.847077996319	887.200012207031
725.578096179762	888.599975585938
726.309023365281	884.799987792969
727.039859560792	885.400024414063
727.770604774222	887.799987792969
728.501259013484	887
729.231822286501	887.400024414063
729.962294601191	886.799987792969
730.692675965469	885.799987792969
731.42296638726	888.400024414063
732.153165874472	885
732.883274435032	888.599975585938
733.613292076851	886.799987792969
734.343218807843	887.400024414063
735.07305463593	889.200012207031
735.802799569028	887.599975585938
736.532453615048	884.599975585938
737.262016781904	886.799987792969
737.991489077517	885.599975585938
738.720870509794	887
739.450161086654	890.400024414063
740.179360816009	888.200012207031
740.908469705772	887
741.637487763854	888.799987792969
742.366414998168	888.200012207031
743.095251416623	885.799987792969
743.823997027137	887.400024414063
744.552651837618	886.400024414063
745.281215855978	884
746.009689090124	887
746.738071547964	888.799987792969
747.466363237419	886.799987792969
748.194564166384	886.799987792969
748.92267434278	891
749.650693774504	887.400024414063
750.378622469476	885.400024414063
751.106460435596	887.599975585938
751.834207680771	886.799987792969
752.561864212909	888.799987792969
753.289430039919	886.799987792969
754.016905169707	886.599975585938
754.744289610175	887.200012207031
755.471583369231	886.200012207031
756.198786454782	884.200012207031
756.925898874728	885.799987792969
757.652920636979	886
758.379851749433	886.400024414063
759.106692219996	887.799987792969
759.833442056572	884.400024414063
760.560101267063	888
761.28666985937	888.799987792969
762.0131478414	888.200012207031
762.739535221046	889.200012207031
763.465832006219	886.799987792969
764.192038204812	887.799987792969
764.918153824731	886.400024414063
765.644178873872	886.599975585938
766.370113360138	891.799987792969
767.095957291425	885.799987792969
767.821710675635	889
768.547373520665	889
769.272945834415	889.400024414063
769.998427624781	891
770.723818899658	888.200012207031
771.449119666949	887.799987792969
772.174329934546	887.799987792969
772.899449710347	891
773.624479002248	892.200012207031
774.349417818145	887.799987792969
775.074266165934	889.599975585938
775.799024053505	890.400024414063
776.523691488757	888
777.248268479582	887.599975585938
777.972755033877	888.799987792969
778.69715115953	891.400024414063
779.421456864441	888.599975585938
780.145672156493	890.200012207031
780.869797043587	886.599975585938
781.593831533611	887.200012207031
782.317775634457	888.400024414063
783.041629354012	892.400024414063
783.765392700174	890.400024414063
784.489065680828	888.400024414063
785.212648303866	889
785.936140577177	887.599975585938
786.659542508652	885.599975585938
787.382854106174	889.400024414063
788.106075377639	887.599975585938
788.829206330928	888
789.552246973933	890.400024414063
790.275197314542	890
790.998057360638	889.400024414063
791.720827120108	885.799987792969
792.443506600841	885.400024414063
793.166095810722	887.799987792969
793.888594757635	887.400024414063
794.611003449465	890.799987792969
795.333321894098	891.799987792969
796.055550099417	889.599975585938
796.777688073308	890.599975585938
797.499735823654	886.799987792969
798.221693358334	888.599975585938
798.943560685235	892.200012207031
799.665337812239	889
800.387024747226	890.599975585938
801.108621498075	888.599975585938
801.830128072674	890.200012207031
802.551544478902	888.400024414063
803.272870724636	888
803.994106817761	888.400024414063
804.715252766148	887.599975585938
805.436308577687	889
806.157274260251	890.599975585938
806.878149821721	890.799987792969
807.598935269973	888
808.319630612886	892.200012207031
809.040235858336	890.400024414063
809.760751014202	891
810.481176088361	886.599975585938
811.201511088685	892.200012207031
811.921756023059	890.400024414063
812.641910899347	886.799987792969
813.361975725432	890
814.081950509188	891.799987792969
814.801835258489	895.200012207031
815.521629981206	888.599975585938
816.241334685218	886.400024414063
816.960949378392	886
817.680474068606	887.799987792969
818.399908763731	888.799987792969
819.11925347164	888.400024414063
819.838508200202	888.799987792969
820.55767295729	886.400024414063
821.276747750778	888.400024414063
821.995732588531	887.599975585938
822.714627478425	888.799987792969
823.433432428327	887.200012207031
824.152147446105	890.200012207031
824.870772539632	889
825.589307716775	889.400024414063
826.307752985404	888.799987792969
827.026108353378	889.200012207031
827.744373828579	889.400024414063
828.462549418867	889.799987792969
829.180635132107	892.200012207031
829.898630976168	890.200012207031
830.616536958915	890.400024414063
831.334353088218	889
832.052079371938	889.400024414063
832.769715817942	889.599975585938
833.487262434092	891
834.204719228255	891
834.922086208293	887.400024414063
835.639363382073	889
836.356550757456	891.799987792969
837.073648342304	889.400024414063
837.790656144484	889.599975585938
838.507574171847	886.400024414063
839.22440243227	887.599975585938
839.941140933601	888.400024414063
840.657789683706	883
841.374348690448	889.599975585938
842.090817961686	890.200012207031
842.807197505276	890.200012207031
843.523487329083	888.200012207031
844.23968744096	888
844.955797848771	889.799987792969
845.671818560374	891.200012207031
846.387749583622	891.599975585938
847.103590926378	887.200012207031
847.819342596497	885.799987792969
848.535004601833	889
849.25057695025	889.200012207031
849.966059649598	887.799987792969
850.681452707735	887.799987792969
851.396756132513	887.799987792969
852.111969931789	891.400024414063
852.827094113419	892.200012207031
853.542128685257	888.200012207031
854.257073655158	890.200012207031
854.971929030969	889.599975585938
855.686694820551	889.599975585938
856.40137103175	890
857.115957672423	891.200012207031
857.830454750423	890.200012207031
858.544862273597	891
859.259180249797	892.200012207031
859.97340868688	891
860.687547592688	892.200012207031
861.401596975075	891.799987792969
862.115556841891	891.400024414063
862.829427200985	890
863.543208060205	891.200012207031
864.256899427402	891.799987792969
864.970501310423	890.200012207031
865.684013717114	892.799987792969
866.397436655325	888.400024414063
867.110770132901	888.200012207031
867.824014157691	890.200012207031
868.537168737542	889.200012207031
869.250233880299	890.400024414063
869.963209593803	892.200012207031
870.676095885902	890.599975585938
871.388892764445	889.200012207031
872.101600237276	892.799987792969
872.814218312233	891.599975585938
873.526746997165	890.799987792969
874.239186299914	894
874.951536228323	891.200012207031
875.663796790231	891.799987792969
876.375967993487	890.799987792969
877.088049845928	893.799987792969
877.8000423554	890.200012207031
878.511945529739	891.200012207031
879.22375937679	887.799987792969
879.935483904388	889.599975585938
880.64711912038	890.799987792969
881.358665032604	893
882.070121648892	891.799987792969
882.78148897709	892.599975585938
883.492767025039	897
884.203955800571	890
884.915055311525	894.400024414063
885.626065565741	892
886.336986571053	889.400024414063
887.047818335298	893.799987792969
887.758560866315	895
888.469214171937	895.599975585938
889.179778260005	895.599975585938
889.890253138347	898.200012207031
890.600638814803	892.799987792969
891.310935297204	895.599975585938
892.021142593385	895.599975585938
892.731260711183	895
893.441289658429	890.599975585938
894.15122944295	896
894.861080072591	895
895.570841555173	893.799987792969
896.280513898534	894.599975585938
896.990097110503	893
897.699591198913	897
898.408996171595	896.799987792969
899.118312036375	895.400024414063
899.827538801089	895.799987792969
900.536676473561	896.599975585938
901.245725061628	895.200012207031
901.954684573109	891.599975585938
902.663555015838	895
903.372336397644	893.799987792969
904.081028726351	891.799987792969
904.789632009793	895
905.49814625579	894.799987792969
906.20657147217	895.400024414063
906.914907666765	890.799987792969
907.623154847391	895.799987792969
908.331313021885	897.200012207031
909.039382198064	893.799987792969
909.747362383754	894.799987792969
910.455253586782	894.400024414063
911.163055814972	893.599975585938
911.870769076143	898
912.578393378126	896.599975585938
913.285928728738	897
913.993375135802	896.599975585938
914.700732607145	892.400024414063
915.408001150579	895
916.115180773937	895
916.822271485037	896.200012207031
917.529273291693	893.799987792969
918.236186201733	893.200012207031
918.943010222971	893.200012207031
919.649745363234	893.400024414063
920.356391630333	891.799987792969
921.062949032096	892
921.769417576333	889
922.475797270864	891.799987792969
923.182088123512	889.200012207031
923.888290142089	890.599975585938
924.594403334414	891
925.300427708304	893.599975585938
926.006363271572	892.799987792969
926.712210032039	891.599975585938
927.417967997522	890.799987792969
928.123637175827	891.799987792969
928.829217574776	887.400024414063
929.534709202184	888
930.240112065859	889.400024414063
930.945426173621	890.200012207031
931.650651533283	891.599975585938
932.355788152653	890.599975585938
933.060836039547	890.799987792969
933.765795201776	888.200012207031
934.470665647153	891.400024414063
935.175447383492	890
935.880140418599	892.799987792969
936.584744760286	892.599975585938
937.289260416366	891
937.993687394647	890.799987792969
938.698025702939	893
939.402275349051	889
940.106436340793	891.799987792969
940.810508685976	888.799987792969
941.5144923924	891.200012207031
942.21838746788	888.200012207031
942.922193920223	893
943.625911757231	893.200012207031
944.329540986716	889
945.033081616484	892.599975585938
945.736533654334	891.400024414063
946.439897108083	893.200012207031
947.143171985529	889.400024414063
947.846358294477	890.400024414063
948.549456042732	889.599975585938
949.2524652381	891.799987792969
949.955385888382	890.799987792969
950.658218001384	892
951.360961584907	892.400024414063
952.063616646755	891
952.766183194733	888
953.468661236636	891.200012207031
954.171050780271	889.599975585938
954.873351833437	890.200012207031
955.575564403935	889.200012207031
956.277688499565	891.200012207031
956.97972412813	891
957.681671297424	888.599975585938
958.383530015255	888.799987792969
959.085300289414	890.200012207031
959.786982127703	890.799987792969
960.488575537918	889.400024414063
961.190080527859	890.400024414063
961.891497105327	891
962.592825278111	891.400024414063
963.294065054012	892.400024414063
963.995216440829	891.400024414063
964.696279446353	889.599975585938
965.397254078383	894.400024414063
966.098140344714	892
966.798938253139	891.599975585938
967.499647811456	893
968.200269027458	888.799987792969
968.900801908937	889.599975585938
969.601246463685	890.599975585938
970.3016026995	892.599975585938
971.001870624169	890.200012207031
971.702050245491	889
972.402141571249	889.799987792969
973.102144609245	890.599975585938
973.802059367267	888
974.501885853103	890.200012207031
975.201624074541	890
975.901274039379	891
976.600835755399	894.400024414063
977.3003092304	890.799987792969
977.999694472158	891.400024414063
978.698991488473	889.799987792969
979.39820028713	891
980.097320875915	891
980.796353262618	888.599975585938
981.495297455024	888.799987792969
982.194153460919	888.599975585938
982.892921288093	893.599975585938
983.591600944331	892.400024414063
984.290192437419	892.400024414063
984.98869577514	889
985.687110965282	892.200012207031
986.385438015629	890.799987792969
987.083676933961	890
987.781827728069	890.400024414063
988.479890405732	889.200012207031
989.177864974732	889.200012207031
989.875751442857	891.400024414063
990.573549817888	889
991.271260107602	892.200012207031
991.968882319786	894.200012207031
992.666416462217	889.799987792969
993.363862542681	892.200012207031
994.061220568959	892.799987792969
994.758490548823	889.200012207031
995.455672490061	889.799987792969
996.152766400451	890.200012207031
996.849772287773	892.799987792969
997.5466901598	891
998.243520024317	889.599975585938
998.940261889097	889.400024414063
999.636915761923	893
1000.33348165057	889
1001.02995956281	886.599975585938
1001.72634950643	888.599975585938
1002.42265148919	891.799987792969
1003.11886551889	889.200012207031
1003.81499160328	888.799987792969
1004.51102975015	891.799987792969
1005.20697996727	892.799987792969
1005.90284226242	890.599975585938
1006.59861664337	892.200012207031
1007.2943031179	889.599975585938
1007.98990169377	892.400024414063
1008.68541237876	891.599975585938
1009.38083518064	893.599975585938
1010.07617010719	890.799987792969
1010.77141716617	894.200012207031
1011.46657636536	891.200012207031
1012.16164771253	889.400024414063
1012.85663121546	890.799987792969
1013.5515268819	888.799987792969
1014.24633471963	891.200012207031
1014.94105473642	890
1015.63568694004	890.599975585938
1016.33023133826	892.799987792969
1017.02468793885	891
1017.71905674957	894.799987792969
1018.41333777819	892.599975585938
1019.10753103249	894.400024414063
1019.80163652022	892
1020.49565424916	893
1021.18958422707	893.799987792969
1021.88342646171	896.599975585938
1022.57718096085	899
1023.27084773227	895.799987792969
1023.96442678371	896.599975585938
1024.65791812296	900.799987792969
1025.35132175776	900.400024414063
1026.04463769589	895.599975585938
1026.73786594511	901.400024414063
1027.43100651318	901.599975585938
1028.12405940786	901
1028.81702463692	901.200012207031
1029.50990220812	904.400024414063
1030.20269212921	903.799987792969
1030.89539440798	902.200012207031
1031.58800905216	903
1032.28053606952	901
1032.97297546784	904.200012207031
1033.66532725485	898
1034.35759143832	904
1035.04976802602	905.599975585938
1035.7418570257	903.799987792969
1036.43385844511	898.200012207031
1037.12577229202	900.799987792969
1037.81759857419	898.799987792969
1038.50933729937	899.200012207031
1039.20098847531	896.599975585938
1039.89255210978	900.200012207031
1040.58402821053	897.799987792969
1041.27541678532	897.200012207031
1041.96671784191	896.400024414063
1042.65793138804	894.400024414063
1043.34905743147	895.400024414063
1044.04009597996	893.200012207031
1044.73104704125	897.799987792969
1045.42191062312	892.400024414063
1046.1126867333	896.400024414063
1046.80337537955	895.400024414063
1047.49397656962	896.599975585938
1048.18449031127	891.799987792969
1048.87491661225	892.400024414063
1049.5652554803	893.799987792969
1050.25550692319	894.599975585938
1050.94567094865	892.599975585938
1051.63574756444	893.200012207031
1052.32573677832	890.400024414063
1053.01563859803	891.200012207031
1053.70545303131	895.400024414063
1054.39518008592	894.200012207031
1055.08481976961	894.799987792969
1055.77437209013	892.599975585938
1056.46383705522	895.400024414063
1057.15321467262	894.599975585938
1057.8425049501	894
1058.53170789539	893.799987792969
1059.22082351624	895.200012207031
1059.9098518204	892.799987792969
1060.59879281561	894.799987792969
1061.28764650962	892
1061.97641291016	896.799987792969
1062.665092025	894.200012207031
1063.35368386187	893.400024414063
1064.04218842851	895
1064.73060573268	896.400024414063
1065.4189357821	895
1066.10717858452	894.200012207031
1066.7953341477	896.400024414063
1067.48340247936	892.599975585938
1068.17138358725	896
1068.85927747912	896.799987792969
1069.5470841627	895.400024414063
1070.23480364573	897.400024414063
1070.92243593595	894.200012207031
1071.60998104111	897.799987792969
1072.29743896894	893.200012207031
1072.98480972718	895.799987792969
1073.67209332357	896.200012207031
1074.35928976585	894
1075.04639906176	896.200012207031
1075.73342121903	897.400024414063
1076.42035624541	895.400024414063
1077.10720414862	898.200012207031
1077.79396493641	898.400024414063
1078.48063861651	897
1079.16722519666	896.799987792969
1079.85372468459	894.799987792969
1080.54013708804	894
1081.22646241474	895
1081.91270067243	891.599975585938
1082.59885186884	894.799987792969
1083.28491601171	893.400024414063
1083.97089310877	894
1084.65678316774	893
1085.34258619637	892
1086.02830220239	894.400024414063
1086.71393119352	897.200012207031
1087.39947317751	893.200012207031
1088.08492816207	893.599975585938
1088.77029615495	894.599975585938
1089.45557716387	894
1090.14077119656	893.400024414063
1090.82587826075	896.599975585938
1091.51089836417	894.200012207031
1092.19583151456	896.200012207031
1092.88067771963	892.799987792969
1093.56543698712	894.400024414063
1094.25010932475	891
1094.93469474026	888.799987792969
1095.61919324137	892
1096.3036048358	894.200012207031
1096.98792953129	892.400024414063
1097.67216733555	891.200012207031
1098.35631825632	890.799987792969
1099.04038230132	896.400024414063
1099.72435947828	893
1100.40824979492	890.599975585938
1101.09205325895	892.400024414063
1101.77576987812	892.400024414063
1102.45939966014	891.599975585938
1103.14294261273	893.400024414063
1103.82639874362	889.799987792969
1104.50976806054	896
1105.19305057119	898.200012207031
1105.87624628331	895.599975585938
1106.55935520461	900.599975585938
1107.24237734283	898
1107.92531270566	897.400024414063
1108.60816130085	898.200012207031
1109.2909231361	899.200012207031
1109.97359821914	895.599975585938
1110.65618655768	897.599975585938
1111.33868815946	899.200012207031
1112.02110303217	901.200012207031
1112.70343118355	897.599975585938
1113.3856726213	899.200012207031
1114.06782735316	900.799987792969
1114.74989538683	898.200012207031
1115.43187673002	900.799987792969
1116.11377139047	901.599975585938
1116.79557937588	899.200012207031
1117.47730069397	903.799987792969
1118.15893535245	903.200012207031
1118.84048335904	902.799987792969
1119.52194472146	904.400024414063
1120.20331944741	903.599975585938
1120.88460754462	903.200012207031
1121.56580902079	905.599975585938
1122.24692388364	905.200012207031
1122.92795214088	903.400024414063
1123.60889380022	906.799987792969
1124.28974886938	907.599975585938
1124.97051735606	904.599975585938
1125.65119926799	903.799987792969
1126.33179461286	907.200012207031
1127.0123033984	908.400024414063
1127.6927256323	901.799987792969
1128.37306132229	903.200012207031
1129.05331047606	904.599975585938
1129.73347310134	903.599975585938
1130.41354920582	901.599975585938
1131.09353879722	901.400024414063
1131.77344188324	898.400024414063
1132.45325847159	898.799987792969
1133.13298856999	898.599975585938
1133.81263218612	901.400024414063
1134.49218932772	905
1135.17166000247	901.799987792969
1135.85104421809	897
1136.53034198227	903
1137.20955330274	904.200012207031
1137.88867818718	898.799987792969
1138.56771664331	903.400024414063
1139.24666867883	900.400024414063
1139.92553430144	900.200012207031
1140.60431351885	900
1141.28300633876	897.599975585938
1141.96161276887	900.200012207031
1142.64013281689	900.400024414063
1143.31856649051	897.599975585938
1143.99691379744	902
1144.67517474538	899.200012207031
1145.35334934203	899
1146.03143759509	900.400024414063
1146.70943951226	897.599975585938
1147.38735510125	894.799987792969
1148.06518436974	896.400024414063
1148.74292732545	898.799987792969
1149.42058397606	897.400024414063
1150.09815432928	899.599975585938
1150.7756383928	899.799987792969
1151.45303617432	898.400024414063
1152.13034768155	900.400024414063
1152.80757292217	901
1153.48471190389	899
1154.16176463439	896.599975585938
1154.83873112138	897.799987792969
1155.51561137255	899.400024414063
1156.1924053956	899.799987792969
1156.86911319822	896.599975585938
1157.5457347881	898.799987792969
1158.22227017294	896.400024414063
1158.89871936044	901
1159.57508235828	898.400024414063
1160.25135917416	898.200012207031
1160.92754981578	896.599975585938
1161.60365429081	896.599975585938
1162.27967260697	897.200012207031
1162.95560477193	899.799987792969
1163.63145079339	899
1164.30721067904	897
1164.98288443657	896.200012207031
1165.65847207367	900
1166.33397359803	896
1167.00938901735	898.400024414063
1167.6847183393	896.799987792969
1168.35996157157	897.400024414063
1169.03511872187	898
1169.71018979787	898.200012207031
1170.38517480726	897.799987792969
1171.06007375773	894.799987792969
1171.73488665696	897.599975585938
1172.40961351265	897.200012207031
1173.08425433247	896.400024414063
1173.75880912412	896.400024414063
1174.43327789528	897.799987792969
1175.10766065364	901.799987792969
1175.78195740687	899.400024414063
1176.45616816267	899.799987792969
1177.13029292871	898.799987792969
1177.80433171269	899
1178.47828452229	899.599975585938
1179.15215136518	898.400024414063
1179.82593224905	897.799987792969
1180.49962718159	896
1181.17323617047	896.599975585938
1181.84675922337	897.400024414063
1182.52019634799	900.400024414063
1183.193547552	895.200012207031
1183.86681284307	895
1184.53999222889	894.799987792969
1185.21308571714	898.200012207031
1185.8860933155	896.200012207031
1186.55901503165	895.799987792969
1187.23185087326	896.200012207031
1187.90460084802	895.799987792969
1188.5772649636	896
1189.24984322768	899.799987792969
1189.92233564794	896.200012207031
1190.59474223206	898.400024414063
1191.2670629877	903.400024414063
1191.93929792255	898.200012207031
1192.61144704428	899.799987792969
1193.28351036058	895
1193.9554878791	896.799987792969
1194.62737960754	900.599975585938
1195.29918555356	902
1195.97090572483	898.599975585938
1196.64254012903	900.400024414063
1197.31408877384	900.799987792969
1197.98555166693	899.599975585938
1198.65692881596	899.400024414063
1199.32822022862	901.200012207031
1199.99942591256	899.400024414063
1200.67054587548	900.599975585938
1201.34158012503	899.799987792969
1202.01252866889	898.400024414063
1202.68339151473	900.799987792969
1203.35416867021	899.599975585938
1204.02486014301	904.200012207031
1204.6954659408	902.799987792969
1205.36598607124	906
1206.03642054201	904.799987792969
1206.70676936078	903
1207.3770325352	901.400024414063
1208.04721007295	904
1208.7173019817	905
1209.38730826911	903
1210.05722894285	905.200012207031
1210.72706401059	903.599975585938
1211.39681347999	901.599975585938
1212.06647735872	902.799987792969
1212.73605565444	904
1213.40554837481	905.400024414063
1214.07495552751	902.400024414063
1214.74427712019	905.599975585938
1215.41351316052	905
1216.08266365617	904
1216.75172861479	905
1217.42070804405	905.200012207031
1218.0896019516	904.799987792969
1218.75841034513	906
1219.42713323227	911.599975585938
1220.0957706207	909
1220.76432251808	909.799987792969
1221.43278893207	907.400024414063
1222.10116987032	910.799987792969
1222.7694653405	906.799987792969
1223.43767535026	911.799987792969
1224.10579990727	906.400024414063
1224.77383901918	908.799987792969
1225.44179269366	909.799987792969
1226.10966093835	909
1226.77744376093	910.799987792969
1227.44514116904	906
1228.11275317034	909
1228.78027977249	908.400024414063
1229.44772098315	907.799987792969
1230.11507680996	905.200012207031
1230.7823472606	906
1231.44953234271	907
1232.11663206394	908
1232.78364643195	904.799987792969
1233.4505754544	908.400024414063
1234.11741913894	906.200012207031
1234.78417749322	906
1235.45085052489	909.599975585938
1236.11743824162	909
1236.78394065104	906.400024414063
1237.45035776082	908
1238.1166895786	910.799987792969
1238.78293611204	908.799987792969
1239.44909736878	909.200012207031
1240.11517335648	908.200012207031
1240.78116408279	911.200012207031
1241.44706955535	908.200012207031
1242.11288978182	911.799987792969
1242.77862476985	906.400024414063
1243.44427452708	912.599975585938
1244.10983906116	909.400024414063
1244.77531837974	910.599975585938
1245.44071249047	909.599975585938
1246.106021401	908.599975585938
1246.77124511898	909.400024414063
1247.43638365204	910.799987792969
1248.10143700783	909.400024414063
1248.76640519401	912
1249.43128821822	907.799987792969
1250.0960860881	912.599975585938
1250.76079881129	908.599975585938
1251.42542639545	908.599975585938
1252.08996884822	907
1252.75442617723	909.599975585938
1253.41879839014	908
1254.08308549458	905
1254.74728749821	909.599975585938
1255.41140440866	904.599975585938
1256.07543623357	906.799987792969
1256.73938298059	908.200012207031
1257.40324465735	905.200012207031
1258.0670212715	903.200012207031
1258.73071283068	906
1259.39431934253	905.400024414063
1260.05784081468	902.400024414063
1260.72127725479	903.599975585938
1261.38462867049	902.799987792969
1262.0478950694	904
1262.71107645919	901.400024414063
1263.37417284748	904.200012207031
1264.03718424191	901.400024414063
1264.70011065011	901.799987792969
1265.36295207974	904.400024414063
1266.02570853841	904.599975585938
1266.68838003378	901
1267.35096657346	902.400024414063
1268.01346816511	903.400024414063
1268.67588481636	904.200012207031
1269.33821653483	901.799987792969
1270.00046332817	905.799987792969
1270.66262520401	902
1271.32470216998	901.599975585938
1271.98669423372	901.599975585938
1272.64860140285	903.799987792969
1273.31042368503	904.400024414063
1273.97216108786	904.599975585938
1274.633813619	904.799987792969
1275.29538128606	905.799987792969
1275.95686409669	905.200012207031
1276.6182620585	905.599975585938
1277.27957517914	905.599975585938
1277.94080346624	902.799987792969
1278.60194692741	908.200012207031
1279.2630055703	907.599975585938
1279.92397940253	907.599975585938
1280.58486843173	903.799987792969
1281.24567266552	907.400024414063
1281.90639211155	902.799987792969
1282.56702677743	906.400024414063
1283.2275766708	906.200012207031
1283.88804179927	906.400024414063
1284.54842217049	899.799987792969
1285.20871779206	903.799987792969
1285.86892867163	904
1286.52905481681	907.599975585938
1287.18909623523	901.599975585938
1287.84905293452	906.200012207031
1288.5089249223	911.400024414063
1289.16871220619	905
1289.82841479383	908.200012207031
1290.48803269282	908.200012207031
1291.1475659108	906.200012207031
1291.80701445539	899
1292.46637833421	901.799987792969
1293.12565755489	902.599975585938
1293.78485212504	906.799987792969
1294.44396205229	906.799987792969
1295.10298734425	906.799987792969
1295.76192800856	904.400024414063
1296.42078405283	907.200012207031
1297.07955548467	905.799987792969
1297.73824231171	908.599975585938
1298.39684454158	906.599975585938
1299.05536218188	909.599975585938
1299.71379524023	908.599975585938
1300.37214372427	905.599975585938
1301.03040764159	908.200012207031
1301.68858699983	907.799987792969
1302.34668180659	905.400024414063
1303.0046920695	908.200012207031
1303.66261779617	906.799987792969
1304.32045899422	910
1304.97821567126	908.400024414063
1305.63588783492	908.200012207031
1306.29347549279	910.799987792969
1306.95097865251	910.400024414063
1307.60839732168	909.400024414063
1308.26573150791	913
1308.92298121883	909.599975585938
1309.58014646204	905.400024414063
1310.23722724517	908.400024414063
1310.89422357581	908.400024414063
1311.55113546158	914.799987792969
1312.2079629101	908.599975585938
1312.86470592898	913.599975585938
1313.52136452582	912
1314.17793870824	911.799987792969
1314.83442848386	911.200012207031
1315.49083386027	916.799987792969
1316.14715484509	911.200012207031
1316.80339144594	914.599975585938
1317.45954367041	916.599975585938
1318.11561152611	915.200012207031
1318.77159502067	910.599975585938
1319.42749416168	913.599975585938
1320.08330895674	914.200012207031
1320.73903941348	911
1321.3946855395	913.599975585938
1322.0502473424	911.400024414063
1322.70572482978	915.200012207031
1323.36111800926	912.400024414063
1324.01642688845	911.200012207031
1324.67165147494	911.400024414063
1325.32679177634	916.200012207031
1325.98184780025	915.799987792969
1326.63681955429	915.200012207031
1327.29170704605	918.400024414063
1327.94651028314	916
1328.60122927316	914.200012207031
1329.25586402371	913
1329.9104145424	916.799987792969
1330.56488083683	917.799987792969
1331.2192629146	913.400024414063
1331.87356078331	915.799987792969
1332.52777445056	915
1333.18190392395	914.799987792969
1333.83594921109	911
1334.48991031958	915
1335.143787257	911.599975585938
1335.79758003097	911.400024414063
1336.45128864908	912.799987792969
1337.10491311893	916.400024414063
1337.75845344813	912.200012207031
1338.41190964425	917.400024414063
1339.06528171491	917.400024414063
1339.71856966771	915.799987792969
1340.37177351023	915.200012207031
1341.02489325007	913.799987792969
1341.67792889484	912.599975585938
1342.33088045212	912.599975585938
1342.98374792952	914.799987792969
1343.63653133462	914.799987792969
1344.28923067503	914.400024414063
1344.94184595833	917.200012207031
1345.59437719212	914.599975585938
1346.246824384	916.599975585938
1346.89918754155	917
1347.55146667238	915.200012207031
1348.20366178407	911.799987792969
1348.85577288421	914.599975585938
1349.50779998041	915.400024414063
1350.15974308024	911.400024414063
1350.8116021913	918.599975585938
1351.46337732119	914.799987792969
1352.11506847748	915.799987792969
1352.76667566778	915.599975585938
1353.41819889967	919.799987792969
1354.06963818074	914.400024414063
1354.72099351858	912
1355.37226492079	910.400024414063
1356.02345239494	914.599975585938
1356.67455594862	917.200012207031
1357.32557558943	914.200012207031
1357.97651132496	915.799987792969
1358.62736316277	914.799987792969
1359.27813111048	913.400024414063
1359.92881517565	913.799987792969
1360.57941536589	912.400024414063
1361.22993168876	915
1361.88036415186	915.200012207031
1362.53071276278	913.400024414063
1363.1809775291	915.400024414063
1363.8311584584	912.400024414063
1364.48125555826	912.599975585938
1365.13126883627	910.799987792969
1365.78119830001	909.400024414063
1366.43104395707	910.599975585938
1367.08080581503	912.599975585938
1367.73048388147	913.599975585938
1368.38007816397	909.599975585938
1369.02958867011	911.799987792969
1369.67901540748	910.599975585938
1370.32835838365	911.799987792969
1370.9776176062	912.200012207031
1371.62679308273	914
1372.27588482079	914.200012207031
1372.92489282798	914.599975585938
1373.57381711188	911.599975585938
1374.22265768006	915.200012207031
1374.87141454009	917.599975585938
1375.52008769957	912.799987792969
1376.16867716606	916.799987792969
1376.81718294715	914.400024414063
1377.4656050504	917.200012207031
1378.1139434834	916
1378.76219825373	916.599975585938
1379.41036936895	917.200012207031
1380.05845683664	920.599975585938
1380.70646066439	920.200012207031
1381.35438085976	917.799987792969
1382.00221743032	918
1382.64997038366	915.599975585938
1383.29763972735	921
1383.94522546895	921.599975585938
1384.59272761605	920.400024414063
1385.24014617621	915
1385.88748115701	919.400024414063
1386.53473256602	919
1387.18190041081	922
1387.82898469895	916.799987792969
1388.47598543802	917.599975585938
1389.12290263558	918.400024414063
1389.7697362992	919.799987792969
1390.41648643646	921.400024414063
1391.06315305492	918.799987792969
1391.70973616215	916.400024414063
1392.35623576573	921.599975585938
1393.00265187321	921.599975585938
1393.64898449217	919.400024414063
1394.29523363018	922
1394.94139929481	924.799987792969
1395.58748149361	919.200012207031
1396.23348023415	916.200012207031
1396.87939552402	918.599975585938
1397.52522737076	916.799987792969
1398.17097578195	919.799987792969
1398.81664076514	916.400024414063
1399.46222232792	918.599975585938
1400.10772047783	920.599975585938
1400.75313522245	917.599975585938
1401.39846656934	922
1402.04371452605	922
1402.68887910016	922.400024414063
1403.33396029924	919.400024414063
1403.97895813083	922
1404.6238726025	922
1405.26870372182	919
1405.91345149634	918.799987792969
1406.55811593363	921
1407.20269704125	917.400024414063
1407.84719482676	920.799987792969
1408.49160929772	926.200012207031
1409.13594046168	920.599975585938
1409.78018832622	922.400024414063
1410.42435289887	924
1411.06843418722	925.400024414063
1411.7124321988	923.400024414063
1412.3563469412	927
1413.00017842194	927.799987792969
1413.64392664861	926.599975585938
1414.28759162875	926.400024414063
1414.93117336992	927.799987792969
1415.57467187967	929.599975585938
1416.21808716557	930.400024414063
1416.86141923516	932.799987792969
1417.50466809601	931
1418.14783375567	934.400024414063
1418.79091622169	935.599975585938
1419.43391550162	935.799987792969
1420.07683160303	933.599975585938
1420.71966453346	941
1421.36241430046	939.200012207031
1422.0050809116	940
1422.64766437442	937.200012207031
1423.29016469647	936.400024414063
1423.93258188531	944.200012207031
1424.57491594848	940.799987792969
1425.21716689354	943.599975585938
1425.85933472805	943.400024414063
1426.50141945954	939.799987792969
1427.14342109557	943
1427.78533964369	943.599975585938
1428.42717511144	944
1429.06892750639	948.200012207031
1429.71059683607	945.200012207031
1430.35218310803	946.200012207031
1430.99368632983	946.799987792969
1431.635106509	947.599975585938
1432.2764436531	944.400024414063
1432.91769776967	952.599975585938
1433.55886886627	951.200012207031
1434.19995695043	949.200012207031
1434.84096202969	953
1435.48188411162	952
1436.12272320375	951.400024414063
1436.76347931363	952.200012207031
1437.40415244879	952
1438.0447426168	955
1438.68524982518	953.200012207031
1439.32567408148	955
1439.96601539325	954.200012207031
1440.60627376803	952.799987792969
1441.24644921336	953.200012207031
1441.88654173678	954
1442.52655134583	954.799987792969
1443.16647804806	955.799987792969
1443.806321851	953.599975585938
1444.4460827622	952.200012207031
1445.0857607892	950.799987792969
1445.72535593953	945.200012207031
1446.36486822074	951.400024414063
1447.00429764037	949
1447.64364420595	948.799987792969
1448.28290792502	946.799987792969
1448.92208880512	948
1449.56118685379	946.200012207031
1450.20020207857	951.400024414063
1450.83913448699	947.400024414063
1451.47798408659	947.200012207031
1452.1167508849	946.799987792969
1452.75543488947	947.599975585938
1453.39403610782	944.200012207031
1454.0325545475	940
1454.67099021603	941.599975585938
1455.30934312097	940
1455.94761326982	939.200012207031
1456.58580067014	938.599975585938
1457.22390532945	937.599975585938
1457.86192725529	936.400024414063
1458.49986645519	931.400024414063
1459.13772293668	933.799987792969
1459.7754967073	933.599975585938
1460.41318777457	930.599975585938
1461.05079614604	934.200012207031
1461.68832182922	928.599975585938
1462.32576483166	926.599975585938
1462.96312516087	928.400024414063
1463.6004028244	925.599975585938
1464.23759782977	929
1464.8747101845	928
1465.51173989614	926.599975585938
1466.14868697221	926.799987792969
1466.78555142024	928.400024414063
1467.42233324774	925.799987792969
1468.05903246227	924.799987792969
1468.69564907133	921.599975585938
1469.33218308246	921.799987792969
1469.96863450317	924.400024414063
1470.60500334102	922.200012207031
1471.2412896035	924.599975585938
1471.87749329816	925.599975585938
1472.51361443251	925.400024414063
1473.14965301409	922.599975585938
1473.78560905041	920.799987792969
1474.421482549	923.400024414063
1475.05727351739	924.200012207031
1475.69298196309	919.799987792969
1476.32860789364	926.400024414063
1476.96415131654	920.400024414063
1477.59961223934	923.799987792969
1478.23499066954	926
1478.87028661467	919.599975585938
1479.50550008226	921.200012207031
1480.14063107981	921
1480.77567961486	924
1481.41064569492	920
1482.04552932752	922
1482.68033052017	916.400024414063
1483.31504928039	919
1483.9496856157	920.799987792969
1484.58423953363	921.200012207031
1485.21871104168	921.599975585938
1485.85310014738	923.200012207031
1486.48740685824	916.599975585938
1487.12163118178	921.799987792969
1487.75577312553	915.799987792969
1488.38983269698	921
1489.02380990367	921.599975585938
1489.65770475311	920.599975585938
1490.29151725281	920.799987792969
1490.92524741029	920.599975585938
1491.55889523306	916.799987792969
1492.19246072863	919
1492.82594390453	917.200012207031
1493.45934476826	922
1494.09266332734	920.200012207031
1494.72589958928	916.200012207031
1495.3590535616	916.400024414063
1495.99212525181	915.799987792969
1496.62511466741	916.400024414063
1497.25802181592	916
1497.89084670485	920.400024414063
1498.52358934172	916
1499.15624973403	917.400024414063
1499.7888278893	918.200012207031
1500.42132381503	919.799987792969
1501.05373751873	915.200012207031
1501.68606900792	915
1502.31831829009	916.799987792969
1502.95048537277	917.799987792969
1503.58257026346	918.400024414063
1504.21457296966	918.599975585938
1504.84649349889	915.599975585938
1505.47833185864	919.599975585938
1506.11008805644	917.599975585938
1506.74176209978	917.400024414063
1507.37335399617	916.400024414063
1508.00486375312	917.799987792969
1508.63629137813	916.400024414063
1509.2676368787	915.200012207031
1509.89890026235	919.599975585938
1510.53008153658	919
1511.16118070889	918.799987792969
1511.79219778677	922.200012207031
1512.42313277775	920.799987792969
1513.05398568932	917.400024414063
1513.68475652898	916.799987792969
1514.31544530424	919.200012207031
1514.9460520226	916.599975585938
1515.57657669155	916.400024414063
1516.20701931861	917
1516.83737991127	918.200012207031
1517.46765847702	917.799987792969
1518.09785502339	917.400024414063
1518.72796955785	917.200012207031
1519.35800208792	919
1519.98795262109	918
1520.61782116486	921.799987792969
1521.24760772673	918.799987792969
1521.87731231419	919
1522.50693493475	917
1523.1364755959	920.400024414063
1523.76593430514	914.400024414063
1524.39531106997	916.200012207031
1525.02460589788	915.599975585938
1525.65381879637	914.599975585938
1526.28294977293	915.200012207031
1526.91199883507	911.599975585938
1527.54096599027	915
1528.16985124603	911.799987792969
1528.79865460984	911.599975585938
1529.4273760892	910.400024414063
1530.05601569161	910.400024414063
1530.68457342455	912.599975585938
1531.31304929552	910.200012207031
1531.94144331201	909.200012207031
1532.56975548151	910
1533.19798581152	911.799987792969
1533.82613430953	909.200012207031
1534.45420098302	910.799987792969
1535.08218583949	912.200012207031
1535.71008888643	907.799987792969
1536.33791013134	907.200012207031
1536.96564958169	907.599975585938
1537.59330724498	906
1538.22088312871	907.200012207031
1538.84837724034	906.200012207031
1539.47578958739	906.599975585938
1540.10312017733	908
1540.73036901765	908.599975585938
1541.35753611584	907.400024414063
1541.98462147939	906.799987792969
1542.61162511578	908.599975585938
1543.2385470325	911.799987792969
1543.86538723704	906.599975585938
1544.49214573688	905.799987792969
1545.11882253951	904.599975585938
1545.74541765241	905.200012207031
1546.37193108306	904.200012207031
1546.99836283896	904.200012207031
1547.62471292758	905.200012207031
1548.25098135641	906.200012207031
1548.87716813294	902.799987792969
1549.50327326464	903.200012207031
1550.12929675899	900
1550.75523862349	909.799987792969
1551.38109886561	903.799987792969
1552.00687749284	901.599975585938
1552.63257451264	905
1553.25818993252	904
1553.88372375994	904
1554.50917600239	902.400024414063
1555.13454666734	905
1555.75983576228	905.400024414063
1556.38504329469	905.200012207031
1557.01016927204	903.200012207031
1557.63521370181	902.200012207031
1558.26017659149	902
1558.88505794854	904.400024414063
1559.50985778045	904.400024414063
1560.13457609469	904
1560.75921289874	901.599975585938
1561.38376820008	903.200012207031
1562.00824200618	901
1562.63263432452	904.599975585938
1563.25694516257	904.200012207031
1563.88117452781	902.200012207031
1564.50532242772	902.200012207031
1565.12938886976	900.599975585938
1565.75337386141	905.599975585938
1566.37727741015	903.200012207031
1567.00109952345	903.599975585938
1567.62484020878	904.200012207031
1568.24849947361	904.799987792969
1568.87207732542	903.599975585938
1569.49557377168	905
1570.11898881986	901.400024414063
1570.74232247743	902
1571.36557475186	901.799987792969
1571.98874565062	902.799987792969
1572.61183518119	903.200012207031
1573.23484335103	904
1573.85777016761	902
1574.4806156384	905
1575.10337977088	905.599975585938
1575.7260625725	904
1576.34866405074	904.599975585938
1576.97118421306	902.599975585938
1577.59362306694	902.799987792969
1578.21598061984	907.400024414063
1578.83825687922	906.200012207031
1579.46045185255	902.799987792969
1580.08256554731	908.200012207031
1580.70459797094	905.599975585938
1581.32654913093	907
1581.94841903473	902
1582.57020768981	904.200012207031
1583.19191510364	905.400024414063
1583.81354128367	904
1584.43508623737	904.400024414063
1585.05654997221	902.599975585938
1585.67793249564	905.400024414063
1586.29923381514	902.799987792969
1586.92045393815	906.599975585938
1587.54159287216	904.400024414063
1588.1626506246	904.599975585938
1588.78362720296	905.400024414063
1589.40452261468	907.799987792969
1590.02533686724	904.400024414063
1590.64606996808	904.400024414063
1591.26672192467	902.799987792969
1591.88729274447	904.200012207031
1592.50778243493	904.799987792969
1593.12819100352	905.799987792969
1593.7485184577	908
1594.36876480492	905
1594.98893005264	904
1595.60901420832	902.799987792969
1596.22901727941	901.799987792969
1596.84893927338	906.200012207031
1597.46878019767	906
1598.08854005975	905
1598.70821886707	905.200012207031
1599.32781662708	909.599975585938
1599.94733334725	908.200012207031
1600.56676903502	908.599975585938
1601.18612369785	910.200012207031
1601.8053973432	907.400024414063
1602.42458997851	905.799987792969
1603.04370161124	910.799987792969
1603.66273224884	906.200012207031
1604.28168189878	905.200012207031
1604.90055056849	908.400024414063
1605.51933826543	907.799987792969
1606.13804499705	907.799987792969
1606.75667077081	908.200012207031
1607.37521559415	910.400024414063
1607.99367947452	912.599975585938
1608.61206241938	908.400024414063
1609.23036443618	912.400024414063
1609.84858553236	914.599975585938
1610.46672571537	915.400024414063
1611.08478499267	918.599975585938
1611.7027633717	916
1612.3206608599	917.400024414063
1612.93847746473	921.200012207031
1613.55621319364	916.799987792969
1614.17386805407	914.200012207031
1614.79144205347	920.799987792969
1615.40893519928	914.400024414063
1616.02634749895	919.400024414063
1616.64367895993	918.799987792969
1617.26092958966	922.400024414063
1617.87809939559	924.200012207031
1618.49518838516	924.200012207031
1619.11219656582	921.599975585938
1619.729123945	921
1620.34597053016	927.599975585938
1620.96273632874	927
1621.57942134818	924
1622.19602559592	924
1622.8125490794	929.200012207031
1623.42899180607	929.599975585938
1624.04535378337	924.200012207031
1624.66163501874	926.400024414063
1625.27783551963	923
1625.89395529346	926.599975585938
1626.50999434768	920.400024414063
1627.12595268974	921.200012207031
1627.74183032707	920.599975585938
1628.3576272671	917
1628.97334351729	916
1629.58897908506	912.200012207031
1630.20453397786	914.400024414063
1630.82000820313	909.799987792969
1631.43540176829	904
1632.05071468079	907.599975585938
1632.66594694807	906
1633.28109857756	907.400024414063
1633.8961695767	903.400024414063
1634.51115995292	899.400024414063
1635.12606971366	899.599975585938
1635.74089886636	899.400024414063
1636.35564741844	897.799987792969
1636.97031537734	896.599975585938
1637.58490275051	896
1638.19940954536	896.200012207031
1638.81383576934	894.200012207031
1639.42818142987	894.200012207031
1640.0424465344	893.400024414063
1640.65663109034	894.599975585938
1641.27073510515	892
1641.88475858623	890.400024414063
1642.49870154104	891.400024414063
1643.11256397699	888.200012207031
1643.72634590152	889.599975585938
1644.34004732206	890.799987792969
1644.95366824604	890
1645.56720868089	891
1646.18066863404	890
1646.79404811291	890.400024414063
1647.40734712494	890
1648.02056567755	885.799987792969
1648.63370377817	887.799987792969
1649.24676143423	887.200012207031
1649.85973865316	887.400024414063
1650.47263544238	888
1651.08545180932	888.200012207031
1651.6981877614	889
1652.31084330606	888.200012207031
1652.92341845071	887.200012207031
1653.53591320278	887
1654.1483275697	889
1654.7606615589	888.599975585938
1655.37291517778	889.200012207031
1655.98508843379	888
1656.59718133434	885.799987792969
1657.20919388685	891
1657.82112609875	890.599975585938
1658.43297797747	887.799987792969
1659.04474953041	887.799987792969
1659.65644076501	887.200012207031
1660.26805168869	886.599975585938
1660.87958230886	883.400024414063
1661.49103263294	885.200012207031
1662.10240266837	884.799987792969
1662.71369242255	884.400024414063
1663.32490190291	885.599975585938
1663.93603111687	884
1664.54708007184	883.400024414063
1665.15804877524	885.799987792969
1665.7689372345	886.799987792969
1666.37974545703	882.799987792969
1666.99047345024	883.799987792969
1667.60112122156	881.400024414063
1668.2116887784	885.200012207031
1668.82217612818	883.400024414063
1669.43258327831	882
1670.04291023622	884.799987792969
1670.65315700931	884.799987792969
1671.263323605	883.200012207031
1671.8734100307	882.200012207031
1672.48341629384	883.599975585938
1673.09334240182	883.400024414063
1673.70318836206	884.200012207031
1674.31295418197	884
1674.92263986896	883.599975585938
1675.53224543046	881.200012207031
1676.14177087386	884.200012207031
1676.75121620658	886.799987792969
1677.36058143604	884.799987792969
1677.96986656964	884.799987792969
1678.5790716148	882.599975585938
1679.18819657892	881.599975585938
1679.79724146943	882
1680.40620629372	880
1681.0150910592	883.599975585938
1681.6238957733	881.400024414063
1682.23262044341	881.400024414063
1682.84126507694	882.200012207031
1683.4498296813	883
1684.0583142639	883.400024414063
1684.66671883216	883
1685.27504339346	883.799987792969
1685.88328795523	881.400024414063
1686.49145252487	880.400024414063
1687.09953710978	885.400024414063
1687.70754171737	883.799987792969
1688.31546635505	883.400024414063
1688.92331103021	883.400024414063
1689.53107575028	881.799987792969
1690.13876052265	880.400024414063
1690.74636535472	883.200012207031
1691.3538902539	881.400024414063
1691.96133522759	882.200012207031
1692.5687002832	884.799987792969
1693.17598542812	879
1693.78319066977	882.200012207031
1694.39031601554	880.599975585938
1694.99736147283	883.400024414063
1695.60432704905	881.599975585938
1696.2112127516	881.599975585938
1696.81801858788	880.400024414063
1697.42474456528	882.200012207031
1698.03139069121	883
1698.63795697307	881.400024414063
1699.24444341826	884
1699.85085003417	881.400024414063
1700.45717682821	880.799987792969
1701.06342380778	879
1701.66959098026	880.200012207031
1702.27567835307	882.200012207031
1702.88168593359	881.599975585938
1703.48761372922	879.799987792969
1704.09346174737	879
1704.69922999542	879
1705.30491848077	880.599975585938
1705.91052721083	880.599975585938
1706.51605619297	880
1707.12150543461	879.599975585938
1707.72687494312	878.599975585938
1708.33216472592	880.799987792969
1708.93737479039	881
1709.54250514392	880.599975585938
