634.977642221345	905.799987792969
635.719821695905	901.400024414063
636.461909203392	908
637.203904751776	905.400024414063
637.945808349023	904.400024414063
638.687620003102	904.599975585938
639.42933972198	904.799987792969
640.170967513616	901.400024414063
640.912503385981	902.400024414063
641.653947347041	903.200012207031
642.395299404758	900.799987792969
643.13655956709	904.599975585938
643.877727842014	905.400024414063
644.61880423748	904
645.359788761455	900.200012207031
646.100681421905	902.200012207031
646.841482226789	901
647.582191184074	904.599975585938
648.322808301711	904.400024414063
649.06333358767	900.400024414063
649.803767049909	901.799987792969
650.544108696385	903
651.28435853506	902.799987792969
652.024516573894	905.200012207031
652.764582820849	905.400024414063
653.504557283875	902.599975585938
654.244439970937	906
654.984230889991	906.799987792969
655.723930048995	904.400024414063
656.463537455909	904.400024414063
657.203053118683	904.400024414063
657.942477045275	903.200012207031
658.681809243647	902
659.421049721747	902.799987792969
660.160198487535	902.400024414063
660.899255548962	902
661.638220913985	901
662.377094590559	906.799987792969
663.115876586631	904.200012207031
663.854566910165	901.799987792969
664.593165569107	901.599975585938
665.331672571406	903.400024414063
666.07008792502	906.200012207031
666.808411637902	908.400024414063
667.546643717996	904.400024414063
668.284784173258	904.200012207031
669.022833011641	905.200012207031
669.760790241089	902.599975585938
670.498655869554	904.799987792969
671.236429904987	907.200012207031
671.97411235534	904.400024414063
672.711703228551	909.200012207031
673.449202532577	905.799987792969
674.186610275364	908.400024414063
674.923926464857	907.599975585938
675.661151109008	907
676.398284215759	907.400024414063
677.135325793058	903.400024414063
677.87227584885	903
678.609134391082	905.799987792969
679.345901427696	906.799987792969
680.082576966644	907.400024414063
680.819161015861	904.599975585938
681.555653583298	907.200012207031
682.292054676895	903
683.028364304594	903
683.764582474344	901.799987792969
684.500709194083	902.400024414063
685.236744471752	904.400024414063
685.972688315294	904.599975585938
686.708540732652	904.799987792969
687.444301731762	903.799987792969
688.179971320572	899
688.915549507013	898.799987792969
689.651036299034	897.799987792969
690.386431704569	902
691.121735731559	897
691.85694838794	901.200012207031
692.592069681652	900.200012207031
693.327099620632	898.200012207031
694.062038212821	901.599975585938
694.796885466149	899.599975585938
695.531641388561	900.599975585938
696.266305987987	900
697.000879272367	899.200012207031
697.735361249632	901.599975585938
698.469751927722	903.200012207031
699.204051314568	901.200012207031
699.938259418107	900
700.672376246272	898.799987792969
701.406401806997	902
702.140336108212	899.200012207031
702.874179157855	892.400024414063
703.607930963856	897.200012207031
704.341591534147	895
705.07516087666	897.400024414063
705.808638999324	894.599975585938
706.542025910073	894.400024414063
707.275321616841	897.200012207031
708.008526127549	898
708.741639450132	897.200012207031
709.474661592521	898.799987792969
710.207592562641	900.200012207031
710.940432368424	896.400024414063
711.673181017796	896.200012207031
712.405838518687	895.200012207031
713.138404879025	894.400024414063
713.870880106731	896.799987792969
714.603264209738	898.200012207031
715.335557195971	897.400024414063
716.067759073357	898
716.799869849816	900.799987792969
717.531889533281	900.200012207031
718.263818131673	900.599975585938
718.995655652917	895.799987792969
719.727402104934	896.599975585938
720.45905749565	894.200012207031
721.19062183299	895.799987792969
721.922095124877	897.200012207031
722.653477379231	897
723.384768603973	897.400024414063
724.11596880703	899.599975585938
724.847077996319	897.400024414063
725.578096179762	898
726.309023365281	902.400024414063
727.039859560792	896.599975585938
727.770604774222	900.200012207031
728.501259013484	898.200012207031
729.231822286501	895.200012207031
729.962294601191	899
730.692675965469	897.200012207031
731.42296638726	896.400024414063
732.153165874472	896.799987792969
732.883274435032	895.599975585938
733.613292076851	897
734.343218807843	899
735.07305463593	896.799987792969
735.802799569028	897.200012207031
736.532453615048	897.799987792969
737.262016781904	898
737.991489077517	897.799987792969
738.720870509794	896.400024414063
739.450161086654	900.200012207031
740.179360816009	898
740.908469705772	892.599975585938
741.637487763854	897.200012207031
742.366414998168	898.799987792969
743.095251416623	898.799987792969
743.823997027137	897.200012207031
744.552651837618	896.799987792969
745.281215855978	895.400024414063
746.009689090124	896
746.738071547964	897.400024414063
747.466363237419	895
748.194564166384	896.799987792969
748.92267434278	899.200012207031
749.650693774504	895.799987792969
750.378622469476	894.799987792969
751.106460435596	896.599975585938
751.834207680771	899.200012207031
752.561864212909	898.400024414063
753.289430039919	895.799987792969
754.016905169707	896.799987792969
754.744289610175	900.599975585938
755.471583369231	895.200012207031
756.198786454782	895.400024414063
756.925898874728	897.400024414063
757.652920636979	894
758.379851749433	893.799987792969
759.106692219996	893.799987792969
759.833442056572	895.200012207031
760.560101267063	898.400024414063
761.28666985937	896.799987792969
762.0131478414	895
762.739535221046	899.200012207031
763.465832006219	896
764.192038204812	897.599975585938
764.918153824731	898.200012207031
765.644178873872	898
766.370113360138	896.599975585938
767.095957291425	896.200012207031
767.821710675635	897.799987792969
768.547373520665	897.599975585938
769.272945834415	895.200012207031
769.998427624781	897.799987792969
770.723818899658	898.599975585938
771.449119666949	898.799987792969
772.174329934546	898.400024414063
772.899449710347	897
773.624479002248	897
774.349417818145	898.400024414063
775.074266165934	899.400024414063
775.799024053505	899.799987792969
776.523691488757	899.799987792969
777.248268479582	897.799987792969
777.972755033877	894.799987792969
778.69715115953	899
779.421456864441	899.200012207031
780.145672156493	897.599975585938
780.869797043587	899.200012207031
781.593831533611	897.799987792969
782.317775634457	899
783.041629354012	899.400024414063
783.765392700174	899.400024414063
784.489065680828	900.400024414063
785.212648303866	898.200012207031
785.936140577177	899.599975585938
786.659542508652	899
787.382854106174	898
788.106075377639	897.799987792969
788.829206330928	898
789.552246973933	898.599975585938
790.275197314542	898.799987792969
790.998057360638	898
791.720827120108	898
792.443506600841	896.200012207031
793.166095810722	898
793.888594757635	899
794.611003449465	897
795.333321894098	898.799987792969
796.055550099417	900
796.777688073308	899.599975585938
797.499735823654	897.599975585938
798.221693358334	899.200012207031
798.943560685235	899
799.665337812239	898.799987792969
800.387024747226	901.200012207031
801.108621498075	902.400024414063
801.830128072674	898.400024414063
802.551544478902	898.599975585938
803.272870724636	899
803.994106817761	900
804.715252766148	900.200012207031
805.436308577687	901.400024414063
806.157274260251	901
806.878149821721	899.799987792969
807.598935269973	897.799987792969
808.319630612886	899.599975585938
809.040235858336	898.799987792969
809.760751014202	897.400024414063
810.481176088361	898.400024414063
811.201511088685	899.799987792969
811.921756023059	898.599975585938
812.641910899347	897.799987792969
813.361975725432	895.400024414063
814.081950509188	896.200012207031
814.801835258489	900.400024414063
815.521629981206	900
816.241334685218	895.599975585938
816.960949378392	901.400024414063
817.680474068606	899.200012207031
818.399908763731	901.200012207031
819.11925347164	898.599975585938
819.838508200202	897.599975585938
820.55767295729	899.200012207031
821.276747750778	900.799987792969
821.995732588531	897
822.714627478425	899.400024414063
823.433432428327	901.400024414063
824.152147446105	899
824.870772539632	897.799987792969
825.589307716775	902.599975585938
826.307752985404	899.400024414063
827.026108353378	897.599975585938
827.744373828579	899.799987792969
828.462549418867	900
829.180635132107	899
829.898630976168	898.799987792969
830.616536958915	897.400024414063
831.334353088218	901.799987792969
832.052079371938	898.400024414063
832.769715817942	899
833.487262434092	898.400024414063
834.204719228255	899.200012207031
834.922086208293	897.799987792969
835.639363382073	897
836.356550757456	899.200012207031
837.073648342304	900
837.790656144484	898.799987792969
838.507574171847	898.799987792969
839.22440243227	899.599975585938
839.941140933601	899
840.657789683706	898.799987792969
841.374348690448	897.799987792969
842.090817961686	897.799987792969
842.807197505276	899
843.523487329083	896.799987792969
844.23968744096	898.400024414063
844.955797848771	898.799987792969
845.671818560374	898.200012207031
846.387749583622	897.799987792969
847.103590926378	895.400024414063
847.819342596497	898.400024414063
848.535004601833	897
849.25057695025	895
849.966059649598	899
850.681452707735	899
851.396756132513	900
852.111969931789	898.200012207031
852.827094113419	899.200012207031
853.542128685257	903
854.257073655158	899
854.971929030969	898.599975585938
855.686694820551	901.400024414063
856.40137103175	901
857.115957672423	901.599975585938
857.830454750423	901
858.544862273597	903.200012207031
859.259180249797	901
859.97340868688	899.400024414063
860.687547592688	900.799987792969
861.401596975075	898.200012207031
862.115556841891	898.599975585938
862.829427200985	903.400024414063
863.543208060205	901.400024414063
864.256899427402	897.799987792969
864.970501310423	901.599975585938
865.684013717114	897
866.397436655325	897.599975585938
867.110770132901	898.799987792969
867.824014157691	898.599975585938
868.537168737542	897.400024414063
869.250233880299	900.799987792969
869.963209593803	898.599975585938
870.676095885902	898.400024414063
871.388892764445	899.400024414063
872.101600237276	900
872.814218312233	900.599975585938
873.526746997165	897.799987792969
874.239186299914	902.200012207031
874.951536228323	899.400024414063
875.663796790231	900.799987792969
876.375967993487	901.599975585938
877.088049845928	901.799987792969
877.8000423554	901.400024414063
878.511945529739	901.200012207031
879.22375937679	903.799987792969
879.935483904388	902
880.64711912038	903.799987792969
881.358665032604	903.799987792969
882.070121648892	901.599975585938
882.78148897709	903
883.492767025039	904.799987792969
884.203955800571	903.799987792969
884.915055311525	905
885.626065565741	903.599975585938
886.336986571053	904
887.047818335298	904
887.758560866315	902.400024414063
888.469214171937	902.200012207031
889.179778260005	902.400024414063
889.890253138347	900.400024414063
890.600638814803	904.200012207031
891.310935297204	904.599975585938
892.021142593385	904
892.731260711183	904.599975585938
893.441289658429	906.200012207031
894.15122944295	904.200012207031
894.861080072591	903.400024414063
895.570841555173	906.200012207031
896.280513898534	902.599975585938
896.990097110503	901.799987792969
897.699591198913	903
898.408996171595	903.200012207031
899.118312036375	904
899.827538801089	900.799987792969
900.536676473561	901.200012207031
901.245725061628	905.200012207031
901.954684573109	901.799987792969
902.663555015838	904.400024414063
903.372336397644	905
904.081028726351	903.599975585938
904.789632009793	902.799987792969
905.49814625579	902.799987792969
906.20657147217	902.200012207031
906.914907666765	905.799987792969
907.623154847391	905
908.331313021885	903.599975585938
909.039382198064	902.400024414063
909.747362383754	904.400024414063
910.455253586782	905
911.163055814972	909.400024414063
911.870769076143	904.599975585938
912.578393378126	905.599975585938
913.285928728738	908.799987792969
913.993375135802	904
914.700732607145	905.599975585938
915.408001150579	903.799987792969
916.115180773937	906.599975585938
916.822271485037	902.400024414063
917.529273291693	908
918.236186201733	904.799987792969
918.943010222971	901
919.649745363234	905.200012207031
920.356391630333	898.799987792969
921.062949032096	897.400024414063
921.769417576333	900.400024414063
922.475797270864	897.200012207031
923.182088123512	899
923.888290142089	897.799987792969
924.594403334414	896.599975585938
925.300427708304	899.200012207031
926.006363271572	901.599975585938
926.712210032039	902
927.417967997522	901.599975585938
928.123637175827	903.400024414063
928.829217574776	899
929.534709202184	903.400024414063
930.240112065859	899.400024414063
930.945426173621	900.799987792969
931.650651533283	898.799987792969
932.355788152653	897.400024414063
933.060836039547	902
933.765795201776	898.200012207031
934.470665647153	898.799987792969
935.175447383492	898.200012207031
935.880140418599	900
936.584744760286	899.400024414063
937.289260416366	900.400024414063
937.993687394647	899.200012207031
938.698025702939	901.400024414063
939.402275349051	903.200012207031
940.106436340793	903.200012207031
940.810508685976	901.400024414063
941.5144923924	905
942.21838746788	901
942.922193920223	899.799987792969
943.625911757231	901.799987792969
944.329540986716	900.200012207031
945.033081616484	900.599975585938
945.736533654334	901
946.439897108083	903.200012207031
947.143171985529	902.599975585938
947.846358294477	903.400024414063
948.549456042732	902.599975585938
949.2524652381	900.599975585938
949.955385888382	901.599975585938
950.658218001384	899.400024414063
951.360961584907	900
952.063616646755	903.599975585938
952.766183194733	899
953.468661236636	900.200012207031
954.171050780271	900.400024414063
954.873351833437	900.400024414063
955.575564403935	900.799987792969
956.277688499565	899.400024414063
956.97972412813	901.799987792969
957.681671297424	898.799987792969
958.383530015255	898.200012207031
959.085300289414	900
959.786982127703	899.599975585938
960.488575537918	900.599975585938
961.190080527859	898.799987792969
961.891497105327	897.799987792969
962.592825278111	899
963.294065054012	902
963.995216440829	898.400024414063
964.696279446353	902.400024414063
965.397254078383	903
966.098140344714	902.200012207031
966.798938253139	900.599975585938
967.499647811456	895.599975585938
968.200269027458	903.400024414063
968.900801908937	900.400024414063
969.601246463685	901.599975585938
970.3016026995	896.599975585938
971.001870624169	901.599975585938
971.702050245491	899.799987792969
972.402141571249	899.799987792969
973.102144609245	901
973.802059367267	900.200012207031
974.501885853103	900.599975585938
975.201624074541	900.799987792969
975.901274039379	903.799987792969
976.600835755399	904
977.3003092304	898.599975585938
977.999694472158	897.799987792969
978.698991488473	900.799987792969
979.39820028713	900
980.097320875915	899
980.796353262618	900
981.495297455024	900.400024414063
982.194153460919	897
982.892921288093	899.799987792969
983.591600944331	903.599975585938
984.290192437419	901.200012207031
984.98869577514	899.400024414063
985.687110965282	900.799987792969
986.385438015629	900.599975585938
987.083676933961	901.799987792969
987.781827728069	898.599975585938
988.479890405732	898.400024414063
989.177864974732	900.799987792969
989.875751442857	900
990.573549817888	898.599975585938
991.271260107602	899
991.968882319786	901.799987792969
992.666416462217	900.200012207031
993.363862542681	898.799987792969
994.061220568959	898.200012207031
994.758490548823	896.799987792969
995.455672490061	899.400024414063
996.152766400451	901.599975585938
996.849772287773	900.799987792969
997.5466901598	900.400024414063
998.243520024317	901.200012207031
998.940261889097	897.599975585938
999.636915761923	899.799987792969
1000.33348165057	898.799987792969
1001.02995956281	898.400024414063
1001.72634950643	896.400024414063
1002.42265148919	899
1003.11886551889	899.200012207031
1003.81499160328	897.200012207031
1004.51102975015	903.200012207031
1005.20697996727	900
1005.90284226242	903.400024414063
1006.59861664337	900.200012207031
1007.2943031179	901.200012207031
1007.98990169377	903.599975585938
1008.68541237876	903
1009.38083518064	900.799987792969
1010.07617010719	901.400024414063
1010.77141716617	900
1011.46657636536	900.200012207031
1012.16164771253	901.200012207031
1012.85663121546	898.400024414063
1013.5515268819	901.200012207031
1014.24633471963	904.200012207031
1014.94105473642	901.200012207031
1015.63568694004	901.599975585938
1016.33023133826	904.400024414063
1017.02468793885	903.400024414063
1017.71905674957	904.200012207031
1018.41333777819	905.799987792969
1019.10753103249	903.799987792969
1019.80163652022	904.200012207031
1020.49565424916	905.200012207031
1021.18958422707	905.400024414063
1021.88342646171	907.599975585938
1022.57718096085	906.799987792969
1023.27084773227	907.400024414063
1023.96442678371	910
1024.65791812296	911.200012207031
1025.35132175776	908.400024414063
1026.04463769589	912.599975585938
1026.73786594511	914.400024414063
1027.43100651318	915.599975585938
1028.12405940786	911.599975585938
1028.81702463692	912.799987792969
1029.50990220812	915
1030.20269212921	916.799987792969
1030.89539440798	917.200012207031
1031.58800905216	917.799987792969
1032.28053606952	917.200012207031
1032.97297546784	914.200012207031
1033.66532725485	910.200012207031
1034.35759143832	914.599975585938
1035.04976802602	913
1035.7418570257	911
1036.43385844511	911.400024414063
1037.12577229202	909.200012207031
1037.81759857419	909.599975585938
1038.50933729937	910.400024414063
1039.20098847531	909.799987792969
1039.89255210978	905.599975585938
1040.58402821053	907.200012207031
1041.27541678532	905.200012207031
1041.96671784191	909.799987792969
1042.65793138804	903.799987792969
1043.34905743147	907.599975585938
1044.04009597996	907.200012207031
1044.73104704125	908
1045.42191062312	905
1046.1126867333	906.599975585938
1046.80337537955	910.400024414063
1047.49397656962	904.400024414063
1048.18449031127	904.599975585938
1048.87491661225	903.200012207031
1049.5652554803	905
1050.25550692319	903
1050.94567094865	902.200012207031
1051.63574756444	906.599975585938
1052.32573677832	907.400024414063
1053.01563859803	905.799987792969
1053.70545303131	906.400024414063
1054.39518008592	905.200012207031
1055.08481976961	904.799987792969
1055.77437209013	903.599975585938
1056.46383705522	904.400024414063
1057.15321467262	903.799987792969
1057.8425049501	902.400024414063
1058.53170789539	901.200012207031
1059.22082351624	903
1059.9098518204	901.200012207031
1060.59879281561	906.599975585938
1061.28764650962	902
1061.97641291016	906.599975585938
1062.665092025	902.200012207031
1063.35368386187	904.799987792969
1064.04218842851	909.400024414063
1064.73060573268	907.799987792969
1065.4189357821	904.200012207031
1066.10717858452	903.799987792969
1066.7953341477	900.400024414063
1067.48340247936	902
1068.17138358725	906
1068.85927747912	904.400024414063
1069.5470841627	908
1070.23480364573	908.599975585938
1070.92243593595	907.599975585938
1071.60998104111	906.599975585938
1072.29743896894	907
1072.98480972718	905.599975585938
1073.67209332357	907.400024414063
1074.35928976585	905.200012207031
1075.04639906176	904.799987792969
1075.73342121903	906.200012207031
1076.42035624541	904.200012207031
1077.10720414862	904.400024414063
1077.79396493641	902.599975585938
1078.48063861651	905
1079.16722519666	903.400024414063
1079.85372468459	902.599975585938
1080.54013708804	905.799987792969
1081.22646241474	902.599975585938
1081.91270067243	900.400024414063
1082.59885186884	900.200012207031
1083.28491601171	903.200012207031
1083.97089310877	905
1084.65678316774	898.599975585938
1085.34258619637	903.799987792969
1086.02830220239	903.799987792969
1086.71393119352	904.200012207031
1087.39947317751	900.799987792969
1088.08492816207	905.799987792969
1088.77029615495	902.799987792969
1089.45557716387	901
1090.14077119656	903.200012207031
1090.82587826075	901
1091.51089836417	902
1092.19583151456	900.599975585938
1092.88067771963	899.200012207031
1093.56543698712	901
1094.25010932475	901.799987792969
1094.93469474026	900.599975585938
1095.61919324137	902.400024414063
1096.3036048358	901.400024414063
1096.98792953129	901.400024414063
1097.67216733555	904.200012207031
1098.35631825632	903
1099.04038230132	903.799987792969
1099.72435947828	902.799987792969
1100.40824979492	904
1101.09205325895	904
1101.77576987812	903.799987792969
1102.45939966014	904.599975585938
1103.14294261273	900
1103.82639874362	904.400024414063
1104.50976806054	902.400024414063
1105.19305057119	905
1105.87624628331	907.200012207031
1106.55935520461	907.200012207031
1107.24237734283	908.400024414063
1107.92531270566	909
1108.60816130085	911.400024414063
1109.2909231361	907
1109.97359821914	906.200012207031
1110.65618655768	908
1111.33868815946	906.599975585938
1112.02110303217	909
1112.70343118355	909.400024414063
1113.3856726213	910.799987792969
1114.06782735316	909.799987792969
1114.74989538683	911.400024414063
1115.43187673002	910
1116.11377139047	912.400024414063
1116.79557937588	913.599975585938
1117.47730069397	910.599975585938
1118.15893535245	913.799987792969
1118.84048335904	913.400024414063
1119.52194472146	914
1120.20331944741	909
1120.88460754462	914.799987792969
1121.56580902079	914.599975585938
1122.24692388364	918.200012207031
1122.92795214088	912.799987792969
1123.60889380022	917.400024414063
1124.28974886938	916.400024414063
1124.97051735606	919.400024414063
1125.65119926799	919
1126.33179461286	921.200012207031
1127.0123033984	914.200012207031
1127.6927256323	916.400024414063
1128.37306132229	913.599975585938
1129.05331047606	917.599975585938
1129.73347310134	914.400024414063
1130.41354920582	912.200012207031
1131.09353879722	911.200012207031
1131.77344188324	915.799987792969
1132.45325847159	917.400024414063
1133.13298856999	915
1133.81263218612	912
1134.49218932772	912
1135.17166000247	913
1135.85104421809	914.400024414063
1136.53034198227	919
1137.20955330274	911.400024414063
1137.88867818718	908.799987792969
1138.56771664331	909.200012207031
1139.24666867883	911.200012207031
1139.92553430144	909.200012207031
1140.60431351885	910
1141.28300633876	911
1141.96161276887	912
1142.64013281689	909.599975585938
1143.31856649051	909
1143.99691379744	912
1144.67517474538	907.799987792969
1145.35334934203	913.599975585938
1146.03143759509	915.200012207031
1146.70943951226	913.200012207031
1147.38735510125	911.200012207031
1148.06518436974	911.599975585938
1148.74292732545	910.799987792969
1149.42058397606	911.200012207031
1150.09815432928	915.799987792969
1150.7756383928	910.599975585938
1151.45303617432	914
1152.13034768155	915.799987792969
1152.80757292217	913.799987792969
1153.48471190389	914.200012207031
1154.16176463439	913
1154.83873112138	913.200012207031
1155.51561137255	912.400024414063
1156.1924053956	912
1156.86911319822	914.400024414063
1157.5457347881	911.799987792969
1158.22227017294	912.599975585938
1158.89871936044	911.599975585938
1159.57508235828	912.799987792969
1160.25135917416	910.200012207031
1160.92754981578	913.799987792969
1161.60365429081	910.400024414063
1162.27967260697	915.200012207031
1162.95560477193	912.599975585938
1163.63145079339	909.400024414063
1164.30721067904	909.799987792969
1164.98288443657	916
1165.65847207367	911.400024414063
1166.33397359803	911.799987792969
1167.00938901735	910.400024414063
1167.6847183393	912.599975585938
1168.35996157157	912.599975585938
1169.03511872187	914.599975585938
1169.71018979787	911.799987792969
1170.38517480726	906
1171.06007375773	908.400024414063
1171.73488665696	904.200012207031
1172.40961351265	906.599975585938
1173.08425433247	906
1173.75880912412	908.599975585938
1174.43327789528	906.400024414063
1175.10766065364	909.799987792969
1175.78195740687	908.799987792969
1176.45616816267	907.799987792969
1177.13029292871	909.200012207031
1177.80433171269	910.400024414063
1178.47828452229	911.599975585938
1179.15215136518	908.599975585938
1179.82593224905	909.799987792969
1180.49962718159	906.200012207031
1181.17323617047	910.400024414063
1181.84675922337	911.799987792969
1182.52019634799	909.400024414063
1183.193547552	909.599975585938
1183.86681284307	908.599975585938
1184.53999222889	907
1185.21308571714	909
1185.8860933155	907.799987792969
1186.55901503165	910
1187.23185087326	907.400024414063
1187.90460084802	908.599975585938
1188.5772649636	908.799987792969
1189.24984322768	907.400024414063
1189.92233564794	909.799987792969
1190.59474223206	910.599975585938
1191.2670629877	912.799987792969
1191.93929792255	913.799987792969
1192.61144704428	915.400024414063
1193.28351036058	912.400024414063
1193.9554878791	914.799987792969
1194.62737960754	913.599975585938
1195.29918555356	911.400024414063
1195.97090572483	911.599975585938
1196.64254012903	916.200012207031
1197.31408877384	911.599975585938
1197.98555166693	913
1198.65692881596	915
1199.32822022862	911.799987792969
1199.99942591256	911.599975585938
1200.67054587548	913
1201.34158012503	912.599975585938
1202.01252866889	914.200012207031
1202.68339151473	910
1203.35416867021	913.799987792969
1204.02486014301	916.200012207031
1204.6954659408	919.799987792969
1205.36598607124	913
1206.03642054201	915
1206.70676936078	915.799987792969
1207.3770325352	915
1208.04721007295	917.599975585938
1208.7173019817	915.200012207031
1209.38730826911	921.599975585938
1210.05722894285	915.200012207031
1210.72706401059	917.599975585938
1211.39681347999	919.599975585938
1212.06647735872	915.799987792969
1212.73605565444	918.799987792969
1213.40554837481	919
1214.07495552751	916.599975585938
1214.74427712019	918.200012207031
1215.41351316052	919.400024414063
1216.08266365617	919.400024414063
1216.75172861479	918.799987792969
1217.42070804405	922.200012207031
1218.0896019516	924.200012207031
1218.75841034513	925
1219.42713323227	924.200012207031
1220.0957706207	923.400024414063
1220.76432251808	926.400024414063
1221.43278893207	927.799987792969
1222.10116987032	927.200012207031
1222.7694653405	926.799987792969
1223.43767535026	922.400024414063
1224.10579990727	924.599975585938
1224.77383901918	924
1225.44179269366	922
1226.10966093835	924.799987792969
1226.77744376093	923.200012207031
1227.44514116904	922.200012207031
1228.11275317034	921.599975585938
1228.78027977249	922.799987792969
1229.44772098315	919.799987792969
1230.11507680996	922.200012207031
1230.7823472606	923
1231.44953234271	924
1232.11663206394	924
1232.78364643195	923.799987792969
1233.4505754544	921.599975585938
1234.11741913894	924.599975585938
1234.78417749322	924.200012207031
1235.45085052489	929.799987792969
1236.11743824162	925.400024414063
1236.78394065104	928.200012207031
1237.45035776082	927
1238.1166895786	927.400024414063
1238.78293611204	927
1239.44909736878	924.799987792969
1240.11517335648	922.599975585938
1240.78116408279	925.200012207031
1241.44706955535	928.200012207031
1242.11288978182	924.200012207031
1242.77862476985	928.400024414063
1243.44427452708	923.799987792969
1244.10983906116	921.400024414063
1244.77531837974	924.799987792969
1245.44071249047	925
1246.106021401	925.400024414063
1246.77124511898	923.599975585938
1247.43638365204	924
1248.10143700783	924.400024414063
1248.76640519401	923.400024414063
1249.43128821822	922.200012207031
1250.0960860881	924.200012207031
1250.76079881129	921.200012207031
1251.42542639545	921.799987792969
1252.08996884822	919.599975585938
1252.75442617723	918.799987792969
1253.41879839014	918.599975585938
1254.08308549458	919.400024414063
1254.74728749821	918.599975585938
1255.41140440866	921.799987792969
1256.07543623357	921.599975585938
1256.73938298059	923
1257.40324465735	921.599975585938
1258.0670212715	916
1258.73071283068	921
1259.39431934253	919.400024414063
1260.05784081468	921
1260.72127725479	922.400024414063
1261.38462867049	918.599975585938
1262.0478950694	916.799987792969
1262.71107645919	912.200012207031
1263.37417284748	915.799987792969
1264.03718424191	917.400024414063
1264.70011065011	917.400024414063
1265.36295207974	913.599975585938
1266.02570853841	918.400024414063
1266.68838003378	919.599975585938
1267.35096657346	918.799987792969
1268.01346816511	919.200012207031
1268.67588481636	916.799987792969
1269.33821653483	921.799987792969
1270.00046332817	922.400024414063
1270.66262520401	924.200012207031
1271.32470216998	919.799987792969
1271.98669423372	918.799987792969
1272.64860140285	921.799987792969
1273.31042368503	916.799987792969
1273.97216108786	918.200012207031
1274.633813619	921
1275.29538128606	923.799987792969
1275.95686409669	922
1276.6182620585	923.400024414063
1277.27957517914	916.799987792969
1277.94080346624	918.799987792969
1278.60194692741	920.200012207031
1279.2630055703	921.200012207031
1279.92397940253	923.200012207031
1280.58486843173	918
1281.24567266552	921
1281.90639211155	924.599975585938
1282.56702677743	915.799987792969
1283.2275766708	919.799987792969
1283.88804179927	922.200012207031
1284.54842217049	920.200012207031
1285.20871779206	918.200012207031
1285.86892867163	922.799987792969
1286.52905481681	922
1287.18909623523	920.400024414063
1287.84905293452	921.599975585938
1288.5089249223	922.200012207031
1289.16871220619	924.400024414063
1289.82841479383	923.400024414063
1290.48803269282	921
1291.1475659108	923.799987792969
1291.80701445539	919.200012207031
1292.46637833421	922.400024414063
1293.12565755489	922.400024414063
1293.78485212504	923.200012207031
1294.44396205229	924.799987792969
1295.10298734425	923.599975585938
1295.76192800856	927.200012207031
1296.42078405283	923.200012207031
1297.07955548467	925.599975585938
1297.73824231171	923
1298.39684454158	925.200012207031
1299.05536218188	925
1299.71379524023	922.799987792969
1300.37214372427	922.400024414063
1301.03040764159	925.400024414063
1301.68858699983	927.599975585938
1302.34668180659	922.599975585938
1303.0046920695	925.799987792969
1303.66261779617	929.599975585938
1304.32045899422	926.799987792969
1304.97821567126	928.400024414063
1305.63588783492	925.200012207031
1306.29347549279	924.400024414063
1306.95097865251	930.799987792969
1307.60839732168	930
1308.26573150791	929.200012207031
1308.92298121883	930.200012207031
1309.58014646204	930.400024414063
1310.23722724517	930.400024414063
1310.89422357581	931.599975585938
1311.55113546158	933.599975585938
1312.2079629101	931.400024414063
1312.86470592898	933.799987792969
1313.52136452582	931
1314.17793870824	929.599975585938
1314.83442848386	929.599975585938
1315.49083386027	932.799987792969
1316.14715484509	933.200012207031
1316.80339144594	935
1317.45954367041	935.799987792969
1318.11561152611	934.200012207031
1318.77159502067	936.200012207031
1319.42749416168	938.400024414063
1320.08330895674	934.599975585938
1320.73903941348	934.799987792969
1321.3946855395	932.200012207031
1322.0502473424	931.599975585938
1322.70572482978	938
1323.36111800926	936
1324.01642688845	937.599975585938
1324.67165147494	938.400024414063
1325.32679177634	934.799987792969
1325.98184780025	933.400024414063
1326.63681955429	939.400024414063
1327.29170704605	935.799987792969
1327.94651028314	933.599975585938
1328.60122927316	935.799987792969
1329.25586402371	931.200012207031
1329.9104145424	930.799987792969
1330.56488083683	927.200012207031
1331.2192629146	937.799987792969
1331.87356078331	937
1332.52777445056	934.400024414063
1333.18190392395	930.799987792969
1333.83594921109	932.200012207031
1334.48991031958	931.799987792969
1335.143787257	931.200012207031
1335.79758003097	929.200012207031
1336.45128864908	930.400024414063
1337.10491311893	928.799987792969
1337.75845344813	929.599975585938
1338.41190964425	933.200012207031
1339.06528171491	931
1339.71856966771	932.200012207031
1340.37177351023	928.400024414063
1341.02489325007	930.200012207031
1341.67792889484	930.400024414063
1342.33088045212	930.799987792969
1342.98374792952	931
1343.63653133462	927
1344.28923067503	929
1344.94184595833	929.799987792969
1345.59437719212	929.200012207031
1346.246824384	931.599975585938
1346.89918754155	928.400024414063
1347.55146667238	929.799987792969
1348.20366178407	931.599975585938
1348.85577288421	929.400024414063
1349.50779998041	929
1350.15974308024	928
1350.8116021913	932.200012207031
1351.46337732119	928.799987792969
1352.11506847748	928
1352.76667566778	929.400024414063
1353.41819889967	932.799987792969
1354.06963818074	926.200012207031
1354.72099351858	926.200012207031
1355.37226492079	929.200012207031
1356.02345239494	924.599975585938
1356.67455594862	926.200012207031
1357.32557558943	931.599975585938
1357.97651132496	928
1358.62736316277	927.400024414063
1359.27813111048	932.400024414063
1359.92881517565	933.599975585938
1360.57941536589	929.799987792969
1361.22993168876	929.799987792969
1361.88036415186	930.400024414063
1362.53071276278	932.799987792969
1363.1809775291	929
1363.8311584584	931.400024414063
1364.48125555826	926.799987792969
1365.13126883627	924.599975585938
1365.78119830001	923.200012207031
1366.43104395707	928.400024414063
1367.08080581503	926.200012207031
1367.73048388147	931
1368.38007816397	924
1369.02958867011	924.200012207031
1369.67901540748	924.599975585938
1370.32835838365	931.799987792969
1370.9776176062	929.599975585938
1371.62679308273	925.599975585938
1372.27588482079	924.599975585938
1372.92489282798	928.400024414063
1373.57381711188	927.799987792969
1374.22265768006	929.799987792969
1374.87141454009	927
1375.52008769957	925.200012207031
1376.16867716606	932.599975585938
1376.81718294715	930.799987792969
1377.4656050504	929.599975585938
1378.1139434834	928.400024414063
1378.76219825373	933
1379.41036936895	936.599975585938
1380.05845683664	933.200012207031
1380.70646066439	935.200012207031
1381.35438085976	935.400024414063
1382.00221743032	930
1382.64997038366	936
1383.29763972735	938
1383.94522546895	934
1384.59272761605	929
1385.24014617621	933.599975585938
1385.88748115701	937.799987792969
1386.53473256602	935.799987792969
1387.18190041081	935
1387.82898469895	933.599975585938
1388.47598543802	933.400024414063
1389.12290263558	939
1389.7697362992	931.599975585938
1390.41648643646	933.400024414063
1391.06315305492	934.799987792969
1391.70973616215	931.799987792969
1392.35623576573	935.799987792969
1393.00265187321	934.200012207031
1393.64898449217	936.400024414063
1394.29523363018	941.200012207031
1394.94139929481	937.799987792969
1395.58748149361	939.599975585938
1396.23348023415	936.599975585938
1396.87939552402	936.400024414063
1397.52522737076	934.200012207031
1398.17097578195	932.599975585938
1398.81664076514	933.799987792969
1399.46222232792	930.599975585938
1400.10772047783	932.400024414063
1400.75313522245	930.599975585938
1401.39846656934	937.400024414063
1402.04371452605	935.400024414063
1402.68887910016	940.200012207031
1403.33396029924	935.400024414063
1403.97895813083	939
1404.6238726025	936.200012207031
1405.26870372182	933.400024414063
1405.91345149634	936.599975585938
1406.55811593363	932.200012207031
1407.20269704125	934.200012207031
1407.84719482676	936.400024414063
1408.49160929772	933.799987792969
1409.13594046168	933.400024414063
1409.78018832622	939.200012207031
1410.42435289887	936.799987792969
1411.06843418722	937.200012207031
1411.7124321988	942.200012207031
1412.3563469412	939
1413.00017842194	945.200012207031
1413.64392664861	944
1414.28759162875	939
1414.93117336992	944.599975585938
1415.57467187967	943.599975585938
1416.21808716557	944.200012207031
1416.86141923516	944.799987792969
1417.50466809601	949
1418.14783375567	945.200012207031
1418.79091622169	945.200012207031
1419.43391550162	945.599975585938
1420.07683160303	949.200012207031
1420.71966453346	948.400024414063
1421.36241430046	946.599975585938
1422.0050809116	951.200012207031
1422.64766437442	950.599975585938
1423.29016469647	954
1423.93258188531	950.400024414063
1424.57491594848	953.799987792969
1425.21716689354	951.400024414063
1425.85933472805	956.799987792969
1426.50141945954	956
1427.14342109557	958
1427.78533964369	955
1428.42717511144	964.200012207031
1429.06892750639	958
1429.71059683607	966.400024414063
1430.35218310803	960
1430.99368632983	958.200012207031
1431.635106509	960.799987792969
1432.2764436531	963.799987792969
1432.91769776967	960.599975585938
1433.55886886627	962
1434.19995695043	964.400024414063
1434.84096202969	964
1435.48188411162	964.599975585938
1436.12272320375	965.599975585938
1436.76347931363	969.799987792969
1437.40415244879	965.200012207031
1438.0447426168	969.400024414063
1438.68524982518	968.400024414063
1439.32567408148	964.200012207031
1439.96601539325	967.400024414063
1440.60627376803	968.400024414063
1441.24644921336	970.200012207031
1441.88654173678	969.200012207031
1442.52655134583	969.200012207031
1443.16647804806	970.799987792969
1443.806321851	971.400024414063
1444.4460827622	967
1445.0857607892	965.200012207031
1445.72535593953	967.599975585938
1446.36486822074	962.200012207031
1447.00429764037	960
1447.64364420595	967.799987792969
1448.28290792502	962.799987792969
1448.92208880512	971.400024414063
1449.56118685379	963.200012207031
1450.20020207857	961.799987792969
1450.83913448699	962
1451.47798408659	967
1452.1167508849	964.200012207031
1452.75543488947	958.599975585938
1453.39403610782	960.599975585938
1454.0325545475	955.799987792969
1454.67099021603	957.400024414063
1455.30934312097	958
1455.94761326982	955.799987792969
1456.58580067014	951
1457.22390532945	950.200012207031
1457.86192725529	952.200012207031
1458.49986645519	948.200012207031
1459.13772293668	944
1459.7754967073	949.200012207031
1460.41318777457	947.200012207031
1461.05079614604	939.400024414063
1461.68832182922	942.799987792969
1462.32576483166	945
1462.96312516087	940
1463.6004028244	940
1464.23759782977	939.400024414063
1464.8747101845	938.200012207031
1465.51173989614	942.400024414063
1466.14868697221	939.400024414063
1466.78555142024	937.400024414063
1467.42233324774	937.200012207031
1468.05903246227	938.200012207031
1468.69564907133	936.200012207031
1469.33218308246	938.599975585938
1469.96863450317	938.599975585938
1470.60500334102	936.200012207031
1471.2412896035	932
1471.87749329816	935.799987792969
1472.51361443251	934.400024414063
1473.14965301409	935.799987792969
1473.78560905041	935.200012207031
1474.421482549	935.599975585938
1475.05727351739	935.599975585938
1475.69298196309	932.400024414063
1476.32860789364	931.599975585938
1476.96415131654	936.400024414063
1477.59961223934	935
1478.23499066954	932.400024414063
1478.87028661467	935.599975585938
1479.50550008226	930.200012207031
1480.14063107981	937.599975585938
1480.77567961486	936.200012207031
1481.41064569492	940
1482.04552932752	932.200012207031
1482.68033052017	934.799987792969
1483.31504928039	931.599975585938
1483.9496856157	938.400024414063
1484.58423953363	931.799987792969
1485.21871104168	931.400024414063
1485.85310014738	934.400024414063
1486.48740685824	932.200012207031
1487.12163118178	932.200012207031
1487.75577312553	931.200012207031
1488.38983269698	929.599975585938
1489.02380990367	931.799987792969
1489.65770475311	930.599975585938
1490.29151725281	932.200012207031
1490.92524741029	931.799987792969
1491.55889523306	933.200012207031
1492.19246072863	930.599975585938
1492.82594390453	928.599975585938
1493.45934476826	929
1494.09266332734	927.599975585938
1494.72589958928	930.799987792969
1495.3590535616	930.599975585938
1495.99212525181	930
1496.62511466741	929.799987792969
1497.25802181592	932.599975585938
1497.89084670485	930.200012207031
1498.52358934172	930
1499.15624973403	930.200012207031
1499.7888278893	930.799987792969
1500.42132381503	932.200012207031
1501.05373751873	933.799987792969
1501.68606900792	929.200012207031
1502.31831829009	927.799987792969
1502.95048537277	929
1503.58257026346	927.599975585938
1504.21457296966	930.400024414063
1504.84649349889	930.200012207031
1505.47833185864	930.400024414063
1506.11008805644	932.599975585938
1506.74176209978	929.799987792969
1507.37335399617	927.799987792969
1508.00486375312	928.599975585938
1508.63629137813	930.400024414063
1509.2676368787	932.799987792969
1509.89890026235	936.599975585938
1510.53008153658	931.599975585938
1511.16118070889	931
1511.79219778677	932.200012207031
1512.42313277775	932
1513.05398568932	931
1513.68475652898	930.200012207031
1514.31544530424	932.599975585938
1514.9460520226	931.200012207031
1515.57657669155	929.599975585938
1516.20701931861	927
1516.83737991127	931.200012207031
1517.46765847702	933.400024414063
1518.09785502339	931.599975585938
1518.72796955785	935
1519.35800208792	935.400024414063
1519.98795262109	934
1520.61782116486	930.400024414063
1521.24760772673	934
1521.87731231419	934.200012207031
1522.50693493475	935.400024414063
1523.1364755959	930.200012207031
1523.76593430514	927.799987792969
1524.39531106997	928
1525.02460589788	929.599975585938
1525.65381879637	930.599975585938
1526.28294977293	928.400024414063
1526.91199883507	927.400024414063
1527.54096599027	928
1528.16985124603	923.400024414063
1528.79865460984	929.200012207031
1529.4273760892	926.799987792969
1530.05601569161	927
1530.68457342455	927.200012207031
1531.31304929552	925.799987792969
1531.94144331201	928.799987792969
1532.56975548151	925.200012207031
1533.19798581152	925
1533.82613430953	922.799987792969
1534.45420098302	926.400024414063
1535.08218583949	926.400024414063
1535.71008888643	921.200012207031
1536.33791013134	920.799987792969
1536.96564958169	922.200012207031
1537.59330724498	922.200012207031
1538.22088312871	918
1538.84837724034	917.400024414063
1539.47578958739	923.400024414063
1540.10312017733	919.799987792969
1540.73036901765	920.200012207031
1541.35753611584	924.400024414063
1541.98462147939	921
1542.61162511578	914.400024414063
1543.2385470325	920.200012207031
1543.86538723704	922
1544.49214573688	922
1545.11882253951	921.400024414063
1545.74541765241	915.599975585938
1546.37193108306	922.799987792969
1546.99836283896	922.599975585938
1547.62471292758	917.400024414063
1548.25098135641	921.599975585938
1548.87716813294	917.400024414063
1549.50327326464	916
1550.12929675899	917.799987792969
1550.75523862349	916.799987792969
1551.38109886561	915.400024414063
1552.00687749284	914
1552.63257451264	917.799987792969
1553.25818993252	922
1553.88372375994	921
1554.50917600239	920.599975585938
1555.13454666734	916.799987792969
1555.75983576228	918.400024414063
1556.38504329469	918
1557.01016927204	920.200012207031
1557.63521370181	915.599975585938
1558.26017659149	916
1558.88505794854	913.799987792969
1559.50985778045	912.200012207031
1560.13457609469	915.400024414063
1560.75921289874	914.400024414063
1561.38376820008	914.200012207031
1562.00824200618	914.200012207031
1562.63263432452	914.599975585938
1563.25694516257	910.799987792969
1563.88117452781	911
1564.50532242772	913
1565.12938886976	912.599975585938
1565.75337386141	914
1566.37727741015	915.200012207031
1567.00109952345	919
1567.62484020878	918.799987792969
1568.24849947361	914.599975585938
1568.87207732542	916.200012207031
1569.49557377168	917.799987792969
1570.11898881986	916
1570.74232247743	918.799987792969
1571.36557475186	915.799987792969
1571.98874565062	917.200012207031
1572.61183518119	919.200012207031
1573.23484335103	916
1573.85777016761	917
1574.4806156384	920.799987792969
1575.10337977088	917.799987792969
1575.7260625725	916.799987792969
1576.34866405074	915.799987792969
1576.97118421306	917.200012207031
1577.59362306694	919.400024414063
1578.21598061984	918.599975585938
1578.83825687922	915
1579.46045185255	914.400024414063
1580.08256554731	920.400024414063
1580.70459797094	915.599975585938
1581.32654913093	917.599975585938
1581.94841903473	917.799987792969
1582.57020768981	917.799987792969
1583.19191510364	920
1583.81354128367	915.400024414063
1584.43508623737	914.200012207031
1585.05654997221	910.799987792969
1585.67793249564	916.200012207031
1586.29923381514	919.200012207031
1586.92045393815	915.200012207031
1587.54159287216	920
1588.1626506246	918.400024414063
1588.78362720296	923
1589.40452261468	917.799987792969
1590.02533686724	920
1590.64606996808	916.599975585938
1591.26672192467	923.599975585938
1591.88729274447	920.200012207031
1592.50778243493	919.200012207031
1593.12819100352	922
1593.7485184577	916.799987792969
1594.36876480492	917.200012207031
1594.98893005264	917.799987792969
1595.60901420832	919.599975585938
1596.22901727941	914.200012207031
1596.84893927338	921.400024414063
1597.46878019767	917.599975585938
1598.08854005975	916.799987792969
1598.70821886707	920.200012207031
1599.32781662708	919.200012207031
1599.94733334725	920.200012207031
1600.56676903502	920.200012207031
1601.18612369785	918.599975585938
1601.8053973432	918.799987792969
1602.42458997851	914.799987792969
1603.04370161124	919.200012207031
1603.66273224884	920.599975585938
1604.28168189878	923.400024414063
1604.90055056849	921.599975585938
1605.51933826543	921.599975585938
1606.13804499705	921
1606.75667077081	919.799987792969
1607.37521559415	928.599975585938
1607.99367947452	926
1608.61206241938	928.200012207031
1609.23036443618	926.599975585938
1609.84858553236	929
1610.46672571537	928
1611.08478499267	929.400024414063
1611.7027633717	929.799987792969
1612.3206608599	925.599975585938
1612.93847746473	930.400024414063
1613.55621319364	927.200012207031
1614.17386805407	928.599975585938
1614.79144205347	930.799987792969
1615.40893519928	931
1616.02634749895	931
1616.64367895993	928.799987792969
1617.26092958966	933.799987792969
1617.87809939559	935.200012207031
1618.49518838516	936.599975585938
1619.11219656582	935.200012207031
1619.729123945	929.799987792969
1620.34597053016	937.200012207031
1620.96273632874	930.400024414063
1621.57942134818	930.799987792969
1622.19602559592	932
1622.8125490794	933.200012207031
1623.42899180607	936.599975585938
1624.04535378337	932.200012207031
1624.66163501874	936.799987792969
1625.27783551963	930.200012207031
1625.89395529346	929.400024414063
1626.50999434768	929.400024414063
1627.12595268974	927.200012207031
1627.74183032707	923.799987792969
1628.3576272671	922.799987792969
1628.97334351729	916.599975585938
1629.58897908506	920.400024414063
1630.20453397786	916.799987792969
1630.82000820313	915.599975585938
1631.43540176829	913.400024414063
1632.05071468079	910.200012207031
1632.66594694807	914.200012207031
1633.28109857756	910.200012207031
1633.8961695767	907.799987792969
1634.51115995292	907.799987792969
1635.12606971366	907
1635.74089886636	903
1636.35564741844	906.799987792969
1636.97031537734	899.599975585938
1637.58490275051	904.400024414063
1638.19940954536	904.799987792969
1638.81383576934	903
1639.42818142987	900.599975585938
1640.0424465344	902.400024414063
1640.65663109034	901.200012207031
1641.27073510515	897.400024414063
1641.88475858623	894.799987792969
1642.49870154104	897
1643.11256397699	900.400024414063
1643.72634590152	895
1644.34004732206	898.599975585938
1644.95366824604	896
1645.56720868089	894.599975585938
1646.18066863404	893.599975585938
1646.79404811291	892.599975585938
1647.40734712494	894.200012207031
1648.02056567755	897.799987792969
1648.63370377817	894.400024414063
1649.24676143423	894
1649.85973865316	895
1650.47263544238	892.200012207031
1651.08545180932	891.400024414063
1651.6981877614	893.200012207031
1652.31084330606	891.200012207031
1652.92341845071	890.200012207031
1653.53591320278	891.400024414063
1654.1483275697	892.400024414063
1654.7606615589	893.599975585938
1655.37291517778	891
1655.98508843379	891.799987792969
1656.59718133434	893.200012207031
1657.20919388685	892.400024414063
1657.82112609875	892.400024414063
1658.43297797747	895.599975585938
1659.04474953041	893
1659.65644076501	894.200012207031
1660.26805168869	892.200012207031
1660.87958230886	889.599975585938
1661.49103263294	894
1662.10240266837	891.599975585938
1662.71369242255	890.200012207031
1663.32490190291	887.200012207031
1663.93603111687	891.799987792969
1664.54708007184	888.599975585938
1665.15804877524	889
1665.7689372345	891
1666.37974545703	889
1666.99047345024	892.400024414063
1667.60112122156	891.200012207031
1668.2116887784	888.599975585938
1668.82217612818	891.200012207031
1669.43258327831	889.200012207031
1670.04291023622	889.200012207031
1670.65315700931	889
1671.263323605	889
1671.8734100307	889.799987792969
1672.48341629384	888.200012207031
1673.09334240182	889
1673.70318836206	887
1674.31295418197	888.200012207031
1674.92263986896	886.599975585938
1675.53224543046	886.799987792969
1676.14177087386	884.799987792969
1676.75121620658	889.200012207031
1677.36058143604	884.200012207031
1677.96986656964	885.200012207031
1678.5790716148	888.400024414063
1679.18819657892	886.599975585938
1679.79724146943	887.599975585938
1680.40620629372	886.200012207031
1681.0150910592	886.400024414063
1681.6238957733	887.200012207031
1682.23262044341	888
1682.84126507694	886.400024414063
1683.4498296813	886.200012207031
1684.0583142639	884.799987792969
1684.66671883216	887.599975585938
1685.27504339346	886.599975585938
1685.88328795523	885.599975585938
1686.49145252487	885.400024414063
1687.09953710978	884.799987792969
1687.70754171737	887.599975585938
1688.31546635505	886.799987792969
1688.92331103021	882.200012207031
1689.53107575028	885.799987792969
1690.13876052265	884.400024414063
1690.74636535472	884
1691.3538902539	884.799987792969
1691.96133522759	886.400024414063
1692.5687002832	884.599975585938
1693.17598542812	885
1693.78319066977	884.599975585938
1694.39031601554	886.200012207031
1694.99736147283	884.799987792969
1695.60432704905	885.599975585938
1696.2112127516	885.799987792969
1696.81801858788	886.400024414063
1697.42474456528	885
1698.03139069121	885.799987792969
1698.63795697307	886
1699.24444341826	884.200012207031
1699.85085003417	885
1700.45717682821	882.599975585938
1701.06342380778	883.799987792969
1701.66959098026	884.200012207031
1702.27567835307	881.200012207031
1702.88168593359	883
1703.48761372922	882.599975585938
1704.09346174737	881.400024414063
1704.69922999542	882.400024414063
1705.30491848077	882.400024414063
1705.91052721083	882
1706.51605619297	880.799987792969
1707.12150543461	882.400024414063
1707.72687494312	879.799987792969
1708.33216472592	881.200012207031
1708.93737479039	883.400024414063
1709.54250514392	882.200012207031
