634.977642221345	863.599975585938
635.719821695905	864.400024414063
636.461909203392	862.400024414063
637.203904751776	863.599975585938
637.945808349023	865.400024414063
638.687620003102	863.400024414063
639.42933972198	864.200012207031
640.170967513616	863.200012207031
640.912503385981	862.400024414063
641.653947347041	863.200012207031
642.395299404758	863.200012207031
643.13655956709	862.599975585938
643.877727842014	864.200012207031
644.61880423748	862.599975585938
645.359788761455	864
646.100681421905	863.599975585938
646.841482226789	862.799987792969
647.582191184074	863.799987792969
648.322808301711	864
649.06333358767	863.799987792969
649.803767049909	864
650.544108696385	863
651.28435853506	864.200012207031
652.024516573894	864.599975585938
652.764582820849	862.799987792969
653.504557283875	864.400024414063
654.244439970937	864.599975585938
654.984230889991	863.400024414063
655.723930048995	862.799987792969
656.463537455909	863.200012207031
657.203053118683	865
657.942477045275	863.200012207031
658.681809243647	864.400024414063
659.421049721747	864.599975585938
660.160198487535	862.599975585938
660.899255548962	866
661.638220913985	864.400024414063
662.377094590559	865.200012207031
663.115876586631	865.400024414063
663.854566910165	863.599975585938
664.593165569107	864.799987792969
665.331672571406	865
666.07008792502	864.799987792969
666.808411637902	865
667.546643717996	864.400024414063
668.284784173258	865.599975585938
669.022833011641	865.599975585938
669.760790241089	865.400024414063
670.498655869554	866
671.236429904987	864
671.97411235534	865
672.711703228551	865.599975585938
673.449202532577	865.400024414063
674.186610275364	864.799987792969
674.923926464857	863.400024414063
675.661151109008	864.599975585938
676.398284215759	864.200012207031
677.135325793058	864.799987792969
677.87227584885	864.599975585938
678.609134391082	866.400024414063
679.345901427696	865
680.082576966644	865
680.819161015861	864.400024414063
681.555653583298	864
682.292054676895	865.400024414063
683.028364304594	864
683.764582474344	864.799987792969
684.500709194083	863.799987792969
685.236744471752	864.400024414063
685.972688315294	864.400024414063
686.708540732652	863.799987792969
687.444301731762	863.400024414063
688.179971320572	863.599975585938
688.915549507013	863.200012207031
689.651036299034	863.200012207031
690.386431704569	864.200012207031
691.121735731559	864
691.85694838794	863.599975585938
692.592069681652	864
693.327099620632	863.400024414063
694.062038212821	865.400024414063
694.796885466149	862.400024414063
695.531641388561	863.599975585938
696.266305987987	863.400024414063
697.000879272367	865.200012207031
697.735361249632	864.400024414063
698.469751927722	863.599975585938
699.204051314568	865
699.938259418107	863.400024414063
700.672376246272	864.200012207031
701.406401806997	863.799987792969
702.140336108212	862.799987792969
702.874179157855	862.799987792969
703.607930963856	862.200012207031
704.341591534147	864.599975585938
705.07516087666	863.200012207031
705.808638999324	863.799987792969
706.542025910073	863.200012207031
707.275321616841	864.400024414063
708.008526127549	863.400024414063
708.741639450132	863.200012207031
709.474661592521	864.599975585938
710.207592562641	863.599975585938
710.940432368424	863.200012207031
711.673181017796	864.799987792969
712.405838518687	862.599975585938
713.138404879025	863.799987792969
713.870880106731	864.599975585938
714.603264209738	864.599975585938
715.335557195971	863.400024414063
716.067759073357	862.599975585938
716.799869849816	861.799987792969
717.531889533281	864
718.263818131673	864.400024414063
718.995655652917	865.200012207031
719.727402104934	863.200012207031
720.45905749565	864
721.19062183299	862.799987792969
721.922095124877	863.400024414063
722.653477379231	863.400024414063
723.384768603973	863.200012207031
724.11596880703	863.799987792969
724.847077996319	863.400024414063
725.578096179762	864.400024414063
726.309023365281	864.200012207031
727.039859560792	863.799987792969
727.770604774222	863.400024414063
728.501259013484	863.200012207031
729.231822286501	863.200012207031
729.962294601191	862.599975585938
730.692675965469	863.599975585938
731.42296638726	864.799987792969
732.153165874472	862.200012207031
732.883274435032	862.200012207031
733.613292076851	863.400024414063
734.343218807843	864
735.07305463593	864.400024414063
735.802799569028	864.400024414063
736.532453615048	864
737.262016781904	864
737.991489077517	865
738.720870509794	864.599975585938
739.450161086654	862
740.179360816009	864.400024414063
740.908469705772	863.599975585938
741.637487763854	865.400024414063
742.366414998168	863.599975585938
743.095251416623	863.200012207031
743.823997027137	862
744.552651837618	865.799987792969
745.281215855978	863.200012207031
746.009689090124	864.599975585938
746.738071547964	863.400024414063
747.466363237419	863
748.194564166384	863
748.92267434278	863.799987792969
749.650693774504	863.400024414063
750.378622469476	863
751.106460435596	864.400024414063
751.834207680771	863.799987792969
752.561864212909	863
753.289430039919	862.799987792969
754.016905169707	864.200012207031
754.744289610175	863.599975585938
755.471583369231	863.599975585938
756.198786454782	864.799987792969
756.925898874728	862
757.652920636979	862.799987792969
758.379851749433	863.200012207031
759.106692219996	863.400024414063
759.833442056572	862.400024414063
760.560101267063	863.799987792969
761.28666985937	862.400024414063
762.0131478414	863.599975585938
762.739535221046	863.200012207031
763.465832006219	864.400024414063
764.192038204812	864.799987792969
764.918153824731	864.799987792969
765.644178873872	864.599975585938
766.370113360138	865
767.095957291425	866.200012207031
767.821710675635	863.799987792969
768.547373520665	865
769.272945834415	865
769.998427624781	865.799987792969
770.723818899658	864.599975585938
771.449119666949	865.799987792969
772.174329934546	864.799987792969
772.899449710347	864.400024414063
773.624479002248	866.200012207031
774.349417818145	865.200012207031
775.074266165934	866.200012207031
775.799024053505	864
776.523691488757	865.599975585938
777.248268479582	864
777.972755033877	864.799987792969
778.69715115953	864.599975585938
779.421456864441	863.599975585938
780.145672156493	863.799987792969
780.869797043587	865.599975585938
781.593831533611	864.400024414063
782.317775634457	866.599975585938
783.041629354012	866.200012207031
783.765392700174	864.400024414063
784.489065680828	863.599975585938
785.212648303866	863.400024414063
785.936140577177	863.599975585938
786.659542508652	864.400024414063
787.382854106174	864
788.106075377639	865
788.829206330928	864
789.552246973933	863.200012207031
790.275197314542	863.799987792969
790.998057360638	865
791.720827120108	864.400024414063
792.443506600841	864.200012207031
793.166095810722	865.400024414063
793.888594757635	864
794.611003449465	866.400024414063
795.333321894098	865.599975585938
796.055550099417	865
796.777688073308	865.599975585938
797.499735823654	864.200012207031
798.221693358334	863.799987792969
798.943560685235	865.599975585938
799.665337812239	863.799987792969
800.387024747226	866.200012207031
801.108621498075	867
801.830128072674	865
802.551544478902	866
803.272870724636	864.599975585938
803.994106817761	866.599975585938
804.715252766148	865.200012207031
805.436308577687	865.400024414063
806.157274260251	866
806.878149821721	866.599975585938
807.598935269973	866.200012207031
808.319630612886	865.799987792969
809.040235858336	864
809.760751014202	866.200012207031
810.481176088361	864.799987792969
811.201511088685	864.799987792969
811.921756023059	863.599975585938
812.641910899347	867
813.361975725432	862.799987792969
814.081950509188	863.599975585938
814.801835258489	863.599975585938
815.521629981206	864.599975585938
816.241334685218	864.200012207031
816.960949378392	864.799987792969
817.680474068606	864.599975585938
818.399908763731	866.200012207031
819.11925347164	865.799987792969
819.838508200202	866
820.55767295729	864.599975585938
821.276747750778	863.200012207031
821.995732588531	864
822.714627478425	865
823.433432428327	863.400024414063
824.152147446105	864.400024414063
824.870772539632	864.400024414063
825.589307716775	864.799987792969
826.307752985404	865.599975585938
827.026108353378	864.200012207031
827.744373828579	864.599975585938
828.462549418867	863.799987792969
829.180635132107	864.599975585938
829.898630976168	863.599975585938
830.616536958915	865.400024414063
831.334353088218	865.799987792969
832.052079371938	865.799987792969
832.769715817942	864.799987792969
833.487262434092	865.200012207031
834.204719228255	864.200012207031
834.922086208293	863.799987792969
835.639363382073	862.400024414063
836.356550757456	863.599975585938
837.073648342304	864.599975585938
837.790656144484	864.400024414063
838.507574171847	864.599975585938
839.22440243227	864
839.941140933601	865.799987792969
840.657789683706	863.599975585938
841.374348690448	864.400024414063
842.090817961686	865.400024414063
842.807197505276	865.799987792969
843.523487329083	865.599975585938
844.23968744096	864.200012207031
844.955797848771	863.599975585938
845.671818560374	864.599975585938
846.387749583622	864.599975585938
847.103590926378	863.200012207031
847.819342596497	863.599975585938
848.535004601833	865.200012207031
849.25057695025	865
849.966059649598	864
850.681452707735	864
851.396756132513	864.799987792969
852.111969931789	864.799987792969
852.827094113419	866.400024414063
853.542128685257	865.200012207031
854.257073655158	866.599975585938
854.971929030969	865.599975585938
855.686694820551	866.599975585938
856.40137103175	866.200012207031
857.115957672423	866
857.830454750423	866.400024414063
858.544862273597	866.799987792969
859.259180249797	865.799987792969
859.97340868688	866
860.687547592688	865.200012207031
861.401596975075	865.799987792969
862.115556841891	865.400024414063
862.829427200985	868
863.543208060205	864.799987792969
864.256899427402	864.599975585938
864.970501310423	865
865.684013717114	865.599975585938
866.397436655325	864.599975585938
867.110770132901	863.400024414063
867.824014157691	865
868.537168737542	865.599975585938
869.250233880299	865.200012207031
869.963209593803	863.799987792969
870.676095885902	865.200012207031
871.388892764445	864
872.101600237276	863.799987792969
872.814218312233	866.200012207031
873.526746997165	865.400024414063
874.239186299914	865.400024414063
874.951536228323	866.799987792969
875.663796790231	865.599975585938
876.375967993487	867
877.088049845928	866.599975585938
877.8000423554	865.799987792969
878.511945529739	866.799987792969
879.22375937679	865.799987792969
879.935483904388	864.200012207031
880.64711912038	865
881.358665032604	868
882.070121648892	868.400024414063
882.78148897709	865
883.492767025039	865.599975585938
884.203955800571	866.200012207031
884.915055311525	865.599975585938
885.626065565741	868
886.336986571053	866.599975585938
887.047818335298	867.200012207031
887.758560866315	866.400024414063
888.469214171937	867.200012207031
889.179778260005	866.599975585938
889.890253138347	866.599975585938
890.600638814803	866.400024414063
891.310935297204	868.599975585938
892.021142593385	866.799987792969
892.731260711183	866.200012207031
893.441289658429	868
894.15122944295	866.400024414063
894.861080072591	865.200012207031
895.570841555173	866.200012207031
896.280513898534	868.799987792969
896.990097110503	867
897.699591198913	867.200012207031
898.408996171595	865.599975585938
899.118312036375	866.400024414063
899.827538801089	865.799987792969
900.536676473561	867
901.245725061628	866.799987792969
901.954684573109	866.400024414063
902.663555015838	867.599975585938
903.372336397644	866.799987792969
904.081028726351	867.599975585938
904.789632009793	865.799987792969
905.49814625579	867.799987792969
906.20657147217	866
906.914907666765	865.599975585938
907.623154847391	868.200012207031
908.331313021885	867.400024414063
909.039382198064	865.599975585938
909.747362383754	865.599975585938
910.455253586782	866.799987792969
911.163055814972	867.400024414063
911.870769076143	867.599975585938
912.578393378126	866.599975585938
913.285928728738	866.200012207031
913.993375135802	866.200012207031
914.700732607145	867
915.408001150579	864.400024414063
916.115180773937	866.200012207031
916.822271485037	865.400024414063
917.529273291693	865.599975585938
918.236186201733	865.400024414063
918.943010222971	866.599975585938
919.649745363234	866.200012207031
920.356391630333	866.200012207031
921.062949032096	864.200012207031
921.769417576333	865.599975585938
922.475797270864	864.200012207031
923.182088123512	864
923.888290142089	864.799987792969
924.594403334414	865
925.300427708304	870.799987792969
926.006363271572	946
926.712210032039	965.200012207031
927.417967997522	870.799987792969
928.123637175827	866.400024414063
928.829217574776	863.799987792969
929.534709202184	866.400024414063
930.240112065859	866
930.945426173621	864.200012207031
931.650651533283	864
932.355788152653	865.799987792969
933.060836039547	864.599975585938
933.765795201776	864.599975585938
934.470665647153	864.799987792969
935.175447383492	863.200012207031
935.880140418599	863.400024414063
936.584744760286	865.200012207031
937.289260416366	866.200012207031
937.993687394647	864.799987792969
938.698025702939	866.400024414063
939.402275349051	866
940.106436340793	865.400024414063
940.810508685976	865.599975585938
941.5144923924	864.799987792969
942.21838746788	865.400024414063
942.922193920223	865.799987792969
943.625911757231	864.400024414063
944.329540986716	865.799987792969
945.033081616484	864.400024414063
945.736533654334	864.799987792969
946.439897108083	865.400024414063
947.143171985529	866.599975585938
947.846358294477	867.200012207031
948.549456042732	865.200012207031
949.2524652381	866.200012207031
949.955385888382	864.200012207031
950.658218001384	865.599975585938
951.360961584907	865.200012207031
952.063616646755	865.599975585938
952.766183194733	867.200012207031
953.468661236636	864.799987792969
954.171050780271	865.400024414063
954.873351833437	865.599975585938
955.575564403935	866.599975585938
956.277688499565	865.200012207031
956.97972412813	864.799987792969
957.681671297424	866.599975585938
958.383530015255	865.400024414063
959.085300289414	864.200012207031
959.786982127703	865.400024414063
960.488575537918	866.599975585938
961.190080527859	865.400024414063
961.891497105327	864
962.592825278111	865.799987792969
963.294065054012	864.799987792969
963.995216440829	866.200012207031
964.696279446353	865.200012207031
965.397254078383	864
966.098140344714	866.599975585938
966.798938253139	865.400024414063
967.499647811456	863.799987792969
968.200269027458	865.599975585938
968.900801908937	865.799987792969
969.601246463685	864.799987792969
970.3016026995	864
971.001870624169	864.599975585938
971.702050245491	863.400024414063
972.402141571249	864.799987792969
973.102144609245	864.799987792969
973.802059367267	865.200012207031
974.501885853103	863.599975585938
975.201624074541	865.599975585938
975.901274039379	865.200012207031
976.600835755399	865.599975585938
977.3003092304	865
977.999694472158	866.200012207031
978.698991488473	865.400024414063
979.39820028713	863.400024414063
980.097320875915	864.599975585938
980.796353262618	865.599975585938
981.495297455024	865.599975585938
982.194153460919	863.799987792969
982.892921288093	863.200012207031
983.591600944331	864.400024414063
984.290192437419	864.400024414063
984.98869577514	866.599975585938
985.687110965282	865.200012207031
986.385438015629	864.400024414063
987.083676933961	866.400024414063
987.781827728069	865
988.479890405732	863.799987792969
989.177864974732	863.400024414063
989.875751442857	864.400024414063
990.573549817888	864
991.271260107602	863
991.968882319786	864.599975585938
992.666416462217	865.799987792969
993.363862542681	864.599975585938
994.061220568959	864.799987792969
994.758490548823	866
995.455672490061	865.200012207031
996.152766400451	864.799987792969
996.849772287773	864.400024414063
997.5466901598	863.599975585938
998.243520024317	864.599975585938
998.940261889097	865.200012207031
999.636915761923	864.599975585938
1000.33348165057	865
1001.02995956281	863.799987792969
1001.72634950643	863.599975585938
1002.42265148919	864.400024414063
1003.11886551889	865.400024414063
1003.81499160328	865.400024414063
1004.51102975015	864.599975585938
1005.20697996727	865.200012207031
1005.90284226242	863.799987792969
1006.59861664337	864.599975585938
1007.2943031179	865
1007.98990169377	866.400024414063
1008.68541237876	864.400024414063
1009.38083518064	864.599975585938
1010.07617010719	864.799987792969
1010.77141716617	864.599975585938
1011.46657636536	865.400024414063
1012.16164771253	865
1012.85663121546	864.200012207031
1013.5515268819	866.400024414063
1014.24633471963	863.200012207031
1014.94105473642	865.400024414063
1015.63568694004	865.599975585938
1016.33023133826	866.599975585938
1017.02468793885	866.799987792969
1017.71905674957	866.599975585938
1018.41333777819	866.200012207031
1019.10753103249	866.599975585938
1019.80163652022	866.200012207031
1020.49565424916	865.799987792969
1021.18958422707	864.599975585938
1021.88342646171	865.599975585938
1022.57718096085	864.599975585938
1023.27084773227	864.200012207031
1023.96442678371	864.799987792969
1024.65791812296	865.599975585938
1025.35132175776	866.400024414063
1026.04463769589	866.200012207031
1026.73786594511	866.599975585938
1027.43100651318	867
1028.12405940786	867.400024414063
1028.81702463692	867
1029.50990220812	866.799987792969
1030.20269212921	867.599975585938
1030.89539440798	866.200012207031
1031.58800905216	867.200012207031
1032.28053606952	867
1032.97297546784	867.599975585938
1033.66532725485	867.799987792969
1034.35759143832	867.599975585938
1035.04976802602	867.799987792969
1035.7418570257	869.599975585938
1036.43385844511	868
1037.12577229202	866.200012207031
1037.81759857419	867
1038.50933729937	866.799987792969
1039.20098847531	865.200012207031
1039.89255210978	867.799987792969
1040.58402821053	868.200012207031
1041.27541678532	867.200012207031
1041.96671784191	868.599975585938
1042.65793138804	867.400024414063
1043.34905743147	866.400024414063
1044.04009597996	866.599975585938
1044.73104704125	865.599975585938
1045.42191062312	867.200012207031
1046.1126867333	867.400024414063
1046.80337537955	865
1047.49397656962	865.400024414063
1048.18449031127	865.400024414063
1048.87491661225	865.200012207031
1049.5652554803	865.200012207031
1050.25550692319	867.200012207031
1050.94567094865	865.200012207031
1051.63574756444	864.400024414063
1052.32573677832	866.200012207031
1053.01563859803	864.400024414063
1053.70545303131	866.200012207031
1054.39518008592	867.200012207031
1055.08481976961	865.200012207031
1055.77437209013	867.200012207031
1056.46383705522	867.400024414063
1057.15321467262	866.200012207031
1057.8425049501	866.799987792969
1058.53170789539	866.400024414063
1059.22082351624	866
1059.9098518204	865.599975585938
1060.59879281561	864
1061.28764650962	866
1061.97641291016	865.200012207031
1062.665092025	864.599975585938
1063.35368386187	865
1064.04218842851	865.799987792969
1064.73060573268	865.799987792969
1065.4189357821	866.400024414063
1066.10717858452	866.599975585938
1066.7953341477	867.200012207031
1067.48340247936	866
1068.17138358725	865.400024414063
1068.85927747912	866.200012207031
1069.5470841627	866.799987792969
1070.23480364573	865.799987792969
1070.92243593595	867
1071.60998104111	867.200012207031
1072.29743896894	866.200012207031
1072.98480972718	865.599975585938
1073.67209332357	867
1074.35928976585	866.599975585938
1075.04639906176	867
1075.73342121903	866.799987792969
1076.42035624541	866
1077.10720414862	868.200012207031
1077.79396493641	864.200012207031
1078.48063861651	867
1079.16722519666	866
1079.85372468459	865.200012207031
1080.54013708804	866
1081.22646241474	865.400024414063
1081.91270067243	865
1082.59885186884	864
1083.28491601171	865.599975585938
1083.97089310877	864.799987792969
1084.65678316774	865.799987792969
1085.34258619637	864
1086.02830220239	865
1086.71393119352	864.599975585938
1087.39947317751	864.799987792969
1088.08492816207	864.799987792969
1088.77029615495	865
1089.45557716387	864.400024414063
1090.14077119656	863.799987792969
1090.82587826075	864.799987792969
1091.51089836417	863.400024414063
1092.19583151456	865.200012207031
1092.88067771963	864.599975585938
1093.56543698712	865
1094.25010932475	864.599975585938
1094.93469474026	864.599975585938
1095.61919324137	864.400024414063
1096.3036048358	864
1096.98792953129	863.799987792969
1097.67216733555	864.599975585938
1098.35631825632	865.799987792969
1099.04038230132	865.799987792969
1099.72435947828	864.799987792969
1100.40824979492	866
1101.09205325895	866.799987792969
1101.77576987812	865.400024414063
1102.45939966014	866.400024414063
1103.14294261273	865
1103.82639874362	864.599975585938
1104.50976806054	866.599975585938
1105.19305057119	865.200012207031
1105.87624628331	865.200012207031
1106.55935520461	866.400024414063
1107.24237734283	866.400024414063
1107.92531270566	866.400024414063
1108.60816130085	866.200012207031
1109.2909231361	866.599975585938
1109.97359821914	866.599975585938
1110.65618655768	865.799987792969
1111.33868815946	865.599975585938
1112.02110303217	867.200012207031
1112.70343118355	865.400024414063
1113.3856726213	866.599975585938
1114.06782735316	866.200012207031
1114.74989538683	865.799987792969
1115.43187673002	865
1116.11377139047	865.599975585938
1116.79557937588	867.400024414063
1117.47730069397	865.400024414063
1118.15893535245	867
1118.84048335904	868.200012207031
1119.52194472146	866
1120.20331944741	867
1120.88460754462	866.799987792969
1121.56580902079	866.400024414063
1122.24692388364	867.400024414063
1122.92795214088	867
1123.60889380022	866.400024414063
1124.28974886938	868.400024414063
1124.97051735606	867.799987792969
1125.65119926799	869
1126.33179461286	869
1127.0123033984	867.400024414063
1127.6927256323	867.599975585938
1128.37306132229	866.599975585938
1129.05331047606	867.599975585938
1129.73347310134	866.400024414063
1130.41354920582	865.599975585938
1131.09353879722	867.799987792969
1131.77344188324	866
1132.45325847159	866.799987792969
1133.13298856999	866.200012207031
1133.81263218612	868.400024414063
1134.49218932772	867.599975585938
1135.17166000247	868.599975585938
1135.85104421809	867.599975585938
1136.53034198227	867
1137.20955330274	866.400024414063
1137.88867818718	867.400024414063
1138.56771664331	868.200012207031
1139.24666867883	868.400024414063
1139.92553430144	867
1140.60431351885	867.200012207031
1141.28300633876	866
1141.96161276887	866.400024414063
1142.64013281689	867.799987792969
1143.31856649051	866.599975585938
1143.99691379744	865.599975585938
1144.67517474538	865.400024414063
1145.35334934203	867.400024414063
1146.03143759509	867.799987792969
1146.70943951226	866.799987792969
1147.38735510125	868.400024414063
1148.06518436974	865.400024414063
1148.74292732545	867.599975585938
1149.42058397606	868.599975585938
1150.09815432928	866.599975585938
1150.7756383928	869.200012207031
1151.45303617432	868.799987792969
1152.13034768155	866
1152.80757292217	868.799987792969
1153.48471190389	868.200012207031
1154.16176463439	869.200012207031
1154.83873112138	867.599975585938
1155.51561137255	867.799987792969
1156.1924053956	869.200012207031
1156.86911319822	867.799987792969
1157.5457347881	867
1158.22227017294	868
1158.89871936044	868.200012207031
1159.57508235828	866.599975585938
1160.25135917416	867.400024414063
1160.92754981578	866.400024414063
1161.60365429081	867.599975585938
1162.27967260697	867.599975585938
1162.95560477193	866.400024414063
1163.63145079339	866.200012207031
1164.30721067904	866.200012207031
1164.98288443657	865.799987792969
1165.65847207367	868
1166.33397359803	868.799987792969
1167.00938901735	867.200012207031
1167.6847183393	866.400024414063
1168.35996157157	866.799987792969
1169.03511872187	866.599975585938
1169.71018979787	866.799987792969
1170.38517480726	865.799987792969
1171.06007375773	866.799987792969
1171.73488665696	865.599975585938
1172.40961351265	865.200012207031
1173.08425433247	865.799987792969
1173.75880912412	865.799987792969
1174.43327789528	866.200012207031
1175.10766065364	866.200012207031
1175.78195740687	866.200012207031
1176.45616816267	866.400024414063
1177.13029292871	867.200012207031
1177.80433171269	866.200012207031
1178.47828452229	866.599975585938
1179.15215136518	866.200012207031
1179.82593224905	865
1180.49962718159	865.599975585938
1181.17323617047	866.200012207031
1181.84675922337	866.400024414063
1182.52019634799	866.400024414063
1183.193547552	866.200012207031
1183.86681284307	866.799987792969
1184.53999222889	866.599975585938
1185.21308571714	866
1185.8860933155	866
1186.55901503165	865
1187.23185087326	867
1187.90460084802	867.200012207031
1188.5772649636	865
1189.24984322768	866.400024414063
1189.92233564794	867
1190.59474223206	865.599975585938
1191.2670629877	867.599975585938
1191.93929792255	865.400024414063
1192.61144704428	866.799987792969
1193.28351036058	865.400024414063
1193.9554878791	865
1194.62737960754	866.799987792969
1195.29918555356	866.799987792969
1195.97090572483	867.400024414063
1196.64254012903	866.400024414063
1197.31408877384	866
1197.98555166693	865.599975585938
1198.65692881596	866.200012207031
1199.32822022862	865.200012207031
1199.99942591256	866
1200.67054587548	866
1201.34158012503	866.400024414063
1202.01252866889	865.400024414063
1202.68339151473	865.599975585938
1203.35416867021	866.599975585938
1204.02486014301	866.799987792969
1204.6954659408	865.599975585938
1205.36598607124	867
1206.03642054201	868
1206.70676936078	865.400024414063
1207.3770325352	867.200012207031
1208.04721007295	867.599975585938
1208.7173019817	867.200012207031
1209.38730826911	867
1210.05722894285	865
1210.72706401059	866.799987792969
1211.39681347999	867.599975585938
1212.06647735872	865.200012207031
1212.73605565444	867.200012207031
1213.40554837481	867.599975585938
1214.07495552751	867.400024414063
1214.74427712019	865.400024414063
1215.41351316052	867.200012207031
1216.08266365617	866.799987792969
1216.75172861479	867.200012207031
1217.42070804405	867.400024414063
1218.0896019516	867.799987792969
1218.75841034513	866.200012207031
1219.42713323227	867
1220.0957706207	867.799987792969
1220.76432251808	869.200012207031
1221.43278893207	868.400024414063
1222.10116987032	869.599975585938
1222.7694653405	866.799987792969
1223.43767535026	868.599975585938
1224.10579990727	866.400024414063
1224.77383901918	869
1225.44179269366	868.599975585938
1226.10966093835	868
1226.77744376093	868
1227.44514116904	867.400024414063
1228.11275317034	867
1228.78027977249	867.799987792969
1229.44772098315	868.400024414063
1230.11507680996	867.200012207031
1230.7823472606	868
1231.44953234271	867.799987792969
1232.11663206394	868
1232.78364643195	865.799987792969
1233.4505754544	867.599975585938
1234.11741913894	867
1234.78417749322	867
1235.45085052489	869
1236.11743824162	866.599975585938
1236.78394065104	867.200012207031
1237.45035776082	868.200012207031
1238.1166895786	867.400024414063
1238.78293611204	867.400024414063
1239.44909736878	865
1240.11517335648	867
1240.78116408279	868.400024414063
1241.44706955535	868.400024414063
1242.11288978182	867.200012207031
1242.77862476985	865.400024414063
1243.44427452708	865.799987792969
1244.10983906116	866.200012207031
1244.77531837974	865
1245.44071249047	865.200012207031
1246.106021401	867.400024414063
1246.77124511898	866.200012207031
1247.43638365204	866.799987792969
1248.10143700783	867.200012207031
1248.76640519401	868
1249.43128821822	868.799987792969
1250.0960860881	868.799987792969
1250.76079881129	866.599975585938
1251.42542639545	866.799987792969
1252.08996884822	867.599975585938
1252.75442617723	866.799987792969
1253.41879839014	868
1254.08308549458	867.799987792969
1254.74728749821	866.799987792969
1255.41140440866	866.400024414063
1256.07543623357	867.200012207031
1256.73938298059	867.400024414063
1257.40324465735	869.400024414063
1258.0670212715	868.799987792969
1258.73071283068	867.799987792969
1259.39431934253	868.200012207031
1260.05784081468	865.599975585938
1260.72127725479	865.599975585938
1261.38462867049	866.599975585938
1262.0478950694	868.599975585938
1262.71107645919	866
1263.37417284748	868.400024414063
1264.03718424191	866.599975585938
1264.70011065011	866.400024414063
1265.36295207974	866.200012207031
1266.02570853841	866.400024414063
1266.68838003378	867
1267.35096657346	866.200012207031
1268.01346816511	866.799987792969
1268.67588481636	866.599975585938
1269.33821653483	866.799987792969
1270.00046332817	867.200012207031
1270.66262520401	868
1271.32470216998	867.200012207031
1271.98669423372	865.799987792969
1272.64860140285	868.200012207031
1273.31042368503	868.200012207031
1273.97216108786	867.599975585938
1274.633813619	866.599975585938
1275.29538128606	866
1275.95686409669	869
1276.6182620585	866.200012207031
1277.27957517914	869.799987792969
1277.94080346624	868
1278.60194692741	866.799987792969
1279.2630055703	868.599975585938
1279.92397940253	866.200012207031
1280.58486843173	867.599975585938
1281.24567266552	868
1281.90639211155	866.200012207031
1282.56702677743	866.599975585938
1283.2275766708	867.799987792969
1283.88804179927	867.200012207031
1284.54842217049	867.799987792969
1285.20871779206	868.599975585938
1285.86892867163	867.400024414063
1286.52905481681	869
1287.18909623523	866.799987792969
1287.84905293452	867.599975585938
1288.5089249223	866.799987792969
1289.16871220619	867.599975585938
1289.82841479383	868
1290.48803269282	868.799987792969
1291.1475659108	868
1291.80701445539	867.400024414063
1292.46637833421	867.200012207031
1293.12565755489	866
1293.78485212504	869.200012207031
1294.44396205229	871
1295.10298734425	868.400024414063
1295.76192800856	869
1296.42078405283	870.799987792969
1297.07955548467	867.400024414063
1297.73824231171	869.599975585938
1298.39684454158	870.599975585938
1299.05536218188	868
1299.71379524023	869.799987792969
1300.37214372427	868
1301.03040764159	868.200012207031
1301.68858699983	868
1302.34668180659	869.400024414063
1303.0046920695	869
1303.66261779617	868.599975585938
1304.32045899422	870.200012207031
1304.97821567126	871.599975585938
1305.63588783492	870.400024414063
1306.29347549279	869.200012207031
1306.95097865251	870.799987792969
1307.60839732168	869.799987792969
1308.26573150791	869.400024414063
1308.92298121883	868
1309.58014646204	866.799987792969
1310.23722724517	869
1310.89422357581	868.200012207031
1311.55113546158	869.799987792969
1312.2079629101	871.200012207031
1312.86470592898	871.200012207031
1313.52136452582	868
1314.17793870824	871.200012207031
1314.83442848386	871.799987792969
1315.49083386027	869.400024414063
1316.14715484509	868.799987792969
1316.80339144594	870.400024414063
1317.45954367041	869.200012207031
1318.11561152611	870
1318.77159502067	868.200012207031
1319.42749416168	870.599975585938
1320.08330895674	871.599975585938
1320.73903941348	870.599975585938
1321.3946855395	871
1322.0502473424	870.799987792969
1322.70572482978	868.400024414063
1323.36111800926	870
1324.01642688845	869.599975585938
1324.67165147494	869.799987792969
1325.32679177634	869
1325.98184780025	869
1326.63681955429	870.200012207031
1327.29170704605	870.400024414063
1327.94651028314	870.400024414063
1328.60122927316	868.400024414063
1329.25586402371	870
1329.9104145424	870
1330.56488083683	870
1331.2192629146	868.799987792969
1331.87356078331	871.200012207031
1332.52777445056	871
1333.18190392395	872.200012207031
1333.83594921109	868.599975585938
1334.48991031958	871.200012207031
1335.143787257	870.599975585938
1335.79758003097	871.200012207031
1336.45128864908	870.599975585938
1337.10491311893	870.400024414063
1337.75845344813	871.400024414063
1338.41190964425	868
1339.06528171491	871.200012207031
1339.71856966771	869
1340.37177351023	869.599975585938
1341.02489325007	868.400024414063
1341.67792889484	868.799987792969
1342.33088045212	869
1342.98374792952	869.599975585938
1343.63653133462	868.599975585938
1344.28923067503	869.799987792969
1344.94184595833	869.799987792969
1345.59437719212	871.200012207031
1346.246824384	870.799987792969
1346.89918754155	869.599975585938
1347.55146667238	870
1348.20366178407	869.799987792969
1348.85577288421	872
1349.50779998041	869.599975585938
1350.15974308024	870.400024414063
1350.8116021913	869.799987792969
1351.46337732119	871.599975585938
1352.11506847748	868.400024414063
1352.76667566778	871.200012207031
1353.41819889967	871.200012207031
1354.06963818074	871.599975585938
1354.72099351858	869
1355.37226492079	868.200012207031
1356.02345239494	868.400024414063
1356.67455594862	869
1357.32557558943	870.200012207031
1357.97651132496	870.599975585938
1358.62736316277	869.200012207031
1359.27813111048	871
1359.92881517565	872.200012207031
1360.57941536589	870.599975585938
1361.22993168876	870.599975585938
1361.88036415186	871.599975585938
1362.53071276278	871.799987792969
1363.1809775291	870.400024414063
1363.8311584584	871.799987792969
1364.48125555826	871
1365.13126883627	871
1365.78119830001	869.200012207031
1366.43104395707	869.400024414063
1367.08080581503	869.599975585938
1367.73048388147	871.599975585938
1368.38007816397	871
1369.02958867011	870.200012207031
1369.67901540748	870.599975585938
1370.32835838365	870.200012207031
1370.9776176062	868.599975585938
1371.62679308273	869.200012207031
1372.27588482079	870.799987792969
1372.92489282798	871.200012207031
1373.57381711188	872.599975585938
1374.22265768006	871
1374.87141454009	870.200012207031
1375.52008769957	869.799987792969
1376.16867716606	869
1376.81718294715	871.799987792969
1377.4656050504	871.200012207031
1378.1139434834	870.599975585938
1378.76219825373	872.200012207031
1379.41036936895	871.799987792969
1380.05845683664	872.799987792969
1380.70646066439	871
1381.35438085976	872
1382.00221743032	872
1382.64997038366	871.400024414063
1383.29763972735	873.200012207031
1383.94522546895	874
1384.59272761605	873.799987792969
1385.24014617621	872.799987792969
1385.88748115701	873
1386.53473256602	874
1387.18190041081	873.799987792969
1387.82898469895	873.200012207031
1388.47598543802	872.799987792969
1389.12290263558	872.599975585938
1389.7697362992	873.599975585938
1390.41648643646	873.200012207031
1391.06315305492	873.200012207031
1391.70973616215	874.400024414063
1392.35623576573	873.400024414063
1393.00265187321	873.200012207031
1393.64898449217	873.599975585938
1394.29523363018	875
1394.94139929481	873.799987792969
1395.58748149361	872.599975585938
1396.23348023415	872.200012207031
1396.87939552402	871.799987792969
1397.52522737076	873.400024414063
1398.17097578195	873
1398.81664076514	873.599975585938
1399.46222232792	872.799987792969
1400.10772047783	874.200012207031
1400.75313522245	871.400024414063
1401.39846656934	873.200012207031
1402.04371452605	872
1402.68887910016	874.200012207031
1403.33396029924	873.200012207031
1403.97895813083	873
1404.6238726025	874
1405.26870372182	875
1405.91345149634	871.200012207031
1406.55811593363	871.599975585938
1407.20269704125	872.400024414063
1407.84719482676	870.400024414063
1408.49160929772	873.599975585938
1409.13594046168	871.200012207031
1409.78018832622	870.599975585938
1410.42435289887	872
1411.06843418722	873.799987792969
1411.7124321988	872.799987792969
1412.3563469412	872.400024414063
1413.00017842194	871.799987792969
1413.64392664861	875
1414.28759162875	873
1414.93117336992	874.400024414063
1415.57467187967	874.200012207031
1416.21808716557	873.799987792969
1416.86141923516	872.799987792969
1417.50466809601	873.599975585938
1418.14783375567	873.599975585938
1418.79091622169	872.799987792969
1419.43391550162	874.200012207031
1420.07683160303	873.799987792969
1420.71966453346	876.599975585938
1421.36241430046	877.400024414063
1422.0050809116	873
1422.64766437442	877
1423.29016469647	876.400024414063
1423.93258188531	877.400024414063
1424.57491594848	877.599975585938
1425.21716689354	876.799987792969
1425.85933472805	876.400024414063
1426.50141945954	876.200012207031
1427.14342109557	876.599975585938
1427.78533964369	878.200012207031
1428.42717511144	878
1429.06892750639	877.400024414063
1429.71059683607	877
1430.35218310803	874.400024414063
1430.99368632983	877
1431.635106509	876.599975585938
1432.2764436531	874.799987792969
1432.91769776967	874.599975585938
1433.55886886627	876.400024414063
1434.19995695043	878.400024414063
1434.84096202969	878
1435.48188411162	875.799987792969
1436.12272320375	876
1436.76347931363	877.400024414063
1437.40415244879	877.599975585938
1438.0447426168	879.799987792969
1438.68524982518	876.400024414063
1439.32567408148	876.599975585938
1439.96601539325	875.799987792969
1440.60627376803	876.599975585938
1441.24644921336	875
1441.88654173678	877.400024414063
1442.52655134583	876.599975585938
1443.16647804806	876.200012207031
1443.806321851	876
1444.4460827622	875.400024414063
1445.0857607892	874.799987792969
1445.72535593953	875.400024414063
1446.36486822074	875
1447.00429764037	876.599975585938
1447.64364420595	876.799987792969
1448.28290792502	876.799987792969
1448.92208880512	875.400024414063
1449.56118685379	876.200012207031
1450.20020207857	876.200012207031
1450.83913448699	875.200012207031
1451.47798408659	876.799987792969
1452.1167508849	875
1452.75543488947	875
1453.39403610782	875.799987792969
1454.0325545475	874.799987792969
1454.67099021603	873.200012207031
1455.30934312097	876.799987792969
1455.94761326982	874.200012207031
1456.58580067014	874.799987792969
1457.22390532945	874.599975585938
1457.86192725529	871.799987792969
1458.49986645519	872
1459.13772293668	871.799987792969
1459.7754967073	873.799987792969
1460.41318777457	873.599975585938
1461.05079614604	871.799987792969
1461.68832182922	872
1462.32576483166	874.599975585938
1462.96312516087	871.799987792969
1463.6004028244	871
1464.23759782977	870.799987792969
1464.8747101845	871.799987792969
1465.51173989614	873.599975585938
1466.14868697221	871.799987792969
1466.78555142024	870.200012207031
1467.42233324774	872.599975585938
1468.05903246227	874
1468.69564907133	872.400024414063
1469.33218308246	873.200012207031
1469.96863450317	872
1470.60500334102	872.400024414063
1471.2412896035	873.799987792969
1471.87749329816	872.799987792969
1472.51361443251	870.799987792969
1473.14965301409	874
1473.78560905041	873.400024414063
1474.421482549	871.599975585938
1475.05727351739	871.599975585938
1475.69298196309	871.599975585938
1476.32860789364	872.599975585938
1476.96415131654	871.799987792969
1477.59961223934	873
1478.23499066954	871
1478.87028661467	872.200012207031
1479.50550008226	872.400024414063
1480.14063107981	872
1480.77567961486	872.200012207031
1481.41064569492	870.400024414063
1482.04552932752	871.599975585938
1482.68033052017	870.799987792969
1483.31504928039	872.400024414063
1483.9496856157	874.200012207031
1484.58423953363	873
1485.21871104168	871.400024414063
1485.85310014738	874.200012207031
1486.48740685824	872.200012207031
1487.12163118178	873.400024414063
1487.75577312553	871.599975585938
1488.38983269698	871.799987792969
1489.02380990367	873
1489.65770475311	870.799987792969
1490.29151725281	871.599975585938
1490.92524741029	871.400024414063
1491.55889523306	871.400024414063
1492.19246072863	874
1492.82594390453	872.599975585938
1493.45934476826	869.599975585938
1494.09266332734	869.599975585938
1494.72589958928	872.200012207031
1495.3590535616	871.200012207031
1495.99212525181	869.799987792969
1496.62511466741	870.200012207031
1497.25802181592	870.599975585938
1497.89084670485	871.200012207031
1498.52358934172	871.400024414063
1499.15624973403	873.400024414063
1499.7888278893	872.400024414063
1500.42132381503	871.599975585938
1501.05373751873	872.400024414063
1501.68606900792	873
1502.31831829009	871.599975585938
1502.95048537277	870.400024414063
1503.58257026346	871.400024414063
1504.21457296966	872
1504.84649349889	872
1505.47833185864	870.799987792969
1506.11008805644	871.599975585938
1506.74176209978	870.400024414063
1507.37335399617	870.799987792969
1508.00486375312	870.599975585938
1508.63629137813	871
1509.2676368787	871
1509.89890026235	871.799987792969
1510.53008153658	870.599975585938
1511.16118070889	870.799987792969
1511.79219778677	868
1512.42313277775	870.799987792969
1513.05398568932	869.200012207031
1513.68475652898	872
1514.31544530424	871
1514.9460520226	869.799987792969
1515.57657669155	870.200012207031
1516.20701931861	871
1516.83737991127	872
1517.46765847702	869.799987792969
1518.09785502339	870.599975585938
1518.72796955785	870.799987792969
1519.35800208792	870.200012207031
1519.98795262109	871.599975585938
1520.61782116486	871
1521.24760772673	868.799987792969
1521.87731231419	870
1522.50693493475	873
1523.1364755959	871.799987792969
1523.76593430514	870.799987792969
1524.39531106997	871.400024414063
1525.02460589788	871
1525.65381879637	871
1526.28294977293	869.799987792969
1526.91199883507	870.599975585938
1527.54096599027	868.200012207031
1528.16985124603	870.400024414063
1528.79865460984	869.599975585938
1529.4273760892	867.799987792969
1530.05601569161	868.599975585938
1530.68457342455	869.599975585938
1531.31304929552	868.200012207031
1531.94144331201	867.799987792969
1532.56975548151	867.799987792969
1533.19798581152	867.799987792969
1533.82613430953	868.400024414063
1534.45420098302	868
1535.08218583949	868.599975585938
1535.71008888643	867.599975585938
1536.33791013134	868.200012207031
1536.96564958169	867.799987792969
1537.59330724498	867.799987792969
1538.22088312871	868.200012207031
1538.84837724034	865.799987792969
1539.47578958739	867.599975585938
1540.10312017733	866.599975585938
1540.73036901765	867.599975585938
1541.35753611584	867.599975585938
1541.98462147939	867.599975585938
1542.61162511578	867.799987792969
1543.2385470325	867.400024414063
1543.86538723704	868
1544.49214573688	868.200012207031
1545.11882253951	867.599975585938
1545.74541765241	868.400024414063
1546.37193108306	867.599975585938
1546.99836283896	867.799987792969
1547.62471292758	868.599975585938
1548.25098135641	867.400024414063
1548.87716813294	868.799987792969
1549.50327326464	868
1550.12929675899	867.400024414063
1550.75523862349	868.599975585938
1551.38109886561	867.400024414063
1552.00687749284	868.799987792969
1552.63257451264	866.400024414063
1553.25818993252	868
1553.88372375994	868.400024414063
1554.50917600239	866.799987792969
1555.13454666734	866.799987792969
1555.75983576228	867
1556.38504329469	867.400024414063
1557.01016927204	866.400024414063
1557.63521370181	866.599975585938
1558.26017659149	865.200012207031
1558.88505794854	868.400024414063
1559.50985778045	868
1560.13457609469	867.799987792969
1560.75921289874	867.599975585938
1561.38376820008	866
1562.00824200618	866.799987792969
1562.63263432452	867
1563.25694516257	868.400024414063
1563.88117452781	867.200012207031
1564.50532242772	867.200012207031
1565.12938886976	867.200012207031
1565.75337386141	868
1566.37727741015	868.799987792969
1567.00109952345	867.400024414063
1567.62484020878	868.799987792969
1568.24849947361	866.799987792969
1568.87207732542	864.799987792969
1569.49557377168	866.799987792969
1570.11898881986	868.599975585938
1570.74232247743	866.200012207031
1571.36557475186	868.400024414063
1571.98874565062	867.400024414063
1572.61183518119	865.799987792969
1573.23484335103	867.400024414063
1573.85777016761	867.799987792969
1574.4806156384	868.200012207031
1575.10337977088	867.200012207031
1575.7260625725	868
1576.34866405074	868
1576.97118421306	866.799987792969
1577.59362306694	866.599975585938
1578.21598061984	866.799987792969
1578.83825687922	866.400024414063
1579.46045185255	866.400024414063
1580.08256554731	868
1580.70459797094	865.799987792969
1581.32654913093	866.400024414063
1581.94841903473	869.400024414063
1582.57020768981	866.599975585938
1583.19191510364	867.599975585938
1583.81354128367	866.799987792969
1584.43508623737	867.799987792969
1585.05654997221	867.599975585938
1585.67793249564	867.599975585938
1586.29923381514	868.799987792969
1586.92045393815	866.799987792969
1587.54159287216	868.799987792969
1588.1626506246	870.200012207031
1588.78362720296	868.799987792969
1589.40452261468	867.799987792969
1590.02533686724	867.400024414063
1590.64606996808	867.599975585938
1591.26672192467	868
1591.88729274447	866.599975585938
1592.50778243493	868.200012207031
1593.12819100352	868.799987792969
1593.7485184577	866.599975585938
1594.36876480492	868.599975585938
1594.98893005264	866
1595.60901420832	867.599975585938
1596.22901727941	869.200012207031
1596.84893927338	868.400024414063
1597.46878019767	869.400024414063
1598.08854005975	869.200012207031
1598.70821886707	868.799987792969
1599.32781662708	868.799987792969
1599.94733334725	866.599975585938
1600.56676903502	868.400024414063
1601.18612369785	869.599975585938
1601.8053973432	871
1602.42458997851	869.400024414063
1603.04370161124	867.400024414063
1603.66273224884	869.200012207031
1604.28168189878	869.599975585938
1604.90055056849	870.599975585938
1605.51933826543	869.599975585938
1606.13804499705	870.200012207031
1606.75667077081	870.400024414063
1607.37521559415	871.200012207031
1607.99367947452	872.599975585938
1608.61206241938	870
1609.23036443618	870.799987792969
1609.84858553236	872.599975585938
1610.46672571537	870.400024414063
1611.08478499267	870.200012207031
1611.7027633717	871.599975585938
1612.3206608599	870.599975585938
1612.93847746473	872.400024414063
1613.55621319364	873.400024414063
1614.17386805407	871.400024414063
1614.79144205347	873.200012207031
1615.40893519928	874.200012207031
1616.02634749895	875.200012207031
1616.64367895993	876.400024414063
1617.26092958966	873.799987792969
1617.87809939559	875.799987792969
1618.49518838516	876.799987792969
1619.11219656582	877.400024414063
1619.729123945	877.799987792969
1620.34597053016	879.400024414063
1620.96273632874	880
1621.57942134818	878.799987792969
1622.19602559592	880.599975585938
1622.8125490794	879.799987792969
1623.42899180607	880.200012207031
1624.04535378337	882
1624.66163501874	883.599975585938
1625.27783551963	881.799987792969
1625.89395529346	883.400024414063
1626.50999434768	880
1627.12595268974	881.400024414063
1627.74183032707	881.400024414063
1628.3576272671	878.200012207031
1628.97334351729	877.799987792969
1629.58897908506	878.799987792969
1630.20453397786	877.599975585938
1630.82000820313	874
1631.43540176829	874.200012207031
1632.05071468079	874.599975585938
1632.66594694807	873.799987792969
1633.28109857756	873.200012207031
1633.8961695767	870.799987792969
1634.51115995292	872
1635.12606971366	870.599975585938
1635.74089886636	868.400024414063
1636.35564741844	871
1636.97031537734	869
1637.58490275051	868.400024414063
1638.19940954536	868.200012207031
1638.81383576934	867.400024414063
1639.42818142987	867.599975585938
1640.0424465344	866.200012207031
1640.65663109034	866.599975585938
1641.27073510515	866.799987792969
1641.88475858623	865.799987792969
1642.49870154104	866.400024414063
1643.11256397699	867
1643.72634590152	868
1644.34004732206	865.799987792969
1644.95366824604	865
1645.56720868089	863.799987792969
1646.18066863404	864.599975585938
1646.79404811291	865
1647.40734712494	866.400024414063
1648.02056567755	864.400024414063
1648.63370377817	866.200012207031
1649.24676143423	865
1649.85973865316	864.599975585938
1650.47263544238	866
1651.08545180932	865.799987792969
1651.6981877614	865.799987792969
1652.31084330606	866.200012207031
1652.92341845071	864.599975585938
1653.53591320278	864.599975585938
1654.1483275697	863.200012207031
1654.7606615589	865.799987792969
1655.37291517778	866
1655.98508843379	865.599975585938
1656.59718133434	865.599975585938
1657.20919388685	864
1657.82112609875	864.200012207031
1658.43297797747	865.200012207031
1659.04474953041	865.599975585938
1659.65644076501	866
1660.26805168869	864.200012207031
1660.87958230886	866.799987792969
1661.49103263294	865
1662.10240266837	864.799987792969
1662.71369242255	865.400024414063
1663.32490190291	864.400024414063
1663.93603111687	865.599975585938
1664.54708007184	865.400024414063
1665.15804877524	865.200012207031
1665.7689372345	863.200012207031
1666.37974545703	863.599975585938
1666.99047345024	865.400024414063
1667.60112122156	864.200012207031
1668.2116887784	864.799987792969
1668.82217612818	864.200012207031
1669.43258327831	864.599975585938
1670.04291023622	863.400024414063
1670.65315700931	862.400024414063
1671.263323605	862.799987792969
1671.8734100307	865
1672.48341629384	863.599975585938
1673.09334240182	862.599975585938
1673.70318836206	863.400024414063
1674.31295418197	865.200012207031
1674.92263986896	864.400024414063
1675.53224543046	862.599975585938
1676.14177087386	863.400024414063
1676.75121620658	864
1677.36058143604	864
1677.96986656964	862.200012207031
1678.5790716148	863.400024414063
1679.18819657892	865.599975585938
1679.79724146943	863.799987792969
1680.40620629372	863.799987792969
1681.0150910592	864.599975585938
1681.6238957733	863
1682.23262044341	862.599975585938
1682.84126507694	863.200012207031
1683.4498296813	863.400024414063
1684.0583142639	864
1684.66671883216	864.400024414063
1685.27504339346	864.400024414063
1685.88328795523	862.400024414063
1686.49145252487	865.200012207031
1687.09953710978	863.799987792969
1687.70754171737	863
1688.31546635505	863.400024414063
1688.92331103021	863.200012207031
1689.53107575028	864.200012207031
1690.13876052265	864
1690.74636535472	862.599975585938
1691.3538902539	864
1691.96133522759	863.400024414063
1692.5687002832	863.599975585938
1693.17598542812	863.400024414063
1693.78319066977	863.599975585938
1694.39031601554	864.400024414063
1694.99736147283	863.599975585938
1695.60432704905	863.400024414063
1696.2112127516	864.400024414063
1696.81801858788	863.200012207031
1697.42474456528	863.599975585938
1698.03139069121	863.400024414063
1698.63795697307	862.400024414063
1699.24444341826	863.799987792969
1699.85085003417	864.200012207031
1700.45717682821	862
1701.06342380778	862.599975585938
1701.66959098026	864
1702.27567835307	863
1702.88168593359	863.400024414063
1703.48761372922	863.200012207031
1704.09346174737	864.200012207031
1704.69922999542	863.799987792969
1705.30491848077	862.200012207031
1705.91052721083	864
1706.51605619297	864
1707.12150543461	864.200012207031
1707.72687494312	863
1708.33216472592	861.599975585938
1708.93737479039	863
1709.54250514392	862.799987792969
