634.977642221345	869.599975585938
635.719821695905	867.400024414063
636.461909203392	867.400024414063
637.203904751776	869.599975585938
637.945808349023	868.599975585938
638.687620003102	868.400024414063
639.42933972198	867.400024414063
640.170967513616	868.599975585938
640.912503385981	866.400024414063
641.653947347041	868
642.395299404758	868.599975585938
643.13655956709	866.400024414063
643.877727842014	867.200012207031
644.61880423748	867.599975585938
645.359788761455	865.799987792969
646.100681421905	866.599975585938
646.841482226789	868
647.582191184074	869.200012207031
648.322808301711	870
649.06333358767	866.799987792969
649.803767049909	868.799987792969
650.544108696385	868.599975585938
651.28435853506	866.599975585938
652.024516573894	868.400024414063
652.764582820849	869
653.504557283875	868
654.244439970937	869.799987792969
654.984230889991	868.200012207031
655.723930048995	869.200012207031
656.463537455909	867.400024414063
657.203053118683	867.799987792969
657.942477045275	867.200012207031
658.681809243647	867.599975585938
659.421049721747	868.400024414063
660.160198487535	867.400024414063
660.899255548962	869
661.638220913985	869.799987792969
662.377094590559	869.200012207031
663.115876586631	867
663.854566910165	870.200012207031
664.593165569107	869.599975585938
665.331672571406	869.599975585938
666.07008792502	871
666.808411637902	869.400024414063
667.546643717996	869.799987792969
668.284784173258	869.599975585938
669.022833011641	869.400024414063
669.760790241089	869
670.498655869554	870
671.236429904987	870
671.97411235534	869.200012207031
672.711703228551	868.799987792969
673.449202532577	867
674.186610275364	869.599975585938
674.923926464857	870.200012207031
675.661151109008	868.400024414063
676.398284215759	869.200012207031
677.135325793058	869.599975585938
677.87227584885	870
678.609134391082	868.799987792969
679.345901427696	870.799987792969
680.082576966644	868.599975585938
680.819161015861	869
681.555653583298	868.799987792969
682.292054676895	867.200012207031
683.028364304594	868.200012207031
683.764582474344	869.799987792969
684.500709194083	868
685.236744471752	868.200012207031
685.972688315294	868
686.708540732652	867.799987792969
687.444301731762	868
688.179971320572	867.400024414063
688.915549507013	869
689.651036299034	867
690.386431704569	869.200012207031
691.121735731559	869.200012207031
691.85694838794	867.400024414063
692.592069681652	868.200012207031
693.327099620632	868.400024414063
694.062038212821	868.599975585938
694.796885466149	869.200012207031
695.531641388561	867.200012207031
696.266305987987	869
697.000879272367	869.799987792969
697.735361249632	868.200012207031
698.469751927722	867.599975585938
699.204051314568	868.799987792969
699.938259418107	866.400024414063
700.672376246272	869.200012207031
701.406401806997	865.599975585938
702.140336108212	865.599975585938
702.874179157855	867.599975585938
703.607930963856	866.799987792969
704.341591534147	867.400024414063
705.07516087666	868
705.808638999324	864.200012207031
706.542025910073	865.799987792969
707.275321616841	868.400024414063
708.008526127549	867.799987792969
708.741639450132	867.400024414063
709.474661592521	867.400024414063
710.207592562641	865.799987792969
710.940432368424	867
711.673181017796	866.599975585938
712.405838518687	867.599975585938
713.138404879025	867.599975585938
713.870880106731	866.400024414063
714.603264209738	867
715.335557195971	867.799987792969
716.067759073357	866.799987792969
716.799869849816	866.400024414063
717.531889533281	867.200012207031
718.263818131673	867.400024414063
718.995655652917	868
719.727402104934	867.200012207031
720.45905749565	867
721.19062183299	868
721.922095124877	867.599975585938
722.653477379231	867.599975585938
723.384768603973	866.400024414063
724.11596880703	868
724.847077996319	867.799987792969
725.578096179762	868.400024414063
726.309023365281	867
727.039859560792	867.599975585938
727.770604774222	866.799987792969
728.501259013484	867.400024414063
729.231822286501	868
729.962294601191	867.200012207031
730.692675965469	866
731.42296638726	865.799987792969
732.153165874472	866.799987792969
732.883274435032	867.400024414063
733.613292076851	866.799987792969
734.343218807843	866.599975585938
735.07305463593	867.200012207031
735.802799569028	866.799987792969
736.532453615048	867.599975585938
737.262016781904	865.599975585938
737.991489077517	867.799987792969
738.720870509794	867.200012207031
739.450161086654	867
740.179360816009	866.599975585938
740.908469705772	866.799987792969
741.637487763854	868
742.366414998168	866.400024414063
743.095251416623	866
743.823997027137	868.200012207031
744.552651837618	868.200012207031
745.281215855978	868.799987792969
746.009689090124	866.400024414063
746.738071547964	868.799987792969
747.466363237419	866.400024414063
748.194564166384	867.599975585938
748.92267434278	869
749.650693774504	867.799987792969
750.378622469476	867.799987792969
751.106460435596	866.400024414063
751.834207680771	868.200012207031
752.561864212909	866.200012207031
753.289430039919	868.200012207031
754.016905169707	866.799987792969
754.744289610175	867.400024414063
755.471583369231	867.799987792969
756.198786454782	869.200012207031
756.925898874728	867.599975585938
757.652920636979	866.799987792969
758.379851749433	867
759.106692219996	869
759.833442056572	869.400024414063
760.560101267063	867.400024414063
761.28666985937	868.400024414063
762.0131478414	867.599975585938
762.739535221046	867
763.465832006219	867.200012207031
764.192038204812	869
764.918153824731	868.599975585938
765.644178873872	868.599975585938
766.370113360138	868
767.095957291425	868.400024414063
767.821710675635	868.400024414063
768.547373520665	871.400024414063
769.272945834415	868.599975585938
769.998427624781	869.400024414063
770.723818899658	869.799987792969
771.449119666949	869
772.174329934546	870.200012207031
772.899449710347	870.799987792969
773.624479002248	870.599975585938
774.349417818145	870.200012207031
775.074266165934	869.599975585938
775.799024053505	870.599975585938
776.523691488757	869
777.248268479582	868.599975585938
777.972755033877	869.200012207031
778.69715115953	870.400024414063
779.421456864441	868.599975585938
780.145672156493	868.400024414063
780.869797043587	870
781.593831533611	867.400024414063
782.317775634457	868.799987792969
783.041629354012	870.200012207031
783.765392700174	868
784.489065680828	867.799987792969
785.212648303866	868.200012207031
785.936140577177	869.200012207031
786.659542508652	870.200012207031
787.382854106174	868.200012207031
788.106075377639	868.200012207031
788.829206330928	867
789.552246973933	868.799987792969
790.275197314542	868
790.998057360638	868.799987792969
791.720827120108	868.400024414063
792.443506600841	869
793.166095810722	867.200012207031
793.888594757635	867
794.611003449465	868.200012207031
795.333321894098	867.599975585938
796.055550099417	868.400024414063
796.777688073308	868.799987792969
797.499735823654	869.599975585938
798.221693358334	867.799987792969
798.943560685235	868.599975585938
799.665337812239	869.200012207031
800.387024747226	866.799987792969
801.108621498075	870
801.830128072674	868.200012207031
802.551544478902	869.599975585938
803.272870724636	868.400024414063
803.994106817761	869
804.715252766148	867.599975585938
805.436308577687	869
806.157274260251	868
806.878149821721	868.400024414063
807.598935269973	869
808.319630612886	868.599975585938
809.040235858336	868.400024414063
809.760751014202	868.400024414063
810.481176088361	868.200012207031
811.201511088685	868
811.921756023059	868
812.641910899347	870.599975585938
813.361975725432	867.599975585938
814.081950509188	868.400024414063
814.801835258489	868.200012207031
815.521629981206	868.200012207031
816.241334685218	870.599975585938
816.960949378392	867.599975585938
817.680474068606	866
818.399908763731	867.599975585938
819.11925347164	867.400024414063
819.838508200202	867.599975585938
820.55767295729	868.400024414063
821.276747750778	868
821.995732588531	868.599975585938
822.714627478425	868
823.433432428327	870.799987792969
824.152147446105	870.200012207031
824.870772539632	869.799987792969
825.589307716775	870
826.307752985404	869.400024414063
827.026108353378	868.599975585938
827.744373828579	868.799987792969
828.462549418867	868.799987792969
829.180635132107	869.200012207031
829.898630976168	869.400024414063
830.616536958915	867.799987792969
831.334353088218	867.200012207031
832.052079371938	869.599975585938
832.769715817942	867.799987792969
833.487262434092	867.599975585938
834.204719228255	868.799987792969
834.922086208293	868.200012207031
835.639363382073	867.400024414063
836.356550757456	868.599975585938
837.073648342304	868
837.790656144484	866.599975585938
838.507574171847	867.200012207031
839.22440243227	867.200012207031
839.941140933601	868.200012207031
840.657789683706	868.799987792969
841.374348690448	868
842.090817961686	868
842.807197505276	867.200012207031
843.523487329083	866.200012207031
844.23968744096	868.799987792969
844.955797848771	867.799987792969
845.671818560374	867.200012207031
846.387749583622	867
847.103590926378	868
847.819342596497	869.200012207031
848.535004601833	866.200012207031
849.25057695025	868.200012207031
849.966059649598	866.799987792969
850.681452707735	868.599975585938
851.396756132513	869.599975585938
852.111969931789	867.599975585938
852.827094113419	867.400024414063
853.542128685257	867.400024414063
854.257073655158	870.400024414063
854.971929030969	869.400024414063
855.686694820551	870.799987792969
856.40137103175	869.799987792969
857.115957672423	869
857.830454750423	869
858.544862273597	870
859.259180249797	870.799987792969
859.97340868688	871.200012207031
860.687547592688	872
861.401596975075	870
862.115556841891	870.200012207031
862.829427200985	869.400024414063
863.543208060205	869.599975585938
864.256899427402	868.799987792969
864.970501310423	870.400024414063
865.684013717114	868.200012207031
866.397436655325	866.599975585938
867.110770132901	871.200012207031
867.824014157691	867.599975585938
868.537168737542	866.400024414063
869.250233880299	868
869.963209593803	871
870.676095885902	869.400024414063
871.388892764445	871.200012207031
872.101600237276	868.799987792969
872.814218312233	870.799987792969
873.526746997165	869.799987792969
874.239186299914	869
874.951536228323	870.400024414063
875.663796790231	870.599975585938
876.375967993487	868.799987792969
877.088049845928	869.400024414063
877.8000423554	870.599975585938
878.511945529739	867.400024414063
879.22375937679	867.200012207031
879.935483904388	869.799987792969
880.64711912038	870.200012207031
881.358665032604	870
882.070121648892	871
882.78148897709	869.599975585938
883.492767025039	871
884.203955800571	870
884.915055311525	869.799987792969
885.626065565741	869.599975585938
886.336986571053	870
887.047818335298	868.799987792969
887.758560866315	870.599975585938
888.469214171937	870.200012207031
889.179778260005	871.599975585938
889.890253138347	872.599975585938
890.600638814803	871.799987792969
891.310935297204	871.200012207031
892.021142593385	870.799987792969
892.731260711183	870.200012207031
893.441289658429	869.400024414063
894.15122944295	870.599975585938
894.861080072591	870.799987792969
895.570841555173	871.200012207031
896.280513898534	871
896.990097110503	870.799987792969
897.699591198913	871.599975585938
898.408996171595	869.200012207031
899.118312036375	870.799987792969
899.827538801089	869.599975585938
900.536676473561	871.799987792969
901.245725061628	869.200012207031
901.954684573109	870.599975585938
902.663555015838	871.599975585938
903.372336397644	868.200012207031
904.081028726351	870.599975585938
904.789632009793	869
905.49814625579	869.599975585938
906.20657147217	871
906.914907666765	870.599975585938
907.623154847391	872
908.331313021885	868.599975585938
909.039382198064	869.799987792969
909.747362383754	870.200012207031
910.455253586782	870.200012207031
911.163055814972	870
911.870769076143	870.400024414063
912.578393378126	869.799987792969
913.285928728738	868.799987792969
913.993375135802	868.599975585938
914.700732607145	868.599975585938
915.408001150579	871.200012207031
916.115180773937	870.599975585938
916.822271485037	869.200012207031
917.529273291693	868.799987792969
918.236186201733	869.400024414063
918.943010222971	868.599975585938
919.649745363234	869.400024414063
920.356391630333	868
921.062949032096	868.200012207031
921.769417576333	867.799987792969
922.475797270864	870
923.182088123512	867
923.888290142089	868.599975585938
924.594403334414	868.400024414063
925.300427708304	869.599975585938
926.006363271572	869.799987792969
926.712210032039	870
927.417967997522	869.400024414063
928.123637175827	867.200012207031
928.829217574776	867.799987792969
929.534709202184	867.799987792969
930.240112065859	867.200012207031
930.945426173621	869.200012207031
931.650651533283	870.400024414063
932.355788152653	868.400024414063
933.060836039547	869.799987792969
933.765795201776	866.799987792969
934.470665647153	868.400024414063
935.175447383492	870.200012207031
935.880140418599	869.799987792969
936.584744760286	870.400024414063
937.289260416366	870.400024414063
937.993687394647	870.400024414063
938.698025702939	871.799987792969
939.402275349051	870
940.106436340793	871.799987792969
940.810508685976	870.799987792969
941.5144923924	870.799987792969
942.21838746788	872.200012207031
942.922193920223	872.599975585938
943.625911757231	873.200012207031
944.329540986716	871.200012207031
945.033081616484	874.400024414063
945.736533654334	872.799987792969
946.439897108083	872
947.143171985529	871.799987792969
947.846358294477	871.400024414063
948.549456042732	871.400024414063
949.2524652381	870.799987792969
949.955385888382	873.599975585938
950.658218001384	871.200012207031
951.360961584907	873.799987792969
952.063616646755	872.799987792969
952.766183194733	871.799987792969
953.468661236636	870
954.171050780271	872.599975585938
954.873351833437	870
955.575564403935	870
956.277688499565	870.400024414063
956.97972412813	869.200012207031
957.681671297424	871
958.383530015255	869.400024414063
959.085300289414	870.200012207031
959.786982127703	870.599975585938
960.488575537918	873.200012207031
961.190080527859	868.799987792969
961.891497105327	869.599975585938
962.592825278111	871
963.294065054012	871.400024414063
963.995216440829	869.599975585938
964.696279446353	871.400024414063
965.397254078383	871
966.098140344714	870.200012207031
966.798938253139	871.200012207031
967.499647811456	870.400024414063
968.200269027458	870.400024414063
968.900801908937	869.599975585938
969.601246463685	871.200012207031
970.3016026995	870.599975585938
971.001870624169	872
971.702050245491	871
972.402141571249	870.200012207031
973.102144609245	870.200012207031
973.802059367267	869.200012207031
974.501885853103	869.400024414063
975.201624074541	870.400024414063
975.901274039379	871
976.600835755399	871.400024414063
977.3003092304	872.400024414063
977.999694472158	872.200012207031
978.698991488473	869.599975585938
979.39820028713	871.400024414063
980.097320875915	871.599975585938
980.796353262618	870
981.495297455024	872.200012207031
982.194153460919	872.200012207031
982.892921288093	872.400024414063
983.591600944331	871.599975585938
984.290192437419	869.599975585938
984.98869577514	869.599975585938
985.687110965282	870.200012207031
986.385438015629	870.400024414063
987.083676933961	870.400024414063
987.781827728069	872
988.479890405732	869.400024414063
989.177864974732	869
989.875751442857	871
990.573549817888	871
991.271260107602	868
991.968882319786	870
992.666416462217	869.400024414063
993.363862542681	868
994.061220568959	868
994.758490548823	868.400024414063
995.455672490061	868.200012207031
996.152766400451	869.799987792969
996.849772287773	870.400024414063
997.5466901598	869.599975585938
998.243520024317	867.799987792969
998.940261889097	870.200012207031
999.636915761923	865.599975585938
1000.33348165057	866.799987792969
1001.02995956281	868.400024414063
1001.72634950643	869.599975585938
1002.42265148919	867.799987792969
1003.11886551889	869.200012207031
1003.81499160328	868.599975585938
1004.51102975015	869
1005.20697996727	869.200012207031
1005.90284226242	867.400024414063
1006.59861664337	869.400024414063
1007.2943031179	868.200012207031
1007.98990169377	869.200012207031
1008.68541237876	869.200012207031
1009.38083518064	868.400024414063
1010.07617010719	868.799987792969
1010.77141716617	869
1011.46657636536	868.200012207031
1012.16164771253	867.599975585938
1012.85663121546	867.200012207031
1013.5515268819	868
1014.24633471963	868.400024414063
1014.94105473642	868
1015.63568694004	869.200012207031
1016.33023133826	868.200012207031
1017.02468793885	869
1017.71905674957	867.799987792969
1018.41333777819	867.599975585938
1019.10753103249	869.400024414063
1019.80163652022	870
1020.49565424916	869.200012207031
1021.18958422707	868.599975585938
1021.88342646171	869.599975585938
1022.57718096085	869.200012207031
1023.27084773227	871.200012207031
1023.96442678371	869
1024.65791812296	868.400024414063
1025.35132175776	868.799987792969
1026.04463769589	869.599975585938
1026.73786594511	870.799987792969
1027.43100651318	869.599975585938
1028.12405940786	871.400024414063
1028.81702463692	871.400024414063
1029.50990220812	872
1030.20269212921	870
1030.89539440798	871
1031.58800905216	870.200012207031
1032.28053606952	870.200012207031
1032.97297546784	870.200012207031
1033.66532725485	870.799987792969
1034.35759143832	869.400024414063
1035.04976802602	871.599975585938
1035.7418570257	872.400024414063
1036.43385844511	870.400024414063
1037.12577229202	868.799987792969
1037.81759857419	869
1038.50933729937	870
1039.20098847531	870.400024414063
1039.89255210978	870
1040.58402821053	870.200012207031
1041.27541678532	869.400024414063
1041.96671784191	869.599975585938
1042.65793138804	869.400024414063
1043.34905743147	867.799987792969
1044.04009597996	869.400024414063
1044.73104704125	870.200012207031
1045.42191062312	868
1046.1126867333	870.200012207031
1046.80337537955	868.200012207031
1047.49397656962	869.400024414063
1048.18449031127	867.799987792969
1048.87491661225	868.400024414063
1049.5652554803	869.200012207031
1050.25550692319	869.400024414063
1050.94567094865	868.599975585938
1051.63574756444	868.799987792969
1052.32573677832	868.599975585938
1053.01563859803	869
1053.70545303131	870.599975585938
1054.39518008592	869.200012207031
1055.08481976961	869.599975585938
1055.77437209013	868
1056.46383705522	869.400024414063
1057.15321467262	869.200012207031
1057.8425049501	869.200012207031
1058.53170789539	869.799987792969
1059.22082351624	868.599975585938
1059.9098518204	870.200012207031
1060.59879281561	869.599975585938
1061.28764650962	869.400024414063
1061.97641291016	867.799987792969
1062.665092025	869.200012207031
1063.35368386187	867.599975585938
1064.04218842851	865.799987792969
1064.73060573268	870
1065.4189357821	869.599975585938
1066.10717858452	869.799987792969
1066.7953341477	867.799987792969
1067.48340247936	870
1068.17138358725	870.599975585938
1068.85927747912	870.200012207031
1069.5470841627	868.200012207031
1070.23480364573	870
1070.92243593595	868.200012207031
1071.60998104111	870.599975585938
1072.29743896894	869.799987792969
1072.98480972718	869.200012207031
1073.67209332357	868.799987792969
1074.35928976585	868.799987792969
1075.04639906176	868
1075.73342121903	868.400024414063
1076.42035624541	869.400024414063
1077.10720414862	869.400024414063
1077.79396493641	869.400024414063
1078.48063861651	868.599975585938
1079.16722519666	868.799987792969
1079.85372468459	869
1080.54013708804	870.599975585938
1081.22646241474	868
1081.91270067243	868.400024414063
1082.59885186884	868
1083.28491601171	869
1083.97089310877	867.599975585938
1084.65678316774	868.599975585938
1085.34258619637	866
1086.02830220239	867.799987792969
1086.71393119352	867.400024414063
1087.39947317751	867.599975585938
1088.08492816207	869.200012207031
1088.77029615495	867
1089.45557716387	867.599975585938
1090.14077119656	867.799987792969
1090.82587826075	869.200012207031
1091.51089836417	867.400024414063
1092.19583151456	869.200012207031
1092.88067771963	867.400024414063
1093.56543698712	868.400024414063
1094.25010932475	869
1094.93469474026	868.200012207031
1095.61919324137	865.799987792969
1096.3036048358	867.599975585938
1096.98792953129	868
1097.67216733555	868
1098.35631825632	868.200012207031
1099.04038230132	867.799987792969
1099.72435947828	867.599975585938
1100.40824979492	867.599975585938
1101.09205325895	867.599975585938
1101.77576987812	869.599975585938
1102.45939966014	868.400024414063
1103.14294261273	868.400024414063
1103.82639874362	867.200012207031
1104.50976806054	868.599975585938
1105.19305057119	867.799987792969
1105.87624628331	868
1106.55935520461	868.400024414063
1107.24237734283	869
1107.92531270566	869
1108.60816130085	869
1109.2909231361	868.400024414063
1109.97359821914	868.799987792969
1110.65618655768	868.599975585938
1111.33868815946	867.599975585938
1112.02110303217	866.799987792969
1112.70343118355	870.200012207031
1113.3856726213	869
1114.06782735316	870.400024414063
1114.74989538683	868.799987792969
1115.43187673002	869.400024414063
1116.11377139047	868.799987792969
1116.79557937588	868.599975585938
1117.47730069397	869.200012207031
1118.15893535245	868.599975585938
1118.84048335904	868.400024414063
1119.52194472146	870.200012207031
1120.20331944741	869
1120.88460754462	869
1121.56580902079	872
1122.24692388364	868.599975585938
1122.92795214088	869.799987792969
1123.60889380022	871
1124.28974886938	871.599975585938
1124.97051735606	869.599975585938
1125.65119926799	872.200012207031
1126.33179461286	871.799987792969
1127.0123033984	870
1127.6927256323	872
1128.37306132229	869.599975585938
1129.05331047606	869.599975585938
1129.73347310134	870.599975585938
1130.41354920582	870.200012207031
1131.09353879722	870.599975585938
1131.77344188324	867.400024414063
1132.45325847159	868.599975585938
1133.13298856999	870.599975585938
1133.81263218612	870.599975585938
1134.49218932772	871.400024414063
1135.17166000247	871
1135.85104421809	869.799987792969
1136.53034198227	870
1137.20955330274	871.599975585938
1137.88867818718	870.200012207031
1138.56771664331	871.799987792969
1139.24666867883	872.400024414063
1139.92553430144	869.799987792969
1140.60431351885	870.799987792969
1141.28300633876	870.799987792969
1141.96161276887	870.400024414063
1142.64013281689	869.599975585938
1143.31856649051	870.599975585938
1143.99691379744	869.400024414063
1144.67517474538	870.200012207031
1145.35334934203	869.799987792969
1146.03143759509	868.200012207031
1146.70943951226	870
1147.38735510125	870.799987792969
1148.06518436974	871
1148.74292732545	872.200012207031
1149.42058397606	872.400024414063
1150.09815432928	871
1150.7756383928	872.599975585938
1151.45303617432	872.200012207031
1152.13034768155	871.400024414063
1152.80757292217	871.599975585938
1153.48471190389	872
1154.16176463439	873.799987792969
1154.83873112138	871.400024414063
1155.51561137255	870.599975585938
1156.1924053956	871.400024414063
1156.86911319822	871.799987792969
1157.5457347881	870.599975585938
1158.22227017294	868.599975585938
1158.89871936044	871.599975585938
1159.57508235828	870.599975585938
1160.25135917416	870.799987792969
1160.92754981578	870.400024414063
1161.60365429081	870.200012207031
1162.27967260697	870.400024414063
1162.95560477193	869
1163.63145079339	869
1164.30721067904	870.799987792969
1164.98288443657	871
1165.65847207367	871
1166.33397359803	870.400024414063
1167.00938901735	872.400024414063
1167.6847183393	870.400024414063
1168.35996157157	869.599975585938
1169.03511872187	868.400024414063
1169.71018979787	869.599975585938
1170.38517480726	868.799987792969
1171.06007375773	869.200012207031
1171.73488665696	869
1172.40961351265	869
1173.08425433247	870.200012207031
1173.75880912412	869
1174.43327789528	868.799987792969
1175.10766065364	870.400024414063
1175.78195740687	871.400024414063
1176.45616816267	870.599975585938
1177.13029292871	870.400024414063
1177.80433171269	869.799987792969
1178.47828452229	869
1179.15215136518	870.799987792969
1179.82593224905	868.799987792969
1180.49962718159	870.200012207031
1181.17323617047	871.400024414063
1181.84675922337	871.200012207031
1182.52019634799	870.200012207031
1183.193547552	870.799987792969
1183.86681284307	870.799987792969
1184.53999222889	871.200012207031
1185.21308571714	869
1185.8860933155	868.400024414063
1186.55901503165	868.599975585938
1187.23185087326	868.599975585938
1187.90460084802	869.200012207031
1188.5772649636	870.400024414063
1189.24984322768	870.200012207031
1189.92233564794	869.200012207031
1190.59474223206	868.400024414063
1191.2670629877	868.799987792969
1191.93929792255	868.400024414063
1192.61144704428	867.799987792969
1193.28351036058	871.200012207031
1193.9554878791	869.599975585938
1194.62737960754	867.200012207031
1195.29918555356	869.400024414063
1195.97090572483	870.200012207031
1196.64254012903	869.599975585938
1197.31408877384	870.400024414063
1197.98555166693	870
1198.65692881596	868.599975585938
1199.32822022862	869.400024414063
1199.99942591256	869.200012207031
1200.67054587548	870
1201.34158012503	870
1202.01252866889	868.599975585938
1202.68339151473	867
1203.35416867021	869.799987792969
1204.02486014301	869.599975585938
1204.6954659408	869.400024414063
1205.36598607124	869
1206.03642054201	868.799987792969
1206.70676936078	869.400024414063
1207.3770325352	869.400024414063
1208.04721007295	869.599975585938
1208.7173019817	870.400024414063
1209.38730826911	870.200012207031
1210.05722894285	869.200012207031
1210.72706401059	870.200012207031
1211.39681347999	869.599975585938
1212.06647735872	869.400024414063
1212.73605565444	869.599975585938
1213.40554837481	870.400024414063
1214.07495552751	870.200012207031
1214.74427712019	870.200012207031
1215.41351316052	870
1216.08266365617	871.799987792969
1216.75172861479	868
1217.42070804405	870.799987792969
1218.0896019516	869.400024414063
1218.75841034513	871.599975585938
1219.42713323227	871
1220.0957706207	871.400024414063
1220.76432251808	872.599975585938
1221.43278893207	872.400024414063
1222.10116987032	869.599975585938
1222.7694653405	872.400024414063
1223.43767535026	870.599975585938
1224.10579990727	870.599975585938
1224.77383901918	872.799987792969
1225.44179269366	872.200012207031
1226.10966093835	872.400024414063
1226.77744376093	870.799987792969
1227.44514116904	870.799987792969
1228.11275317034	870.200012207031
1228.78027977249	871
1229.44772098315	870.400024414063
1230.11507680996	868.599975585938
1230.7823472606	870.200012207031
1231.44953234271	870.200012207031
1232.11663206394	871.599975585938
1232.78364643195	870.400024414063
1233.4505754544	871.400024414063
1234.11741913894	869.599975585938
1234.78417749322	869.599975585938
1235.45085052489	870
1236.11743824162	868.599975585938
1236.78394065104	871.200012207031
1237.45035776082	869.200012207031
1238.1166895786	870.400024414063
1238.78293611204	870.400024414063
1239.44909736878	868.799987792969
1240.11517335648	869.599975585938
1240.78116408279	870.400024414063
1241.44706955535	868.599975585938
1242.11288978182	871
1242.77862476985	870.200012207031
1243.44427452708	870.799987792969
1244.10983906116	869.799987792969
1244.77531837974	870
1245.44071249047	869.200012207031
1246.106021401	870.799987792969
1246.77124511898	869.400024414063
1247.43638365204	870.200012207031
1248.10143700783	869.799987792969
1248.76640519401	870.799987792969
1249.43128821822	869.200012207031
1250.0960860881	872.200012207031
1250.76079881129	870.200012207031
1251.42542639545	871
1252.08996884822	870.799987792969
1252.75442617723	869.400024414063
1253.41879839014	868.400024414063
1254.08308549458	868.400024414063
1254.74728749821	869.799987792969
1255.41140440866	869.200012207031
1256.07543623357	869.400024414063
1256.73938298059	869.799987792969
1257.40324465735	869.799987792969
1258.0670212715	870.400024414063
1258.73071283068	870.200012207031
1259.39431934253	868.799987792969
1260.05784081468	867.599975585938
1260.72127725479	868.400024414063
1261.38462867049	870.599975585938
1262.0478950694	871
1262.71107645919	869
1263.37417284748	868.200012207031
1264.03718424191	869.599975585938
1264.70011065011	869.799987792969
1265.36295207974	870.400024414063
1266.02570853841	870.599975585938
1266.68838003378	869.599975585938
1267.35096657346	867.400024414063
1268.01346816511	871.599975585938
1268.67588481636	868
1269.33821653483	869
1270.00046332817	869.599975585938
1270.66262520401	869.400024414063
1271.32470216998	870
1271.98669423372	869.400024414063
1272.64860140285	871.799987792969
1273.31042368503	869.799987792969
1273.97216108786	870.400024414063
1274.633813619	870.599975585938
1275.29538128606	871.200012207031
1275.95686409669	869.799987792969
1276.6182620585	870.400024414063
1277.27957517914	872.400024414063
1277.94080346624	870
1278.60194692741	871.200012207031
1279.2630055703	869
1279.92397940253	870.200012207031
1280.58486843173	871
1281.24567266552	872
1281.90639211155	872.599975585938
1282.56702677743	871.200012207031
1283.2275766708	869.599975585938
1283.88804179927	870
1284.54842217049	871
1285.20871779206	873.200012207031
1285.86892867163	870.400024414063
1286.52905481681	871.400024414063
1287.18909623523	874
1287.84905293452	872.200012207031
1288.5089249223	871
1289.16871220619	872
1289.82841479383	872.200012207031
1290.48803269282	871.599975585938
1291.1475659108	872.400024414063
1291.80701445539	871.799987792969
1292.46637833421	872
1293.12565755489	873
1293.78485212504	873.200012207031
1294.44396205229	871
1295.10298734425	872.200012207031
1295.76192800856	870.799987792969
1296.42078405283	872.400024414063
1297.07955548467	870.400024414063
1297.73824231171	872.200012207031
1298.39684454158	873.200012207031
1299.05536218188	872
1299.71379524023	871.400024414063
1300.37214372427	871
1301.03040764159	871.599975585938
1301.68858699983	872.599975585938
1302.34668180659	872.400024414063
1303.0046920695	873
1303.66261779617	873.599975585938
1304.32045899422	871.799987792969
1304.97821567126	872.200012207031
1305.63588783492	873.400024414063
1306.29347549279	872.799987792969
1306.95097865251	872.200012207031
1307.60839732168	872.200012207031
1308.26573150791	873.799987792969
1308.92298121883	871.400024414063
1309.58014646204	872.599975585938
1310.23722724517	870.599975585938
1310.89422357581	872
1311.55113546158	872.200012207031
1312.2079629101	872
1312.86470592898	873
1313.52136452582	871.799987792969
1314.17793870824	870
1314.83442848386	871.400024414063
1315.49083386027	872.599975585938
1316.14715484509	873.200012207031
1316.80339144594	873.799987792969
1317.45954367041	871.599975585938
1318.11561152611	873.200012207031
1318.77159502067	874
1319.42749416168	872.599975585938
1320.08330895674	874.400024414063
1320.73903941348	875
1321.3946855395	872.799987792969
1322.0502473424	873
1322.70572482978	873.599975585938
1323.36111800926	875.200012207031
1324.01642688845	870.599975585938
1324.67165147494	873.400024414063
1325.32679177634	872.200012207031
1325.98184780025	873.400024414063
1326.63681955429	874.400024414063
1327.29170704605	874.200012207031
1327.94651028314	873.799987792969
1328.60122927316	871.799987792969
1329.25586402371	872
1329.9104145424	876
1330.56488083683	874.200012207031
1331.2192629146	871.799987792969
1331.87356078331	875.400024414063
1332.52777445056	873.799987792969
1333.18190392395	874.400024414063
1333.83594921109	873.799987792969
1334.48991031958	872.799987792969
1335.143787257	871.400024414063
1335.79758003097	873
1336.45128864908	873.599975585938
1337.10491311893	872.599975585938
1337.75845344813	874
1338.41190964425	874.799987792969
1339.06528171491	874.599975585938
1339.71856966771	873
1340.37177351023	875.200012207031
1341.02489325007	875.200012207031
1341.67792889484	872.799987792969
1342.33088045212	873
1342.98374792952	873
1343.63653133462	873.599975585938
1344.28923067503	871.799987792969
1344.94184595833	873
1345.59437719212	872.200012207031
1346.246824384	871.599975585938
1346.89918754155	872.599975585938
1347.55146667238	872.799987792969
1348.20366178407	873.400024414063
1348.85577288421	873.599975585938
1349.50779998041	873.200012207031
1350.15974308024	873
1350.8116021913	873.599975585938
1351.46337732119	872.799987792969
1352.11506847748	875.400024414063
1352.76667566778	875
1353.41819889967	873.400024414063
1354.06963818074	873.200012207031
1354.72099351858	873.799987792969
1355.37226492079	874.200012207031
1356.02345239494	872.799987792969
1356.67455594862	874.599975585938
1357.32557558943	873.200012207031
1357.97651132496	875.599975585938
1358.62736316277	875.400024414063
1359.27813111048	872.599975585938
1359.92881517565	876.400024414063
1360.57941536589	873.200012207031
1361.22993168876	875.400024414063
1361.88036415186	873.599975585938
1362.53071276278	873.200012207031
1363.1809775291	875.799987792969
1363.8311584584	873
1364.48125555826	874
1365.13126883627	873.799987792969
1365.78119830001	873.799987792969
1366.43104395707	874.200012207031
1367.08080581503	874.200012207031
1367.73048388147	871.799987792969
1368.38007816397	874.799987792969
1369.02958867011	872.400024414063
1369.67901540748	871.799987792969
1370.32835838365	873.599975585938
1370.9776176062	874.200012207031
1371.62679308273	874.400024414063
1372.27588482079	873
1372.92489282798	875
1373.57381711188	873.200012207031
1374.22265768006	873.400024414063
1374.87141454009	873.400024414063
1375.52008769957	875.200012207031
1376.16867716606	873.200012207031
1376.81718294715	870.599975585938
1377.4656050504	872.200012207031
1378.1139434834	874.400024414063
1378.76219825373	873.400024414063
1379.41036936895	874.400024414063
1380.05845683664	876
1380.70646066439	875.599975585938
1381.35438085976	874.200012207031
1382.00221743032	874
1382.64997038366	875.200012207031
1383.29763972735	874.799987792969
1383.94522546895	873
1384.59272761605	875.400024414063
1385.24014617621	876
1385.88748115701	877
1386.53473256602	875.799987792969
1387.18190041081	876.400024414063
1387.82898469895	875.599975585938
1388.47598543802	877.200012207031
1389.12290263558	878.200012207031
1389.7697362992	876.799987792969
1390.41648643646	878
1391.06315305492	878.200012207031
1391.70973616215	877.200012207031
1392.35623576573	879
1393.00265187321	879.200012207031
1393.64898449217	876.799987792969
1394.29523363018	877
1394.94139929481	877.799987792969
1395.58748149361	877
1396.23348023415	880.599975585938
1396.87939552402	877.799987792969
1397.52522737076	877.400024414063
1398.17097578195	877.200012207031
1398.81664076514	875.599975585938
1399.46222232792	877.599975585938
1400.10772047783	878.599975585938
1400.75313522245	877.400024414063
1401.39846656934	877.400024414063
1402.04371452605	877.200012207031
1402.68887910016	876.799987792969
1403.33396029924	876.400024414063
1403.97895813083	876
1404.6238726025	878.200012207031
1405.26870372182	875.799987792969
1405.91345149634	875
1406.55811593363	874
1407.20269704125	874.200012207031
1407.84719482676	877.200012207031
1408.49160929772	876.200012207031
1409.13594046168	873.799987792969
1409.78018832622	874.799987792969
1410.42435289887	876
1411.06843418722	874.400024414063
1411.7124321988	875.400024414063
1412.3563469412	875.200012207031
1413.00017842194	874.400024414063
1413.64392664861	877.599975585938
1414.28759162875	876.599975585938
1414.93117336992	875.799987792969
1415.57467187967	877.200012207031
1416.21808716557	876.200012207031
1416.86141923516	874.400024414063
1417.50466809601	875.799987792969
1418.14783375567	875.200012207031
1418.79091622169	875.599975585938
1419.43391550162	875.400024414063
1420.07683160303	878
1420.71966453346	876.599975585938
1421.36241430046	877
1422.0050809116	878.799987792969
1422.64766437442	877.200012207031
1423.29016469647	878
1423.93258188531	878.400024414063
1424.57491594848	879
1425.21716689354	878.599975585938
1425.85933472805	878.799987792969
1426.50141945954	879
1427.14342109557	879.200012207031
1427.78533964369	879.599975585938
1428.42717511144	879
1429.06892750639	877.799987792969
1429.71059683607	878.599975585938
1430.35218310803	878
1430.99368632983	879.599975585938
1431.635106509	880
1432.2764436531	879
1432.91769776967	880.599975585938
1433.55886886627	879.599975585938
1434.19995695043	878.799987792969
1434.84096202969	880
1435.48188411162	880.799987792969
1436.12272320375	879.400024414063
1436.76347931363	879.400024414063
1437.40415244879	879.599975585938
1438.0447426168	879.599975585938
1438.68524982518	879.200012207031
1439.32567408148	879
1439.96601539325	881.599975585938
1440.60627376803	878
1441.24644921336	878.799987792969
1441.88654173678	878
1442.52655134583	879.400024414063
1443.16647804806	879.599975585938
1443.806321851	881.200012207031
1444.4460827622	879.200012207031
1445.0857607892	879.599975585938
1445.72535593953	878.599975585938
1446.36486822074	877.599975585938
1447.00429764037	875
1447.64364420595	878
1448.28290792502	879.200012207031
1448.92208880512	881.200012207031
1449.56118685379	877
1450.20020207857	878.200012207031
1450.83913448699	878.400024414063
1451.47798408659	879.599975585938
1452.1167508849	879.599975585938
1452.75543488947	879
1453.39403610782	876.799987792969
1454.0325545475	877.400024414063
1454.67099021603	877.400024414063
1455.30934312097	877.599975585938
1455.94761326982	874.799987792969
1456.58580067014	876.599975585938
1457.22390532945	875
1457.86192725529	877.200012207031
1458.49986645519	877
1459.13772293668	878
1459.7754967073	877.599975585938
1460.41318777457	877
1461.05079614604	876.200012207031
1461.68832182922	875.400024414063
1462.32576483166	878
1462.96312516087	876.599975585938
1463.6004028244	877.200012207031
1464.23759782977	874.599975585938
1464.8747101845	875.599975585938
1465.51173989614	877
1466.14868697221	877.400024414063
1466.78555142024	876.599975585938
1467.42233324774	875.200012207031
1468.05903246227	873.400024414063
1468.69564907133	874.599975585938
1469.33218308246	873.400024414063
1469.96863450317	873.400024414063
1470.60500334102	877
1471.2412896035	876.200012207031
1471.87749329816	875.200012207031
1472.51361443251	877.200012207031
1473.14965301409	874.599975585938
1473.78560905041	875.400024414063
1474.421482549	876.400024414063
1475.05727351739	874.400024414063
1475.69298196309	875
1476.32860789364	874
1476.96415131654	874
1477.59961223934	875.799987792969
1478.23499066954	875.799987792969
1478.87028661467	877.200012207031
1479.50550008226	875.400024414063
1480.14063107981	875.400024414063
1480.77567961486	875.400024414063
1481.41064569492	875.799987792969
1482.04552932752	874.599975585938
1482.68033052017	875.799987792969
1483.31504928039	875
1483.9496856157	874
1484.58423953363	876.200012207031
1485.21871104168	876.200012207031
1485.85310014738	875
1486.48740685824	874.599975585938
1487.12163118178	875.599975585938
1487.75577312553	874
1488.38983269698	874.799987792969
1489.02380990367	875.400024414063
1489.65770475311	873.599975585938
1490.29151725281	875.599975585938
1490.92524741029	873
1491.55889523306	874.599975585938
1492.19246072863	873.799987792969
1492.82594390453	875.799987792969
1493.45934476826	873.400024414063
1494.09266332734	873.400024414063
1494.72589958928	875
1495.3590535616	876
1495.99212525181	873.400024414063
1496.62511466741	873.799987792969
1497.25802181592	874.400024414063
1497.89084670485	875
1498.52358934172	874.599975585938
1499.15624973403	874.400024414063
1499.7888278893	874
1500.42132381503	872.599975585938
1501.05373751873	876.200012207031
1501.68606900792	874.400024414063
1502.31831829009	874.799987792969
1502.95048537277	875
1503.58257026346	873.799987792969
1504.21457296966	874.400024414063
1504.84649349889	872.599975585938
1505.47833185864	876
1506.11008805644	872.799987792969
1506.74176209978	874.599975585938
1507.37335399617	873.400024414063
1508.00486375312	872.599975585938
1508.63629137813	871.200012207031
1509.2676368787	872.200012207031
1509.89890026235	873.200012207031
1510.53008153658	875.400024414063
1511.16118070889	874.400024414063
1511.79219778677	873.599975585938
1512.42313277775	873.599975585938
1513.05398568932	873
1513.68475652898	875.200012207031
1514.31544530424	872
1514.9460520226	873.599975585938
1515.57657669155	872.799987792969
1516.20701931861	872.599975585938
1516.83737991127	872
1517.46765847702	874.400024414063
1518.09785502339	873.400024414063
1518.72796955785	873.200012207031
1519.35800208792	873.200012207031
1519.98795262109	872.799987792969
1520.61782116486	873.599975585938
1521.24760772673	872.400024414063
1521.87731231419	873.799987792969
1522.50693493475	872.400024414063
1523.1364755959	873
1523.76593430514	871.799987792969
1524.39531106997	872.200012207031
1525.02460589788	872.200012207031
1525.65381879637	870.599975585938
1526.28294977293	870.799987792969
1526.91199883507	871
1527.54096599027	870.799987792969
1528.16985124603	872.200012207031
1528.79865460984	871.400024414063
1529.4273760892	870.599975585938
1530.05601569161	870.200012207031
1530.68457342455	869.799987792969
1531.31304929552	869.799987792969
1531.94144331201	870
1532.56975548151	871.200012207031
1533.19798581152	871.599975585938
1533.82613430953	869
1534.45420098302	872.799987792969
1535.08218583949	870.200012207031
1535.71008888643	870.799987792969
1536.33791013134	871
1536.96564958169	870.599975585938
1537.59330724498	870.799987792969
1538.22088312871	870.200012207031
1538.84837724034	869.799987792969
1539.47578958739	869.599975585938
1540.10312017733	869
1540.73036901765	870.200012207031
1541.35753611584	871.599975585938
1541.98462147939	870
1542.61162511578	870.400024414063
1543.2385470325	870.599975585938
1543.86538723704	869.799987792969
1544.49214573688	870
1545.11882253951	870.599975585938
1545.74541765241	871.400024414063
1546.37193108306	870.400024414063
1546.99836283896	869.599975585938
1547.62471292758	870
1548.25098135641	871.400024414063
1548.87716813294	868.799987792969
1549.50327326464	867.799987792969
1550.12929675899	868.799987792969
1550.75523862349	871.599975585938
1551.38109886561	868.599975585938
1552.00687749284	871
1552.63257451264	868.200012207031
1553.25818993252	869.200012207031
1553.88372375994	870.200012207031
1554.50917600239	869.599975585938
1555.13454666734	871.400024414063
1555.75983576228	869.799987792969
1556.38504329469	869.599975585938
1557.01016927204	868.599975585938
1557.63521370181	869
1558.26017659149	871.200012207031
1558.88505794854	868.400024414063
1559.50985778045	870
1560.13457609469	870.599975585938
1560.75921289874	870.200012207031
1561.38376820008	869.400024414063
1562.00824200618	869.200012207031
1562.63263432452	868.799987792969
1563.25694516257	870.599975585938
1563.88117452781	870.599975585938
1564.50532242772	869
1565.12938886976	868.799987792969
1565.75337386141	868.400024414063
1566.37727741015	870
1567.00109952345	869.599975585938
1567.62484020878	870.200012207031
1568.24849947361	869
1568.87207732542	869
1569.49557377168	870.200012207031
1570.11898881986	868.200012207031
1570.74232247743	871.400024414063
1571.36557475186	869.599975585938
1571.98874565062	870.799987792969
1572.61183518119	870.799987792969
1573.23484335103	871.200012207031
1573.85777016761	871.200012207031
1574.4806156384	869.599975585938
1575.10337977088	870.200012207031
1575.7260625725	871
1576.34866405074	870.400024414063
1576.97118421306	871.799987792969
1577.59362306694	872.400024414063
1578.21598061984	868.599975585938
1578.83825687922	870.400024414063
1579.46045185255	870.400024414063
1580.08256554731	870.200012207031
1580.70459797094	871.200012207031
1581.32654913093	870.799987792969
1581.94841903473	869
1582.57020768981	869.400024414063
1583.19191510364	870.200012207031
1583.81354128367	870
1584.43508623737	871
1585.05654997221	869.799987792969
1585.67793249564	869.599975585938
1586.29923381514	870.599975585938
1586.92045393815	869.599975585938
1587.54159287216	871.200012207031
1588.1626506246	869
1588.78362720296	871
1589.40452261468	869.400024414063
1590.02533686724	868.799987792969
1590.64606996808	870.400024414063
1591.26672192467	870.799987792969
1591.88729274447	869.400024414063
1592.50778243493	872
1593.12819100352	869.400024414063
1593.7485184577	871.400024414063
1594.36876480492	870.400024414063
1594.98893005264	870.799987792969
1595.60901420832	868.799987792969
1596.22901727941	873
1596.84893927338	872
1597.46878019767	871.200012207031
1598.08854005975	870
1598.70821886707	871.799987792969
1599.32781662708	873.200012207031
1599.94733334725	870.400024414063
1600.56676903502	872.200012207031
1601.18612369785	872.200012207031
1601.8053973432	870.599975585938
1602.42458997851	873.400024414063
1603.04370161124	872.599975585938
1603.66273224884	872
1604.28168189878	872.200012207031
1604.90055056849	872.799987792969
1605.51933826543	872.599975585938
1606.13804499705	872.400024414063
1606.75667077081	871.599975585938
1607.37521559415	873
1607.99367947452	874.400024414063
1608.61206241938	873
1609.23036443618	874.400024414063
1609.84858553236	874
1610.46672571537	872.799987792969
1611.08478499267	875
1611.7027633717	876.200012207031
1612.3206608599	879.400024414063
1612.93847746473	876.200012207031
1613.55621319364	876
1614.17386805407	878.400024414063
1614.79144205347	877.400024414063
1615.40893519928	878.200012207031
1616.02634749895	878
1616.64367895993	877.599975585938
1617.26092958966	878.799987792969
1617.87809939559	879.799987792969
1618.49518838516	882.799987792969
1619.11219656582	882.200012207031
1619.729123945	885.200012207031
1620.34597053016	884.799987792969
1620.96273632874	887.200012207031
1621.57942134818	889
1622.19602559592	889.599975585938
1622.8125490794	890.400024414063
1623.42899180607	890.400024414063
1624.04535378337	890
1624.66163501874	892
1625.27783551963	894.799987792969
1625.89395529346	891.599975585938
1626.50999434768	888.400024414063
1627.12595268974	891.200012207031
1627.74183032707	889.400024414063
1628.3576272671	890
1628.97334351729	888
1629.58897908506	885
1630.20453397786	884.400024414063
1630.82000820313	884.599975585938
1631.43540176829	881.599975585938
1632.05071468079	879.599975585938
1632.66594694807	877.799987792969
1633.28109857756	879.200012207031
1633.8961695767	878.599975585938
1634.51115995292	876.400024414063
1635.12606971366	875.799987792969
1635.74089886636	874.400024414063
1636.35564741844	872.599975585938
1636.97031537734	873.799987792969
1637.58490275051	870.799987792969
1638.19940954536	869.599975585938
1638.81383576934	870.799987792969
1639.42818142987	870.799987792969
1640.0424465344	870.799987792969
1640.65663109034	869.599975585938
1641.27073510515	870.200012207031
1641.88475858623	868
1642.49870154104	868.200012207031
1643.11256397699	870.200012207031
1643.72634590152	868.799987792969
1644.34004732206	868.599975585938
1644.95366824604	867
1645.56720868089	867
1646.18066863404	868.200012207031
1646.79404811291	868.200012207031
1647.40734712494	868
1648.02056567755	867.200012207031
1648.63370377817	868.200012207031
1649.24676143423	868.599975585938
1649.85973865316	867.200012207031
1650.47263544238	866.799987792969
1651.08545180932	867.599975585938
1651.6981877614	867.400024414063
1652.31084330606	867.200012207031
1652.92341845071	867.599975585938
1653.53591320278	867.799987792969
1654.1483275697	866.799987792969
1654.7606615589	866.200012207031
1655.37291517778	866
1655.98508843379	867.200012207031
1656.59718133434	867.799987792969
1657.20919388685	868
1657.82112609875	866.799987792969
1658.43297797747	866.799987792969
1659.04474953041	867.599975585938
1659.65644076501	868.400024414063
1660.26805168869	865.200012207031
1660.87958230886	867
1661.49103263294	867.599975585938
1662.10240266837	864.599975585938
1662.71369242255	867
1663.32490190291	868.200012207031
1663.93603111687	866.599975585938
1664.54708007184	865
1665.15804877524	865.799987792969
1665.7689372345	866.400024414063
1666.37974545703	866.200012207031
1666.99047345024	867
1667.60112122156	865.400024414063
1668.2116887784	865.200012207031
1668.82217612818	865.400024414063
1669.43258327831	867
1670.04291023622	864.799987792969
1670.65315700931	865.200012207031
1671.263323605	865.200012207031
1671.8734100307	866.200012207031
1672.48341629384	865.200012207031
1673.09334240182	865.799987792969
1673.70318836206	866.400024414063
1674.31295418197	866.400024414063
1674.92263986896	866
1675.53224543046	866.200012207031
1676.14177087386	866
1676.75121620658	867
1677.36058143604	866
1677.96986656964	865.200012207031
1678.5790716148	866.599975585938
1679.18819657892	867
1679.79724146943	866.599975585938
1680.40620629372	865.200012207031
1681.0150910592	864.200012207031
1681.6238957733	865.200012207031
1682.23262044341	866.400024414063
1682.84126507694	865.799987792969
1683.4498296813	865
1684.0583142639	865.799987792969
1684.66671883216	866
1685.27504339346	865.200012207031
1685.88328795523	865.400024414063
1686.49145252487	866.599975585938
1687.09953710978	866
1687.70754171737	864.799987792969
1688.31546635505	865.200012207031
1688.92331103021	865
1689.53107575028	865.799987792969
1690.13876052265	866.200012207031
1690.74636535472	864.400024414063
1691.3538902539	865
1691.96133522759	865.400024414063
1692.5687002832	864.200012207031
1693.17598542812	866.200012207031
1693.78319066977	864.400024414063
1694.39031601554	865.400024414063
1694.99736147283	865.400024414063
1695.60432704905	865.799987792969
1696.2112127516	865.599975585938
1696.81801858788	864.599975585938
1697.42474456528	865.799987792969
1698.03139069121	865.200012207031
1698.63795697307	863.799987792969
1699.24444341826	866.200012207031
1699.85085003417	865.200012207031
1700.45717682821	866.200012207031
1701.06342380778	866.400024414063
1701.66959098026	864.599975585938
1702.27567835307	865.599975585938
1702.88168593359	866
1703.48761372922	864.599975585938
1704.09346174737	863.799987792969
1704.69922999542	864.799987792969
1705.30491848077	864.599975585938
1705.91052721083	863.200012207031
1706.51605619297	865.200012207031
1707.12150543461	863.599975585938
1707.72687494312	864.200012207031
1708.33216472592	865
1708.93737479039	865
1709.54250514392	864.200012207031
