634.977642221345	873.400024414063
635.719821695905	874
636.461909203392	873.799987792969
637.203904751776	875.599975585938
637.945808349023	874.400024414063
638.687620003102	875.200012207031
639.42933972198	873.599975585938
640.170967513616	873.400024414063
640.912503385981	872.799987792969
641.653947347041	874.599975585938
642.395299404758	876.200012207031
643.13655956709	874.599975585938
643.877727842014	873.400024414063
644.61880423748	875
645.359788761455	873.200012207031
646.100681421905	874.599975585938
646.841482226789	872.400024414063
647.582191184074	872.599975585938
648.322808301711	875
649.06333358767	873.200012207031
649.803767049909	874.200012207031
650.544108696385	872.400024414063
651.28435853506	876.400024414063
652.024516573894	875.599975585938
652.764582820849	875.799987792969
653.504557283875	873.400024414063
654.244439970937	875.799987792969
654.984230889991	874.200012207031
655.723930048995	874.599975585938
656.463537455909	875
657.203053118683	875.200012207031
657.942477045275	875.400024414063
658.681809243647	873.599975585938
659.421049721747	874.200012207031
660.160198487535	874.799987792969
660.899255548962	876
661.638220913985	874
662.377094590559	876.599975585938
663.115876586631	875.799987792969
663.854566910165	875.799987792969
664.593165569107	876.200012207031
665.331672571406	875.400024414063
666.07008792502	875
666.808411637902	875.599975585938
667.546643717996	873.400024414063
668.284784173258	874.599975585938
669.022833011641	877.200012207031
669.760790241089	876.599975585938
670.498655869554	874.400024414063
671.236429904987	875.200012207031
671.97411235534	876.400024414063
672.711703228551	877
673.449202532577	876.799987792969
674.186610275364	874.400024414063
674.923926464857	875.200012207031
675.661151109008	878.799987792969
676.398284215759	874.799987792969
677.135325793058	876.400024414063
677.87227584885	875.200012207031
678.609134391082	878
679.345901427696	877.799987792969
680.082576966644	874.799987792969
680.819161015861	878.599975585938
681.555653583298	875.400024414063
682.292054676895	875.400024414063
683.028364304594	874.200012207031
683.764582474344	876.799987792969
684.500709194083	876.799987792969
685.236744471752	877
685.972688315294	874.400024414063
686.708540732652	874.400024414063
687.444301731762	875
688.179971320572	873
688.915549507013	876.799987792969
689.651036299034	875.799987792969
690.386431704569	877.599975585938
691.121735731559	874.200012207031
691.85694838794	877.200012207031
692.592069681652	874.599975585938
693.327099620632	874.599975585938
694.062038212821	875
694.796885466149	871
695.531641388561	873.200012207031
696.266305987987	873.200012207031
697.000879272367	873.799987792969
697.735361249632	875
698.469751927722	873.200012207031
699.204051314568	876.200012207031
699.938259418107	873.799987792969
700.672376246272	873.799987792969
701.406401806997	875.400024414063
702.140336108212	874.400024414063
702.874179157855	873.799987792969
703.607930963856	877.599975585938
704.341591534147	874.599975585938
705.07516087666	875.400024414063
705.808638999324	876.200012207031
706.542025910073	874.599975585938
707.275321616841	873.400024414063
708.008526127549	875.799987792969
708.741639450132	873.799987792969
709.474661592521	874.599975585938
710.207592562641	873.400024414063
710.940432368424	874.599975585938
711.673181017796	873.599975585938
712.405838518687	871.799987792969
713.138404879025	873
713.870880106731	875.200012207031
714.603264209738	874.400024414063
715.335557195971	874.799987792969
716.067759073357	873.200012207031
716.799869849816	873.200012207031
717.531889533281	873.200012207031
718.263818131673	876
718.995655652917	876.799987792969
719.727402104934	874
720.45905749565	873.200012207031
721.19062183299	873.599975585938
721.922095124877	872.799987792969
722.653477379231	873.400024414063
723.384768603973	874.799987792969
724.11596880703	873.799987792969
724.847077996319	875
725.578096179762	874.200012207031
726.309023365281	875.200012207031
727.039859560792	873
727.770604774222	875.200012207031
728.501259013484	872.599975585938
729.231822286501	873.400024414063
729.962294601191	874
730.692675965469	874.400024414063
731.42296638726	873.799987792969
732.153165874472	874.599975585938
732.883274435032	873.599975585938
733.613292076851	874.200012207031
734.343218807843	874
735.07305463593	875.400024414063
735.802799569028	873.400024414063
736.532453615048	873.799987792969
737.262016781904	873.599975585938
737.991489077517	875.400024414063
738.720870509794	873.400024414063
739.450161086654	874.400024414063
740.179360816009	876.599975585938
740.908469705772	873.400024414063
741.637487763854	873.400024414063
742.366414998168	872.799987792969
743.095251416623	875
743.823997027137	874.599975585938
744.552651837618	875
745.281215855978	875.400024414063
746.009689090124	875.200012207031
746.738071547964	877
747.466363237419	876.599975585938
748.194564166384	877.599975585938
748.92267434278	876.599975585938
749.650693774504	874.400024414063
750.378622469476	873.400024414063
751.106460435596	873
751.834207680771	874
752.561864212909	876
753.289430039919	875.599975585938
754.016905169707	874.799987792969
754.744289610175	873.799987792969
755.471583369231	874.599975585938
756.198786454782	872.799987792969
756.925898874728	873.200012207031
757.652920636979	874.200012207031
758.379851749433	871.799987792969
759.106692219996	873.599975585938
759.833442056572	876.200012207031
760.560101267063	874.400024414063
761.28666985937	873.799987792969
762.0131478414	873.799987792969
762.739535221046	875
763.465832006219	877.599975585938
764.192038204812	877.799987792969
764.918153824731	876.799987792969
765.644178873872	876
766.370113360138	875.799987792969
767.095957291425	875.599975585938
767.821710675635	876.200012207031
768.547373520665	875.799987792969
769.272945834415	876.400024414063
769.998427624781	876.400024414063
770.723818899658	878
771.449119666949	879.799987792969
772.174329934546	878.200012207031
772.899449710347	878.799987792969
773.624479002248	876.599975585938
774.349417818145	876.400024414063
775.074266165934	877.799987792969
775.799024053505	877.799987792969
776.523691488757	876.799987792969
777.248268479582	878.799987792969
777.972755033877	877.799987792969
778.69715115953	878.599975585938
779.421456864441	877.799987792969
780.145672156493	876.799987792969
780.869797043587	878.400024414063
781.593831533611	876.599975585938
782.317775634457	878
783.041629354012	877.799987792969
783.765392700174	876.799987792969
784.489065680828	876.200012207031
785.212648303866	875.799987792969
785.936140577177	875.400024414063
786.659542508652	877.599975585938
787.382854106174	879.200012207031
788.106075377639	876.400024414063
788.829206330928	875
789.552246973933	876.599975585938
790.275197314542	877.799987792969
790.998057360638	874.400024414063
791.720827120108	875.400024414063
792.443506600841	874
793.166095810722	876
793.888594757635	875.200012207031
794.611003449465	876
795.333321894098	876.599975585938
796.055550099417	875.200012207031
796.777688073308	875.799987792969
797.499735823654	875.799987792969
798.221693358334	876
798.943560685235	876.799987792969
799.665337812239	875.799987792969
800.387024747226	877.799987792969
801.108621498075	879.799987792969
801.830128072674	876.599975585938
802.551544478902	876.400024414063
803.272870724636	879
803.994106817761	877.400024414063
804.715252766148	878.200012207031
805.436308577687	878.200012207031
806.157274260251	879.400024414063
806.878149821721	877.799987792969
807.598935269973	879.400024414063
808.319630612886	875.400024414063
809.040235858336	876
809.760751014202	877
810.481176088361	876.400024414063
811.201511088685	877.799987792969
811.921756023059	875
812.641910899347	876.200012207031
813.361975725432	876.599975585938
814.081950509188	878
814.801835258489	877
815.521629981206	876.799987792969
816.241334685218	877.400024414063
816.960949378392	874.799987792969
817.680474068606	876.400024414063
818.399908763731	875.200012207031
819.11925347164	874.799987792969
819.838508200202	877.400024414063
820.55767295729	877.599975585938
821.276747750778	875.400024414063
821.995732588531	877
822.714627478425	876.599975585938
823.433432428327	876.599975585938
824.152147446105	876.599975585938
824.870772539632	875.799987792969
825.589307716775	877.599975585938
826.307752985404	877.200012207031
827.026108353378	876.599975585938
827.744373828579	877.400024414063
828.462549418867	877.599975585938
829.180635132107	877.400024414063
829.898630976168	875.599975585938
830.616536958915	876.599975585938
831.334353088218	876.200012207031
832.052079371938	878
832.769715817942	876.799987792969
833.487262434092	876.400024414063
834.204719228255	875.200012207031
834.922086208293	873.599975585938
835.639363382073	875
836.356550757456	875.400024414063
837.073648342304	875.599975585938
837.790656144484	877.400024414063
838.507574171847	875.400024414063
839.22440243227	874
839.941140933601	876.200012207031
840.657789683706	876.200012207031
841.374348690448	875.200012207031
842.090817961686	874.599975585938
842.807197505276	876.400024414063
843.523487329083	876
844.23968744096	875.200012207031
844.955797848771	876.200012207031
845.671818560374	874.599975585938
846.387749583622	878.599975585938
847.103590926378	876.599975585938
847.819342596497	875.799987792969
848.535004601833	877.799987792969
849.25057695025	876.200012207031
849.966059649598	877.200012207031
850.681452707735	878.799987792969
851.396756132513	880
852.111969931789	876.799987792969
852.827094113419	878.200012207031
853.542128685257	879.200012207031
854.257073655158	877.599975585938
854.971929030969	878.599975585938
855.686694820551	878.799987792969
856.40137103175	878
857.115957672423	878.599975585938
857.830454750423	878.599975585938
858.544862273597	880
859.259180249797	881
859.97340868688	878.599975585938
860.687547592688	879.200012207031
861.401596975075	878.799987792969
862.115556841891	879.200012207031
862.829427200985	878.599975585938
863.543208060205	879
864.256899427402	877.599975585938
864.970501310423	877
865.684013717114	878.799987792969
866.397436655325	877.200012207031
867.110770132901	877.599975585938
867.824014157691	878.200012207031
868.537168737542	879
869.250233880299	877.599975585938
869.963209593803	876.200012207031
870.676095885902	876.599975585938
871.388892764445	876.200012207031
872.101600237276	878.200012207031
872.814218312233	878.599975585938
873.526746997165	878.400024414063
874.239186299914	880
874.951536228323	878.200012207031
875.663796790231	879.799987792969
876.375967993487	879.400024414063
877.088049845928	878.799987792969
877.8000423554	875.400024414063
878.511945529739	877.599975585938
879.22375937679	879.599975585938
879.935483904388	878
880.64711912038	875.200012207031
881.358665032604	879.599975585938
882.070121648892	878.400024414063
882.78148897709	879.200012207031
883.492767025039	881.200012207031
884.203955800571	878
884.915055311525	883.200012207031
885.626065565741	880.400024414063
886.336986571053	879.400024414063
887.047818335298	879.799987792969
887.758560866315	881.400024414063
888.469214171937	880.799987792969
889.179778260005	880
889.890253138347	880.200012207031
890.600638814803	883.400024414063
891.310935297204	881.200012207031
892.021142593385	880
892.731260711183	881.200012207031
893.441289658429	879.599975585938
894.15122944295	881.799987792969
894.861080072591	880.200012207031
895.570841555173	879.200012207031
896.280513898534	881.799987792969
896.990097110503	881.799987792969
897.699591198913	882.799987792969
898.408996171595	880
899.118312036375	880.200012207031
899.827538801089	882
900.536676473561	881.400024414063
901.245725061628	884
901.954684573109	880.599975585938
902.663555015838	882
903.372336397644	882.799987792969
904.081028726351	881.599975585938
904.789632009793	881.799987792969
905.49814625579	882.400024414063
906.20657147217	880.400024414063
906.914907666765	881.400024414063
907.623154847391	883.400024414063
908.331313021885	882
909.039382198064	882
909.747362383754	880
910.455253586782	882
911.163055814972	883
911.870769076143	878.799987792969
912.578393378126	878.599975585938
913.285928728738	879.200012207031
913.993375135802	880.400024414063
914.700732607145	880.599975585938
915.408001150579	881.400024414063
916.115180773937	879.400024414063
916.822271485037	880.599975585938
917.529273291693	878.599975585938
918.236186201733	879.400024414063
918.943010222971	879.799987792969
919.649745363234	878.200012207031
920.356391630333	880
921.062949032096	875.799987792969
921.769417576333	875.799987792969
922.475797270864	877.400024414063
923.182088123512	879
923.888290142089	874.599975585938
924.594403334414	875.200012207031
925.300427708304	876.799987792969
926.006363271572	875.400024414063
926.712210032039	878.200012207031
927.417967997522	877.400024414063
928.123637175827	873.799987792969
928.829217574776	876.599975585938
929.534709202184	880.400024414063
930.240112065859	876.799987792969
930.945426173621	875.200012207031
931.650651533283	875.200012207031
932.355788152653	877.200012207031
933.060836039547	878
933.765795201776	877.799987792969
934.470665647153	873.400024414063
935.175447383492	876.400024414063
935.880140418599	876.200012207031
936.584744760286	876.200012207031
937.289260416366	875.799987792969
937.993687394647	875.599975585938
938.698025702939	874.400024414063
939.402275349051	879.400024414063
940.106436340793	877.400024414063
940.810508685976	876
941.5144923924	878.400024414063
942.21838746788	877
942.922193920223	878.599975585938
943.625911757231	877.799987792969
944.329540986716	877.200012207031
945.033081616484	879.200012207031
945.736533654334	877.599975585938
946.439897108083	879.200012207031
947.143171985529	878.799987792969
947.846358294477	877.400024414063
948.549456042732	879.200012207031
949.2524652381	878.200012207031
949.955385888382	878.599975585938
950.658218001384	879.400024414063
951.360961584907	877.799987792969
952.063616646755	877.400024414063
952.766183194733	877.400024414063
953.468661236636	878
954.171050780271	878.400024414063
954.873351833437	878.599975585938
955.575564403935	878.400024414063
956.277688499565	877.599975585938
956.97972412813	877.200012207031
957.681671297424	877.599975585938
958.383530015255	878.400024414063
959.085300289414	876.400024414063
959.786982127703	876.200012207031
960.488575537918	875.799987792969
961.190080527859	877.400024414063
961.891497105327	878
962.592825278111	877.400024414063
963.294065054012	877.200012207031
963.995216440829	878.200012207031
964.696279446353	878.400024414063
965.397254078383	876.599975585938
966.098140344714	876.200012207031
966.798938253139	875.599975585938
967.499647811456	876.200012207031
968.200269027458	878.599975585938
968.900801908937	877.400024414063
969.601246463685	876.400024414063
970.3016026995	877.200012207031
971.001870624169	877.400024414063
971.702050245491	877.200012207031
972.402141571249	874.599975585938
973.102144609245	875.599975585938
973.802059367267	875.599975585938
974.501885853103	875.799987792969
975.201624074541	876.799987792969
975.901274039379	878.400024414063
976.600835755399	876.799987792969
977.3003092304	876.400024414063
977.999694472158	876.799987792969
978.698991488473	875.799987792969
979.39820028713	878.200012207031
980.097320875915	879
980.796353262618	873.200012207031
981.495297455024	877.200012207031
982.194153460919	875.799987792969
982.892921288093	877.400024414063
983.591600944331	877
984.290192437419	875.200012207031
984.98869577514	874.599975585938
985.687110965282	875.200012207031
986.385438015629	875
987.083676933961	873.200012207031
987.781827728069	874.799987792969
988.479890405732	877.400024414063
989.177864974732	875.400024414063
989.875751442857	874.599975585938
990.573549817888	876.200012207031
991.271260107602	875.400024414063
991.968882319786	876.599975585938
992.666416462217	875.400024414063
993.363862542681	875.200012207031
994.061220568959	876
994.758490548823	874.799987792969
995.455672490061	876.200012207031
996.152766400451	875.200012207031
996.849772287773	876.200012207031
997.5466901598	875.400024414063
998.243520024317	877
998.940261889097	876.799987792969
999.636915761923	875.599975585938
1000.33348165057	875.599975585938
1001.02995956281	875.400024414063
1001.72634950643	875.799987792969
1002.42265148919	875.200012207031
1003.11886551889	875.400024414063
1003.81499160328	875.599975585938
1004.51102975015	874
1005.20697996727	874.599975585938
1005.90284226242	876.400024414063
1006.59861664337	876.599975585938
1007.2943031179	877.400024414063
1007.98990169377	879.400024414063
1008.68541237876	876.599975585938
1009.38083518064	878.200012207031
1010.07617010719	876.599975585938
1010.77141716617	877.400024414063
1011.46657636536	875.400024414063
1012.16164771253	873
1012.85663121546	876.599975585938
1013.5515268819	873.799987792969
1014.24633471963	877
1014.94105473642	878.400024414063
1015.63568694004	876.799987792969
1016.33023133826	875
1017.02468793885	878
1017.71905674957	876.400024414063
1018.41333777819	876.400024414063
1019.10753103249	877
1019.80163652022	877
1020.49565424916	877.400024414063
1021.18958422707	879.400024414063
1021.88342646171	877.799987792969
1022.57718096085	877.200012207031
1023.27084773227	878
1023.96442678371	878.599975585938
1024.65791812296	877
1025.35132175776	878
1026.04463769589	880.400024414063
1026.73786594511	879
1027.43100651318	878.599975585938
1028.12405940786	879.599975585938
1028.81702463692	883.400024414063
1029.50990220812	882.200012207031
1030.20269212921	884.400024414063
1030.89539440798	881.400024414063
1031.58800905216	882.599975585938
1032.28053606952	880.400024414063
1032.97297546784	883.200012207031
1033.66532725485	885
1034.35759143832	883.799987792969
1035.04976802602	882.400024414063
1035.7418570257	883
1036.43385844511	882.599975585938
1037.12577229202	885.200012207031
1037.81759857419	883.400024414063
1038.50933729937	885
1039.20098847531	883.400024414063
1039.89255210978	882.200012207031
1040.58402821053	883.799987792969
1041.27541678532	884.200012207031
1041.96671784191	883.400024414063
1042.65793138804	884
1043.34905743147	884.599975585938
1044.04009597996	881.599975585938
1044.73104704125	883.400024414063
1045.42191062312	883.599975585938
1046.1126867333	884.400024414063
1046.80337537955	880.599975585938
1047.49397656962	881.799987792969
1048.18449031127	884.599975585938
1048.87491661225	883.400024414063
1049.5652554803	882.200012207031
1050.25550692319	880.200012207031
1050.94567094865	879.799987792969
1051.63574756444	880
1052.32573677832	879.799987792969
1053.01563859803	879.799987792969
1053.70545303131	880
1054.39518008592	880.200012207031
1055.08481976961	878.200012207031
1055.77437209013	877.799987792969
1056.46383705522	881.200012207031
1057.15321467262	878.200012207031
1057.8425049501	878.599975585938
1058.53170789539	878.200012207031
1059.22082351624	876.599975585938
1059.9098518204	877
1060.59879281561	877.400024414063
1061.28764650962	877
1061.97641291016	878.200012207031
1062.665092025	878.599975585938
1063.35368386187	879.599975585938
1064.04218842851	878.200012207031
1064.73060573268	880.400024414063
1065.4189357821	879
1066.10717858452	879
1066.7953341477	878.599975585938
1067.48340247936	877.400024414063
1068.17138358725	879.400024414063
1068.85927747912	879.200012207031
1069.5470841627	879.799987792969
1070.23480364573	881.599975585938
1070.92243593595	882
1071.60998104111	881.599975585938
1072.29743896894	882.599975585938
1072.98480972718	881.799987792969
1073.67209332357	879.799987792969
1074.35928976585	880.400024414063
1075.04639906176	881.799987792969
1075.73342121903	880.599975585938
1076.42035624541	881.599975585938
1077.10720414862	879.599975585938
1077.79396493641	881
1078.48063861651	881.599975585938
1079.16722519666	880
1079.85372468459	877.200012207031
1080.54013708804	879.599975585938
1081.22646241474	878
1081.91270067243	876.200012207031
1082.59885186884	877.200012207031
1083.28491601171	878.200012207031
1083.97089310877	878.799987792969
1084.65678316774	878.799987792969
1085.34258619637	876.400024414063
1086.02830220239	876
1086.71393119352	876
1087.39947317751	878.799987792969
1088.08492816207	877.599975585938
1088.77029615495	874.400024414063
1089.45557716387	877.400024414063
1090.14077119656	877.799987792969
1090.82587826075	876.799987792969
1091.51089836417	877.799987792969
1092.19583151456	876.400024414063
1092.88067771963	877.400024414063
1093.56543698712	876.200012207031
1094.25010932475	877.200012207031
1094.93469474026	876.200012207031
1095.61919324137	878.599975585938
1096.3036048358	878.200012207031
1096.98792953129	877.400024414063
1097.67216733555	880.200012207031
1098.35631825632	878.400024414063
1099.04038230132	879.799987792969
1099.72435947828	877
1100.40824979492	876.799987792969
1101.09205325895	877.799987792969
1101.77576987812	880
1102.45939966014	877
1103.14294261273	878.599975585938
1103.82639874362	879
1104.50976806054	875
1105.19305057119	877.599975585938
1105.87624628331	877.599975585938
1106.55935520461	876.400024414063
1107.24237734283	878.200012207031
1107.92531270566	878.599975585938
1108.60816130085	878.799987792969
1109.2909231361	878.400024414063
1109.97359821914	880.200012207031
1110.65618655768	878
1111.33868815946	878.200012207031
1112.02110303217	879.200012207031
1112.70343118355	878
1113.3856726213	879.599975585938
1114.06782735316	880.799987792969
1114.74989538683	880.400024414063
1115.43187673002	881.400024414063
1116.11377139047	877.599975585938
1116.79557937588	880.200012207031
1117.47730069397	880.599975585938
1118.15893535245	881
1118.84048335904	880.799987792969
1119.52194472146	881
1120.20331944741	881.799987792969
1120.88460754462	882.400024414063
1121.56580902079	879.799987792969
1122.24692388364	880.200012207031
1122.92795214088	880.400024414063
1123.60889380022	879.799987792969
1124.28974886938	882.400024414063
1124.97051735606	880.200012207031
1125.65119926799	883.799987792969
1126.33179461286	886.400024414063
1127.0123033984	880.799987792969
1127.6927256323	885.200012207031
1128.37306132229	881.599975585938
1129.05331047606	880.400024414063
1129.73347310134	883
1130.41354920582	883.400024414063
1131.09353879722	883.200012207031
1131.77344188324	883.200012207031
1132.45325847159	881.599975585938
1133.13298856999	885.400024414063
1133.81263218612	883
1134.49218932772	883.799987792969
1135.17166000247	886.200012207031
1135.85104421809	885
1136.53034198227	884.200012207031
1137.20955330274	884.599975585938
1137.88867818718	884.599975585938
1138.56771664331	883.799987792969
1139.24666867883	883.200012207031
1139.92553430144	882.799987792969
1140.60431351885	881.200012207031
1141.28300633876	882.200012207031
1141.96161276887	881.200012207031
1142.64013281689	883.599975585938
1143.31856649051	882.400024414063
1143.99691379744	884.599975585938
1144.67517474538	881.599975585938
1145.35334934203	882.400024414063
1146.03143759509	882.400024414063
1146.70943951226	883.200012207031
1147.38735510125	885
1148.06518436974	882.799987792969
1148.74292732545	885.400024414063
1149.42058397606	884.200012207031
1150.09815432928	879.599975585938
1150.7756383928	880.200012207031
1151.45303617432	885.200012207031
1152.13034768155	887.400024414063
1152.80757292217	885.599975585938
1153.48471190389	886.599975585938
1154.16176463439	889.200012207031
1154.83873112138	887.799987792969
1155.51561137255	885.400024414063
1156.1924053956	884.200012207031
1156.86911319822	886
1157.5457347881	885.799987792969
1158.22227017294	884.599975585938
1158.89871936044	882.200012207031
1159.57508235828	885
1160.25135917416	884.200012207031
1160.92754981578	883
1161.60365429081	883.200012207031
1162.27967260697	882.200012207031
1162.95560477193	883.200012207031
1163.63145079339	880.799987792969
1164.30721067904	884.400024414063
1164.98288443657	882.200012207031
1165.65847207367	880.799987792969
1166.33397359803	883
1167.00938901735	882
1167.6847183393	879.400024414063
1168.35996157157	881.799987792969
1169.03511872187	881.599975585938
1169.71018979787	883.200012207031
1170.38517480726	882.200012207031
1171.06007375773	881
1171.73488665696	880.599975585938
1172.40961351265	880.799987792969
1173.08425433247	878.599975585938
1173.75880912412	880.799987792969
1174.43327789528	879.799987792969
1175.10766065364	880
1175.78195740687	882.599975585938
1176.45616816267	880.400024414063
1177.13029292871	880.599975585938
1177.80433171269	879.599975585938
1178.47828452229	879.599975585938
1179.15215136518	881.799987792969
1179.82593224905	878.599975585938
1180.49962718159	882
1181.17323617047	882.599975585938
1181.84675922337	883.200012207031
1182.52019634799	879.799987792969
1183.193547552	878.599975585938
1183.86681284307	881.200012207031
1184.53999222889	878.200012207031
1185.21308571714	881
1185.8860933155	879.599975585938
1186.55901503165	881.599975585938
1187.23185087326	880.799987792969
1187.90460084802	879.799987792969
1188.5772649636	879.200012207031
1189.24984322768	880.799987792969
1189.92233564794	880.599975585938
1190.59474223206	882.799987792969
1191.2670629877	881.400024414063
1191.93929792255	879.799987792969
1192.61144704428	880.400024414063
1193.28351036058	882.400024414063
1193.9554878791	880.599975585938
1194.62737960754	882.799987792969
1195.29918555356	880.799987792969
1195.97090572483	880.799987792969
1196.64254012903	884.200012207031
1197.31408877384	882.400024414063
1197.98555166693	879.799987792969
1198.65692881596	879
1199.32822022862	880.799987792969
1199.99942591256	881.200012207031
1200.67054587548	881.200012207031
1201.34158012503	879.400024414063
1202.01252866889	880.599975585938
1202.68339151473	882.400024414063
1203.35416867021	883.400024414063
1204.02486014301	882.599975585938
1204.6954659408	882.799987792969
1205.36598607124	881
1206.03642054201	883
1206.70676936078	882.799987792969
1207.3770325352	882.799987792969
1208.04721007295	882.200012207031
1208.7173019817	879.400024414063
1209.38730826911	880.200012207031
1210.05722894285	880.799987792969
1210.72706401059	882.599975585938
1211.39681347999	880.599975585938
1212.06647735872	881.200012207031
1212.73605565444	880.799987792969
1213.40554837481	882.400024414063
1214.07495552751	882.599975585938
1214.74427712019	881.799987792969
1215.41351316052	881.599975585938
1216.08266365617	880.799987792969
1216.75172861479	882.799987792969
1217.42070804405	880
1218.0896019516	880.799987792969
1218.75841034513	879.400024414063
1219.42713323227	885
1220.0957706207	881.599975585938
1220.76432251808	883.799987792969
1221.43278893207	884.799987792969
1222.10116987032	884.799987792969
1222.7694653405	883.599975585938
1223.43767535026	885
1224.10579990727	885.200012207031
1224.77383901918	884
1225.44179269366	884.599975585938
1226.10966093835	885.599975585938
1226.77744376093	883.799987792969
1227.44514116904	886.200012207031
1228.11275317034	883.799987792969
1228.78027977249	885.599975585938
1229.44772098315	885.200012207031
1230.11507680996	881.799987792969
1230.7823472606	884.200012207031
1231.44953234271	883.599975585938
1232.11663206394	884.400024414063
1232.78364643195	882.799987792969
1233.4505754544	886.200012207031
1234.11741913894	887.200012207031
1234.78417749322	884
1235.45085052489	887.400024414063
1236.11743824162	885.200012207031
1236.78394065104	890
1237.45035776082	884.200012207031
1238.1166895786	887.599975585938
1238.78293611204	887.599975585938
1239.44909736878	886
1240.11517335648	885
1240.78116408279	886
1241.44706955535	885
1242.11288978182	888
1242.77862476985	885.400024414063
1243.44427452708	887.200012207031
1244.10983906116	885.799987792969
1244.77531837974	887.400024414063
1245.44071249047	885.799987792969
1246.106021401	886.200012207031
1246.77124511898	885.200012207031
1247.43638365204	885.200012207031
1248.10143700783	886.599975585938
1248.76640519401	885.599975585938
1249.43128821822	885.200012207031
1250.0960860881	884.599975585938
1250.76079881129	886.200012207031
1251.42542639545	885
1252.08996884822	885.400024414063
1252.75442617723	887
1253.41879839014	887
1254.08308549458	886.599975585938
1254.74728749821	888.400024414063
1255.41140440866	886.599975585938
1256.07543623357	887.599975585938
1256.73938298059	885
1257.40324465735	887.799987792969
1258.0670212715	888.200012207031
1258.73071283068	887.799987792969
1259.39431934253	885.799987792969
1260.05784081468	884.200012207031
1260.72127725479	884.599975585938
1261.38462867049	883.400024414063
1262.0478950694	885.400024414063
1262.71107645919	884.400024414063
1263.37417284748	882
1264.03718424191	882.599975585938
1264.70011065011	885
1265.36295207974	883.799987792969
1266.02570853841	882.799987792969
1266.68838003378	884.400024414063
1267.35096657346	883.599975585938
1268.01346816511	882.400024414063
1268.67588481636	882.599975585938
1269.33821653483	882
1270.00046332817	883
1270.66262520401	882.599975585938
1271.32470216998	882.599975585938
1271.98669423372	882.200012207031
1272.64860140285	881.599975585938
1273.31042368503	883.400024414063
1273.97216108786	885.400024414063
1274.633813619	884.599975585938
1275.29538128606	884
1275.95686409669	881.799987792969
1276.6182620585	883.599975585938
1277.27957517914	883.200012207031
1277.94080346624	885.599975585938
1278.60194692741	884.400024414063
1279.2630055703	882.400024414063
1279.92397940253	885
1280.58486843173	885
1281.24567266552	886.400024414063
1281.90639211155	882.599975585938
1282.56702677743	884.200012207031
1283.2275766708	885
1283.88804179927	884
1284.54842217049	884.200012207031
1285.20871779206	884.400024414063
1285.86892867163	886.200012207031
1286.52905481681	883.599975585938
1287.18909623523	886.200012207031
1287.84905293452	886.799987792969
1288.5089249223	885.599975585938
1289.16871220619	883.200012207031
1289.82841479383	886.799987792969
1290.48803269282	886.400024414063
1291.1475659108	884.599975585938
1291.80701445539	884
1292.46637833421	885.400024414063
1293.12565755489	882.799987792969
1293.78485212504	887.200012207031
1294.44396205229	886.799987792969
1295.10298734425	889.400024414063
1295.76192800856	888
1296.42078405283	889.200012207031
1297.07955548467	888.200012207031
1297.73824231171	888.599975585938
1298.39684454158	888.400024414063
1299.05536218188	890
1299.71379524023	890.200012207031
1300.37214372427	889.200012207031
1301.03040764159	889
1301.68858699983	887.400024414063
1302.34668180659	890.400024414063
1303.0046920695	888.599975585938
1303.66261779617	889
1304.32045899422	889.200012207031
1304.97821567126	888.799987792969
1305.63588783492	888.400024414063
1306.29347549279	890.200012207031
1306.95097865251	888.599975585938
1307.60839732168	889.400024414063
1308.26573150791	891.799987792969
1308.92298121883	892.200012207031
1309.58014646204	891
1310.23722724517	889.799987792969
1310.89422357581	892.599975585938
1311.55113546158	891.200012207031
1312.2079629101	889.200012207031
1312.86470592898	891.400024414063
1313.52136452582	891
1314.17793870824	891
1314.83442848386	889.599975585938
1315.49083386027	889.799987792969
1316.14715484509	889.799987792969
1316.80339144594	892
1317.45954367041	892.400024414063
1318.11561152611	891.799987792969
1318.77159502067	893.200012207031
1319.42749416168	892.599975585938
1320.08330895674	890
1320.73903941348	889.200012207031
1321.3946855395	890.400024414063
1322.0502473424	891.599975585938
1322.70572482978	891.599975585938
1323.36111800926	895.599975585938
1324.01642688845	895.400024414063
1324.67165147494	895.799987792969
1325.32679177634	892.799987792969
1325.98184780025	892.200012207031
1326.63681955429	892.200012207031
1327.29170704605	893.799987792969
1327.94651028314	894.400024414063
1328.60122927316	892.599975585938
1329.25586402371	890.200012207031
1329.9104145424	890
1330.56488083683	893.400024414063
1331.2192629146	892
1331.87356078331	890.799987792969
1332.52777445056	889.799987792969
1333.18190392395	888.799987792969
1333.83594921109	886.599975585938
1334.48991031958	891
1335.143787257	890.599975585938
1335.79758003097	888.599975585938
1336.45128864908	890
1337.10491311893	892
1337.75845344813	890.200012207031
1338.41190964425	888.400024414063
1339.06528171491	891
1339.71856966771	887.200012207031
1340.37177351023	889.799987792969
1341.02489325007	890.799987792969
1341.67792889484	889
1342.33088045212	889.200012207031
1342.98374792952	890
1343.63653133462	889
1344.28923067503	891.200012207031
1344.94184595833	889.400024414063
1345.59437719212	888.200012207031
1346.246824384	889.400024414063
1346.89918754155	888.400024414063
1347.55146667238	889.200012207031
1348.20366178407	888.799987792969
1348.85577288421	889
1349.50779998041	890.599975585938
1350.15974308024	892.599975585938
1350.8116021913	889.799987792969
1351.46337732119	894.200012207031
1352.11506847748	890.599975585938
1352.76667566778	889
1353.41819889967	890.400024414063
1354.06963818074	890.200012207031
1354.72099351858	886
1355.37226492079	889
1356.02345239494	888.599975585938
1356.67455594862	891.200012207031
1357.32557558943	889
1357.97651132496	892.400024414063
1358.62736316277	892.200012207031
1359.27813111048	891.400024414063
1359.92881517565	891.200012207031
1360.57941536589	889.400024414063
1361.22993168876	892.200012207031
1361.88036415186	891.200012207031
1362.53071276278	893.200012207031
1363.1809775291	894.400024414063
1363.8311584584	892
1364.48125555826	890.200012207031
1365.13126883627	889.599975585938
1365.78119830001	891.400024414063
1366.43104395707	890.799987792969
1367.08080581503	892.599975585938
1367.73048388147	891.799987792969
1368.38007816397	892.799987792969
1369.02958867011	889.599975585938
1369.67901540748	889.799987792969
1370.32835838365	893.200012207031
1370.9776176062	888.599975585938
1371.62679308273	893
1372.27588482079	888.599975585938
1372.92489282798	889.799987792969
1373.57381711188	890.599975585938
1374.22265768006	890.200012207031
1374.87141454009	891
1375.52008769957	892.599975585938
1376.16867716606	888.799987792969
1376.81718294715	888.400024414063
1377.4656050504	891.400024414063
1378.1139434834	892
1378.76219825373	891
1379.41036936895	893.799987792969
1380.05845683664	894.599975585938
1380.70646066439	892.799987792969
1381.35438085976	896.799987792969
1382.00221743032	898.599975585938
1382.64997038366	896.599975585938
1383.29763972735	896.599975585938
1383.94522546895	894.200012207031
1384.59272761605	894.799987792969
1385.24014617621	892.200012207031
1385.88748115701	895.799987792969
1386.53473256602	894.599975585938
1387.18190041081	896.599975585938
1387.82898469895	897.599975585938
1388.47598543802	897.200012207031
1389.12290263558	893.599975585938
1389.7697362992	897
1390.41648643646	893.400024414063
1391.06315305492	898.599975585938
1391.70973616215	896.200012207031
1392.35623576573	895
1393.00265187321	895.400024414063
1393.64898449217	897.799987792969
1394.29523363018	900.599975585938
1394.94139929481	898.200012207031
1395.58748149361	897
1396.23348023415	892.599975585938
1396.87939552402	896.799987792969
1397.52522737076	894.799987792969
1398.17097578195	894.799987792969
1398.81664076514	894.400024414063
1399.46222232792	895.200012207031
1400.10772047783	894.200012207031
1400.75313522245	891.599975585938
1401.39846656934	894.599975585938
1402.04371452605	897
1402.68887910016	898.400024414063
1403.33396029924	892
1403.97895813083	896.400024414063
1404.6238726025	894
1405.26870372182	894
1405.91345149634	896.599975585938
1406.55811593363	893
1407.20269704125	894.200012207031
1407.84719482676	892
1408.49160929772	889.599975585938
1409.13594046168	895.200012207031
1409.78018832622	895.200012207031
1410.42435289887	894.799987792969
1411.06843418722	894.599975585938
1411.7124321988	893.799987792969
1412.3563469412	897
1413.00017842194	897.200012207031
1413.64392664861	899.200012207031
1414.28759162875	895.599975585938
1414.93117336992	897
1415.57467187967	896.799987792969
1416.21808716557	895.200012207031
1416.86141923516	895
1417.50466809601	896.599975585938
1418.14783375567	893.200012207031
1418.79091622169	898.799987792969
1419.43391550162	899.799987792969
1420.07683160303	896.799987792969
1420.71966453346	897.200012207031
1421.36241430046	898.400024414063
1422.0050809116	899.799987792969
1422.64766437442	901.599975585938
1423.29016469647	901.799987792969
1423.93258188531	900.799987792969
1424.57491594848	904.599975585938
1425.21716689354	902.200012207031
1425.85933472805	904.599975585938
1426.50141945954	905.599975585938
1427.14342109557	902
1427.78533964369	900.200012207031
1428.42717511144	903.799987792969
1429.06892750639	903.599975585938
1429.71059683607	900.400024414063
1430.35218310803	901.400024414063
1430.99368632983	901
1431.635106509	902.599975585938
1432.2764436531	903.599975585938
1432.91769776967	903.200012207031
1433.55886886627	899.200012207031
1434.19995695043	904.799987792969
1434.84096202969	903.200012207031
1435.48188411162	905
1436.12272320375	904.799987792969
1436.76347931363	901.799987792969
1437.40415244879	904.799987792969
1438.0447426168	902
1438.68524982518	903.400024414063
1439.32567408148	902.400024414063
1439.96601539325	900.799987792969
1440.60627376803	899.799987792969
1441.24644921336	900.400024414063
1441.88654173678	900.400024414063
1442.52655134583	899.200012207031
1443.16647804806	899.799987792969
1443.806321851	899.200012207031
1444.4460827622	901.200012207031
1445.0857607892	900
1445.72535593953	903
1446.36486822074	897.400024414063
1447.00429764037	899
1447.64364420595	900.599975585938
1448.28290792502	900.599975585938
1448.92208880512	902.400024414063
1449.56118685379	899.799987792969
1450.20020207857	898.200012207031
1450.83913448699	901.599975585938
1451.47798408659	898
1452.1167508849	903.599975585938
1452.75543488947	897.799987792969
1453.39403610782	899.200012207031
1454.0325545475	896.799987792969
1454.67099021603	898.200012207031
1455.30934312097	903.599975585938
1455.94761326982	900.400024414063
1456.58580067014	898
1457.22390532945	898.599975585938
1457.86192725529	896.799987792969
1458.49986645519	898.400024414063
1459.13772293668	897.400024414063
1459.7754967073	901
1460.41318777457	895.799987792969
1461.05079614604	898.599975585938
1461.68832182922	899.799987792969
1462.32576483166	896.200012207031
1462.96312516087	897
1463.6004028244	895.799987792969
1464.23759782977	899.400024414063
1464.8747101845	895.799987792969
1465.51173989614	898.200012207031
1466.14868697221	897.200012207031
1466.78555142024	897.400024414063
1467.42233324774	895.799987792969
1468.05903246227	895.799987792969
1468.69564907133	896.599975585938
1469.33218308246	895.599975585938
1469.96863450317	895.400024414063
1470.60500334102	898
1471.2412896035	897.799987792969
1471.87749329816	897
1472.51361443251	896.400024414063
1473.14965301409	895.599975585938
1473.78560905041	895
1474.421482549	897.400024414063
1475.05727351739	894.599975585938
1475.69298196309	893.200012207031
1476.32860789364	894.200012207031
1476.96415131654	895.400024414063
1477.59961223934	897.200012207031
1478.23499066954	895.200012207031
1478.87028661467	898.599975585938
1479.50550008226	894.799987792969
1480.14063107981	896.400024414063
1480.77567961486	895.400024414063
1481.41064569492	893.599975585938
1482.04552932752	894.799987792969
1482.68033052017	894
1483.31504928039	897.400024414063
1483.9496856157	897.400024414063
1484.58423953363	899
1485.21871104168	895.599975585938
1485.85310014738	895.400024414063
1486.48740685824	895.400024414063
1487.12163118178	895.599975585938
1487.75577312553	892.799987792969
1488.38983269698	892.799987792969
1489.02380990367	890.200012207031
1489.65770475311	892.400024414063
1490.29151725281	892.400024414063
1490.92524741029	891.799987792969
1491.55889523306	894.599975585938
1492.19246072863	893.599975585938
1492.82594390453	891.799987792969
1493.45934476826	891.599975585938
1494.09266332734	891.200012207031
1494.72589958928	892.799987792969
1495.3590535616	891
1495.99212525181	893
1496.62511466741	891.200012207031
1497.25802181592	892.200012207031
1497.89084670485	895.599975585938
1498.52358934172	891.799987792969
1499.15624973403	891.200012207031
1499.7888278893	893.599975585938
1500.42132381503	892.799987792969
1501.05373751873	891.599975585938
1501.68606900792	890.599975585938
1502.31831829009	890.799987792969
1502.95048537277	891.599975585938
1503.58257026346	893.799987792969
1504.21457296966	890.200012207031
1504.84649349889	890.400024414063
1505.47833185864	889.799987792969
1506.11008805644	889.799987792969
1506.74176209978	890.599975585938
1507.37335399617	890.799987792969
1508.00486375312	891.200012207031
1508.63629137813	890.200012207031
1509.2676368787	890.799987792969
1509.89890026235	890.200012207031
1510.53008153658	891.400024414063
1511.16118070889	891.799987792969
1511.79219778677	890.400024414063
1512.42313277775	890.599975585938
1513.05398568932	888.599975585938
1513.68475652898	886.799987792969
1514.31544530424	891.200012207031
1514.9460520226	889.200012207031
1515.57657669155	889
1516.20701931861	888
1516.83737991127	888.799987792969
1517.46765847702	890.200012207031
1518.09785502339	892
1518.72796955785	892
1519.35800208792	889.799987792969
1519.98795262109	890.200012207031
1520.61782116486	889.599975585938
1521.24760772673	887.799987792969
1521.87731231419	890.599975585938
1522.50693493475	888.799987792969
1523.1364755959	887.400024414063
1523.76593430514	890.599975585938
1524.39531106997	888.599975585938
1525.02460589788	892
1525.65381879637	887.400024414063
1526.28294977293	888.799987792969
1526.91199883507	886.799987792969
1527.54096599027	885.599975585938
1528.16985124603	885
1528.79865460984	884.599975585938
1529.4273760892	889.799987792969
1530.05601569161	885
1530.68457342455	885.200012207031
1531.31304929552	887.799987792969
1531.94144331201	884.599975585938
1532.56975548151	886
1533.19798581152	884.599975585938
1533.82613430953	886.599975585938
1534.45420098302	883.200012207031
1535.08218583949	887.400024414063
1535.71008888643	888
1536.33791013134	887
1536.96564958169	886
1537.59330724498	885.599975585938
1538.22088312871	885
1538.84837724034	886.599975585938
1539.47578958739	883.799987792969
1540.10312017733	885.200012207031
1540.73036901765	885.400024414063
1541.35753611584	885
1541.98462147939	883
1542.61162511578	885.799987792969
1543.2385470325	887.599975585938
1543.86538723704	885.799987792969
1544.49214573688	885
1545.11882253951	886.400024414063
1545.74541765241	886
1546.37193108306	884.799987792969
1546.99836283896	887
1547.62471292758	883.799987792969
1548.25098135641	886
1548.87716813294	882
1549.50327326464	883.599975585938
1550.12929675899	884
1550.75523862349	884
1551.38109886561	884.200012207031
1552.00687749284	886.200012207031
1552.63257451264	885.200012207031
1553.25818993252	884.200012207031
1553.88372375994	884.400024414063
1554.50917600239	883.200012207031
1555.13454666734	883
1555.75983576228	883.200012207031
1556.38504329469	881.400024414063
1557.01016927204	881.799987792969
1557.63521370181	882.599975585938
1558.26017659149	883
1558.88505794854	882
1559.50985778045	883
1560.13457609469	883.599975585938
1560.75921289874	885
1561.38376820008	880.799987792969
1562.00824200618	880.400024414063
1562.63263432452	882
1563.25694516257	881.200012207031
1563.88117452781	880.200012207031
1564.50532242772	882
1565.12938886976	882.799987792969
1565.75337386141	882.799987792969
1566.37727741015	881.400024414063
1567.00109952345	882.400024414063
1567.62484020878	886
1568.24849947361	883.400024414063
1568.87207732542	883.599975585938
1569.49557377168	885.400024414063
1570.11898881986	884.400024414063
1570.74232247743	885.200012207031
1571.36557475186	883
1571.98874565062	886.200012207031
1572.61183518119	883.400024414063
1573.23484335103	885.400024414063
1573.85777016761	885.799987792969
1574.4806156384	884.400024414063
1575.10337977088	883.200012207031
1575.7260625725	883.599975585938
1576.34866405074	881.599975585938
1576.97118421306	882.200012207031
1577.59362306694	883.400024414063
1578.21598061984	884.400024414063
1578.83825687922	883.200012207031
1579.46045185255	881.400024414063
1580.08256554731	884.400024414063
1580.70459797094	883.400024414063
1581.32654913093	885.799987792969
1581.94841903473	885.400024414063
1582.57020768981	884.400024414063
1583.19191510364	881.799987792969
1583.81354128367	881.799987792969
1584.43508623737	882.799987792969
1585.05654997221	885.799987792969
1585.67793249564	883.200012207031
1586.29923381514	882.200012207031
1586.92045393815	882.599975585938
1587.54159287216	882.200012207031
1588.1626506246	885.599975585938
1588.78362720296	886.400024414063
1589.40452261468	884
1590.02533686724	883.799987792969
1590.64606996808	883.599975585938
1591.26672192467	883.400024414063
1591.88729274447	886
1592.50778243493	883.599975585938
1593.12819100352	885.599975585938
1593.7485184577	885.200012207031
1594.36876480492	884.799987792969
1594.98893005264	889.799987792969
1595.60901420832	884
1596.22901727941	885.200012207031
1596.84893927338	888
1597.46878019767	887.799987792969
1598.08854005975	887
1598.70821886707	886
1599.32781662708	886.200012207031
1599.94733334725	885.400024414063
1600.56676903502	890
1601.18612369785	887.799987792969
1601.8053973432	886.400024414063
1602.42458997851	886
1603.04370161124	884.799987792969
1603.66273224884	885.799987792969
1604.28168189878	885.799987792969
1604.90055056849	887.599975585938
1605.51933826543	887.200012207031
1606.13804499705	886.799987792969
1606.75667077081	886.799987792969
1607.37521559415	889.599975585938
1607.99367947452	889.599975585938
1608.61206241938	891.200012207031
1609.23036443618	891.200012207031
1609.84858553236	890.599975585938
1610.46672571537	891
1611.08478499267	893.599975585938
1611.7027633717	890.799987792969
1612.3206608599	892.400024414063
1612.93847746473	892.400024414063
1613.55621319364	895.200012207031
1614.17386805407	898.200012207031
1614.79144205347	895.200012207031
1615.40893519928	896.200012207031
1616.02634749895	900
1616.64367895993	897.400024414063
1617.26092958966	899.200012207031
1617.87809939559	904
1618.49518838516	904.400024414063
1619.11219656582	906.400024414063
1619.729123945	910.799987792969
1620.34597053016	908.799987792969
1620.96273632874	907.799987792969
1621.57942134818	910.799987792969
1622.19602559592	912.400024414063
1622.8125490794	909.799987792969
1623.42899180607	913.799987792969
1624.04535378337	916.799987792969
1624.66163501874	914.599975585938
1625.27783551963	912.799987792969
1625.89395529346	913.799987792969
1626.50999434768	915
1627.12595268974	913.799987792969
1627.74183032707	911
1628.3576272671	906
1628.97334351729	903.799987792969
1629.58897908506	903.400024414063
1630.20453397786	903.599975585938
1630.82000820313	899.200012207031
1631.43540176829	898.599975585938
1632.05071468079	897.200012207031
1632.66594694807	893.400024414063
1633.28109857756	891.200012207031
1633.8961695767	889.799987792969
1634.51115995292	889
1635.12606971366	888.200012207031
1635.74089886636	889.200012207031
1636.35564741844	886.799987792969
1636.97031537734	883.400024414063
1637.58490275051	883.400024414063
1638.19940954536	883.599975585938
1638.81383576934	879.599975585938
1639.42818142987	883.799987792969
1640.0424465344	881.400024414063
1640.65663109034	880.200012207031
1641.27073510515	877.599975585938
1641.88475858623	878.599975585938
1642.49870154104	879.799987792969
1643.11256397699	878.200012207031
1643.72634590152	879.200012207031
1644.34004732206	879.599975585938
1644.95366824604	878.799987792969
1645.56720868089	879.599975585938
1646.18066863404	877
1646.79404811291	877.400024414063
1647.40734712494	877.200012207031
1648.02056567755	878.200012207031
1648.63370377817	877.599975585938
1649.24676143423	876.799987792969
1649.85973865316	874
1650.47263544238	874.599975585938
1651.08545180932	875.599975585938
1651.6981877614	875
1652.31084330606	874.400024414063
1652.92341845071	878.400024414063
1653.53591320278	876.599975585938
1654.1483275697	876
1654.7606615589	875.200012207031
1655.37291517778	875.200012207031
1655.98508843379	876.799987792969
1656.59718133434	874.799987792969
1657.20919388685	875.599975585938
1657.82112609875	874.400024414063
1658.43297797747	877.400024414063
1659.04474953041	875.599975585938
1659.65644076501	877
1660.26805168869	876.200012207031
1660.87958230886	873
1661.49103263294	876.200012207031
1662.10240266837	874.400024414063
1662.71369242255	873
1663.32490190291	876.799987792969
1663.93603111687	874.400024414063
1664.54708007184	873.400024414063
1665.15804877524	874.599975585938
1665.7689372345	872.400024414063
1666.37974545703	873
1666.99047345024	872.400024414063
1667.60112122156	872.400024414063
1668.2116887784	872.799987792969
1668.82217612818	874.799987792969
1669.43258327831	872.799987792969
1670.04291023622	871.400024414063
1670.65315700931	871.400024414063
1671.263323605	874
1671.8734100307	870.799987792969
1672.48341629384	875
1673.09334240182	874
1673.70318836206	871.400024414063
1674.31295418197	871.400024414063
1674.92263986896	873.200012207031
1675.53224543046	872.599975585938
1676.14177087386	871.599975585938
1676.75121620658	872
1677.36058143604	872.400024414063
1677.96986656964	872.599975585938
1678.5790716148	873.599975585938
1679.18819657892	871
1679.79724146943	871.599975585938
1680.40620629372	872.200012207031
1681.0150910592	871.599975585938
1681.6238957733	871.200012207031
1682.23262044341	871.799987792969
1682.84126507694	870.599975585938
1683.4498296813	871.599975585938
1684.0583142639	871.799987792969
1684.66671883216	871.799987792969
1685.27504339346	870
1685.88328795523	871.599975585938
1686.49145252487	872.200012207031
1687.09953710978	872.599975585938
1687.70754171737	870
1688.31546635505	871
1688.92331103021	870.400024414063
1689.53107575028	871.200012207031
1690.13876052265	872.200012207031
1690.74636535472	871.400024414063
1691.3538902539	872
1691.96133522759	872.200012207031
1692.5687002832	872.799987792969
1693.17598542812	871.599975585938
1693.78319066977	872.200012207031
1694.39031601554	871.400024414063
1694.99736147283	871.599975585938
1695.60432704905	871.400024414063
1696.2112127516	872.799987792969
1696.81801858788	868.799987792969
1697.42474456528	870.400024414063
1698.03139069121	872.400024414063
1698.63795697307	872.599975585938
1699.24444341826	873.200012207031
1699.85085003417	872.799987792969
1700.45717682821	869.200012207031
1701.06342380778	870.599975585938
1701.66959098026	870.400024414063
1702.27567835307	870.200012207031
1702.88168593359	870.599975585938
1703.48761372922	870.799987792969
1704.09346174737	869
1704.69922999542	868.799987792969
1705.30491848077	868.400024414063
1705.91052721083	868.400024414063
1706.51605619297	869.799987792969
1707.12150543461	869.599975585938
1707.72687494312	870.799987792969
1708.33216472592	870.200012207031
1708.93737479039	870.799987792969
1709.54250514392	870
