634.977642221345	861.400024414063
635.719821695905	860.799987792969
636.461909203392	861.200012207031
637.203904751776	862
637.945808349023	861.799987792969
638.687620003102	860.799987792969
639.42933972198	861.799987792969
640.170967513616	861
640.912503385981	861.599975585938
641.653947347041	860.599975585938
642.395299404758	861.599975585938
643.13655956709	862
643.877727842014	862.400024414063
644.61880423748	862.400024414063
645.359788761455	861.200012207031
646.100681421905	860.200012207031
646.841482226789	863
647.582191184074	860.200012207031
648.322808301711	861.599975585938
649.06333358767	861.599975585938
649.803767049909	862.799987792969
650.544108696385	862.799987792969
651.28435853506	861.799987792969
652.024516573894	860.599975585938
652.764582820849	862
653.504557283875	861.799987792969
654.244439970937	861.200012207031
654.984230889991	860.599975585938
655.723930048995	862
656.463537455909	861.400024414063
657.203053118683	861.200012207031
657.942477045275	862
658.681809243647	862.400024414063
659.421049721747	860.799987792969
660.160198487535	861.400024414063
660.899255548962	861.400024414063
661.638220913985	863.200012207031
662.377094590559	862
663.115876586631	861
663.854566910165	863.200012207031
664.593165569107	862
665.331672571406	862.400024414063
666.07008792502	863.400024414063
666.808411637902	861
667.546643717996	862.599975585938
668.284784173258	862.599975585938
669.022833011641	863.799987792969
669.760790241089	862.599975585938
670.498655869554	862
671.236429904987	863.599975585938
671.97411235534	861.599975585938
672.711703228551	862.200012207031
673.449202532577	863
674.186610275364	862.599975585938
674.923926464857	862.400024414063
675.661151109008	863.599975585938
676.398284215759	863
677.135325793058	862.799987792969
677.87227584885	862.599975585938
678.609134391082	862.799987792969
679.345901427696	861.599975585938
680.082576966644	862
680.819161015861	861.799987792969
681.555653583298	861.599975585938
682.292054676895	862.599975585938
683.028364304594	861.200012207031
683.764582474344	862
684.500709194083	861
685.236744471752	862.200012207031
685.972688315294	861.599975585938
686.708540732652	861.200012207031
687.444301731762	863
688.179971320572	861.200012207031
688.915549507013	861.200012207031
689.651036299034	862.599975585938
690.386431704569	862.400024414063
691.121735731559	861.599975585938
691.85694838794	861.200012207031
692.592069681652	860.400024414063
693.327099620632	861.599975585938
694.062038212821	862
694.796885466149	861.200012207031
695.531641388561	861.599975585938
696.266305987987	862
697.000879272367	862.200012207031
697.735361249632	861.799987792969
698.469751927722	862.599975585938
699.204051314568	859.799987792969
699.938259418107	862.400024414063
700.672376246272	861.200012207031
701.406401806997	861.599975585938
702.140336108212	861.599975585938
702.874179157855	861.599975585938
703.607930963856	860.799987792969
704.341591534147	861
705.07516087666	861.400024414063
705.808638999324	861.599975585938
706.542025910073	860.599975585938
707.275321616841	861
708.008526127549	861.599975585938
708.741639450132	860
709.474661592521	860.599975585938
710.207592562641	860.799987792969
710.940432368424	862
711.673181017796	862
712.405838518687	860.400024414063
713.138404879025	860.799987792969
713.870880106731	862.799987792969
714.603264209738	862.400024414063
715.335557195971	861.599975585938
716.067759073357	861.400024414063
716.799869849816	860.799987792969
717.531889533281	862
718.263818131673	860.799987792969
718.995655652917	860.799987792969
719.727402104934	861
720.45905749565	860
721.19062183299	862.200012207031
721.922095124877	860.599975585938
722.653477379231	861.599975585938
723.384768603973	860.799987792969
724.11596880703	861.599975585938
724.847077996319	862.799987792969
725.578096179762	860.400024414063
726.309023365281	860.599975585938
727.039859560792	861.400024414063
727.770604774222	862
728.501259013484	860.599975585938
729.231822286501	861.799987792969
729.962294601191	860.799987792969
730.692675965469	862
731.42296638726	861.599975585938
732.153165874472	860.799987792969
732.883274435032	861.599975585938
733.613292076851	862.400024414063
734.343218807843	861.400024414063
735.07305463593	861.599975585938
735.802799569028	861.400024414063
736.532453615048	861.200012207031
737.262016781904	861.200012207031
737.991489077517	861.200012207031
738.720870509794	861.599975585938
739.450161086654	862
740.179360816009	861.400024414063
740.908469705772	859.200012207031
741.637487763854	861.400024414063
742.366414998168	861
743.095251416623	861.400024414063
743.823997027137	861
744.552651837618	861.400024414063
745.281215855978	861
746.009689090124	860.799987792969
746.738071547964	862.400024414063
747.466363237419	860.400024414063
748.194564166384	861.599975585938
748.92267434278	862
749.650693774504	861.200012207031
750.378622469476	861.799987792969
751.106460435596	862
751.834207680771	861.400024414063
752.561864212909	861.400024414063
753.289430039919	861.599975585938
754.016905169707	862
754.744289610175	862
755.471583369231	861
756.198786454782	861.799987792969
756.925898874728	861.599975585938
757.652920636979	861.400024414063
758.379851749433	861.200012207031
759.106692219996	860.799987792969
759.833442056572	861.799987792969
760.560101267063	861.400024414063
761.28666985937	860.599975585938
762.0131478414	860
762.739535221046	861.200012207031
763.465832006219	861.799987792969
764.192038204812	860
764.918153824731	862
765.644178873872	862.599975585938
766.370113360138	864
767.095957291425	863.200012207031
767.821710675635	863.200012207031
768.547373520665	862.400024414063
769.272945834415	863.799987792969
769.998427624781	864
770.723818899658	863.400024414063
771.449119666949	863
772.174329934546	863.200012207031
772.899449710347	864.200012207031
773.624479002248	863.400024414063
774.349417818145	861.799987792969
775.074266165934	863.799987792969
775.799024053505	863.799987792969
776.523691488757	864
777.248268479582	863.400024414063
777.972755033877	863.400024414063
778.69715115953	862.599975585938
779.421456864441	862.200012207031
780.145672156493	860.799987792969
780.869797043587	862.400024414063
781.593831533611	861.799987792969
782.317775634457	863.599975585938
783.041629354012	862.799987792969
783.765392700174	862.599975585938
784.489065680828	862
785.212648303866	862.599975585938
785.936140577177	860.599975585938
786.659542508652	861.799987792969
787.382854106174	861.400024414063
788.106075377639	861.599975585938
788.829206330928	862.599975585938
789.552246973933	861.799987792969
790.275197314542	861.799987792969
790.998057360638	862.400024414063
791.720827120108	862.200012207031
792.443506600841	862
793.166095810722	861.400024414063
793.888594757635	861.599975585938
794.611003449465	861.200012207031
795.333321894098	861.400024414063
796.055550099417	861.799987792969
796.777688073308	861.400024414063
797.499735823654	861.200012207031
798.221693358334	860.799987792969
798.943560685235	861.799987792969
799.665337812239	862.599975585938
800.387024747226	862.799987792969
801.108621498075	861.200012207031
801.830128072674	862
802.551544478902	862
803.272870724636	862
803.994106817761	861.799987792969
804.715252766148	862.400024414063
805.436308577687	862.400024414063
806.157274260251	863.200012207031
806.878149821721	863
807.598935269973	862.400024414063
808.319630612886	863
809.040235858336	862.400024414063
809.760751014202	862.200012207031
810.481176088361	861.400024414063
811.201511088685	863
811.921756023059	861.200012207031
812.641910899347	862.599975585938
813.361975725432	862
814.081950509188	862.400024414063
814.801835258489	862.400024414063
815.521629981206	862.400024414063
816.241334685218	861.200012207031
816.960949378392	861
817.680474068606	860.599975585938
818.399908763731	861
819.11925347164	862
819.838508200202	862
820.55767295729	861.400024414063
821.276747750778	861
821.995732588531	861.799987792969
822.714627478425	862.200012207031
823.433432428327	862.200012207031
824.152147446105	861.400024414063
824.870772539632	862.799987792969
825.589307716775	862.799987792969
826.307752985404	862.200012207031
827.026108353378	863
827.744373828579	860.200012207031
828.462549418867	862
829.180635132107	861.799987792969
829.898630976168	861.599975585938
830.616536958915	863
831.334353088218	861.599975585938
832.052079371938	861.200012207031
832.769715817942	862.400024414063
833.487262434092	860.799987792969
834.204719228255	862.200012207031
834.922086208293	860.599975585938
835.639363382073	862
836.356550757456	862.200012207031
837.073648342304	862.799987792969
837.790656144484	861
838.507574171847	861
839.22440243227	860.599975585938
839.941140933601	862.200012207031
840.657789683706	860.200012207031
841.374348690448	862.400024414063
842.090817961686	861.599975585938
842.807197505276	862
843.523487329083	861.599975585938
844.23968744096	862.599975585938
844.955797848771	861.599975585938
845.671818560374	862.400024414063
846.387749583622	862
847.103590926378	861
847.819342596497	860.400024414063
848.535004601833	861.200012207031
849.25057695025	862
849.966059649598	862.599975585938
850.681452707735	860.200012207031
851.396756132513	861.599975585938
852.111969931789	862.200012207031
852.827094113419	862.200012207031
853.542128685257	862.200012207031
854.257073655158	862.599975585938
854.971929030969	861.799987792969
855.686694820551	862.799987792969
856.40137103175	863.799987792969
857.115957672423	864.599975585938
857.830454750423	864.599975585938
858.544862273597	862.599975585938
859.259180249797	863.200012207031
859.97340868688	863.599975585938
860.687547592688	864.799987792969
861.401596975075	864.400024414063
862.115556841891	863.400024414063
862.829427200985	863.200012207031
863.543208060205	864
864.256899427402	862
864.970501310423	863.799987792969
865.684013717114	864.799987792969
866.397436655325	862.799987792969
867.110770132901	862
867.824014157691	861.200012207031
868.537168737542	863.799987792969
869.250233880299	862.200012207031
869.963209593803	863.400024414063
870.676095885902	862.400024414063
871.388892764445	862.799987792969
872.101600237276	863.400024414063
872.814218312233	863.200012207031
873.526746997165	862.599975585938
874.239186299914	864
874.951536228323	862.400024414063
875.663796790231	862.799987792969
876.375967993487	862.799987792969
877.088049845928	862.599975585938
877.8000423554	862.599975585938
878.511945529739	862
879.22375937679	862.200012207031
879.935483904388	863
880.64711912038	861.799987792969
881.358665032604	864.599975585938
882.070121648892	863.200012207031
882.78148897709	863.400024414063
883.492767025039	864
884.203955800571	863.599975585938
884.915055311525	863
885.626065565741	863.599975585938
886.336986571053	864
887.047818335298	863
887.758560866315	864.599975585938
888.469214171937	862.799987792969
889.179778260005	862.599975585938
889.890253138347	863
890.600638814803	862.799987792969
891.310935297204	864.799987792969
892.021142593385	862.200012207031
892.731260711183	862.599975585938
893.441289658429	862.799987792969
894.15122944295	864
894.861080072591	863
895.570841555173	864.200012207031
896.280513898534	864.599975585938
896.990097110503	864.400024414063
897.699591198913	863.599975585938
898.408996171595	864.400024414063
899.118312036375	863.200012207031
899.827538801089	864
900.536676473561	863
901.245725061628	863.599975585938
901.954684573109	863.799987792969
902.663555015838	864.400024414063
903.372336397644	863.200012207031
904.081028726351	864.400024414063
904.789632009793	862.200012207031
905.49814625579	864.200012207031
906.20657147217	862.799987792969
906.914907666765	864
907.623154847391	864.200012207031
908.331313021885	862.799987792969
909.039382198064	864.200012207031
909.747362383754	863
910.455253586782	863.599975585938
911.163055814972	862.400024414063
911.870769076143	863.200012207031
912.578393378126	862.200012207031
913.285928728738	862.799987792969
913.993375135802	863.400024414063
914.700732607145	863.200012207031
915.408001150579	863.599975585938
916.115180773937	862.599975585938
916.822271485037	863.200012207031
917.529273291693	863
918.236186201733	863.400024414063
918.943010222971	862.799987792969
919.649745363234	861
920.356391630333	862.599975585938
921.062949032096	861.599975585938
921.769417576333	862.400024414063
922.475797270864	861.400024414063
923.182088123512	863
923.888290142089	862.200012207031
924.594403334414	863
925.300427708304	861.400024414063
926.006363271572	863
926.712210032039	862.599975585938
927.417967997522	860.599975585938
928.123637175827	861.200012207031
928.829217574776	862
929.534709202184	861
930.240112065859	862.200012207031
930.945426173621	861.799987792969
931.650651533283	861.200012207031
932.355788152653	861.400024414063
933.060836039547	862
933.765795201776	863.400024414063
934.470665647153	862.799987792969
935.175447383492	860.599975585938
935.880140418599	861
936.584744760286	862.200012207031
937.289260416366	864.200012207031
937.993687394647	862.200012207031
938.698025702939	861.200012207031
939.402275349051	862
940.106436340793	861.599975585938
940.810508685976	861.599975585938
941.5144923924	862.400024414063
942.21838746788	861.400024414063
942.922193920223	862.599975585938
943.625911757231	863.599975585938
944.329540986716	861.799987792969
945.033081616484	862.400024414063
945.736533654334	863.400024414063
946.439897108083	863.200012207031
947.143171985529	863
947.846358294477	862
948.549456042732	862
949.2524652381	862.400024414063
949.955385888382	861.799987792969
950.658218001384	861.799987792969
951.360961584907	862.799987792969
952.063616646755	863
952.766183194733	863.200012207031
953.468661236636	863
954.171050780271	862.599975585938
954.873351833437	861.799987792969
955.575564403935	862.599975585938
956.277688499565	862
956.97972412813	862.799987792969
957.681671297424	861.400024414063
958.383530015255	863
959.085300289414	861
959.786982127703	862.200012207031
960.488575537918	861.799987792969
961.190080527859	860.599975585938
961.891497105327	862.799987792969
962.592825278111	862.799987792969
963.294065054012	861.200012207031
963.995216440829	861.799987792969
964.696279446353	862.200012207031
965.397254078383	861
966.098140344714	862.599975585938
966.798938253139	861
967.499647811456	863.200012207031
968.200269027458	862.400024414063
968.900801908937	860.799987792969
969.601246463685	862.200012207031
970.3016026995	860.799987792969
971.001870624169	861.400024414063
971.702050245491	862
972.402141571249	861.400024414063
973.102144609245	861.799987792969
973.802059367267	863
974.501885853103	861.799987792969
975.201624074541	862
975.901274039379	862.200012207031
976.600835755399	861.200012207031
977.3003092304	862.200012207031
977.999694472158	861
978.698991488473	860.200012207031
979.39820028713	863
980.097320875915	861.799987792969
980.796353262618	861.799987792969
981.495297455024	862.400024414063
982.194153460919	861.200012207031
982.892921288093	861.799987792969
983.591600944331	861.799987792969
984.290192437419	861.599975585938
984.98869577514	863.200012207031
985.687110965282	861.200012207031
986.385438015629	861.799987792969
987.083676933961	861.599975585938
987.781827728069	860.799987792969
988.479890405732	862.599975585938
989.177864974732	862.799987792969
989.875751442857	862.400024414063
990.573549817888	862.200012207031
991.271260107602	861.599975585938
991.968882319786	860.200012207031
992.666416462217	861
993.363862542681	860.799987792969
994.061220568959	862.200012207031
994.758490548823	862
995.455672490061	861.200012207031
996.152766400451	861.799987792969
996.849772287773	861.400024414063
997.5466901598	861.200012207031
998.243520024317	861
998.940261889097	861.799987792969
999.636915761923	860.799987792969
1000.33348165057	861.799987792969
1001.02995956281	861.599975585938
1001.72634950643	862.200012207031
1002.42265148919	861.799987792969
1003.11886551889	861.599975585938
1003.81499160328	861
1004.51102975015	861.400024414063
1005.20697996727	862.200012207031
1005.90284226242	861.599975585938
1006.59861664337	861.799987792969
1007.2943031179	862
1007.98990169377	862
1008.68541237876	860.400024414063
1009.38083518064	861.599975585938
1010.07617010719	862.200012207031
1010.77141716617	861.200012207031
1011.46657636536	862.599975585938
1012.16164771253	861.400024414063
1012.85663121546	861.599975585938
1013.5515268819	862.599975585938
1014.24633471963	862
1014.94105473642	861.799987792969
1015.63568694004	861.799987792969
1016.33023133826	862
1017.02468793885	861.799987792969
1017.71905674957	862.599975585938
1018.41333777819	861
1019.10753103249	862.400024414063
1019.80163652022	860.599975585938
1020.49565424916	862.200012207031
1021.18958422707	862.200012207031
1021.88342646171	862
1022.57718096085	861.599975585938
1023.27084773227	863.200012207031
1023.96442678371	861.599975585938
1024.65791812296	862.599975585938
1025.35132175776	861.799987792969
1026.04463769589	862.799987792969
1026.73786594511	862.200012207031
1027.43100651318	862.799987792969
1028.12405940786	863
1028.81702463692	862.400024414063
1029.50990220812	863.799987792969
1030.20269212921	862.599975585938
1030.89539440798	864.400024414063
1031.58800905216	864
1032.28053606952	863
1032.97297546784	863
1033.66532725485	862.799987792969
1034.35759143832	863
1035.04976802602	862.400024414063
1035.7418570257	864
1036.43385844511	863.799987792969
1037.12577229202	863.799987792969
1037.81759857419	864.400024414063
1038.50933729937	863
1039.20098847531	863.200012207031
1039.89255210978	862.599975585938
1040.58402821053	862.599975585938
1041.27541678532	863
1041.96671784191	863.200012207031
1042.65793138804	862.200012207031
1043.34905743147	863.799987792969
1044.04009597996	863.200012207031
1044.73104704125	863.599975585938
1045.42191062312	862.599975585938
1046.1126867333	862.400024414063
1046.80337537955	862
1047.49397656962	862.200012207031
1048.18449031127	861.599975585938
1048.87491661225	861.400024414063
1049.5652554803	862
1050.25550692319	863
1050.94567094865	862.400024414063
1051.63574756444	861.599975585938
1052.32573677832	862.400024414063
1053.01563859803	863.200012207031
1053.70545303131	862.599975585938
1054.39518008592	863.200012207031
1055.08481976961	860.799987792969
1055.77437209013	862.200012207031
1056.46383705522	863.200012207031
1057.15321467262	863.599975585938
1057.8425049501	861.400024414063
1058.53170789539	861.200012207031
1059.22082351624	861.799987792969
1059.9098518204	862
1060.59879281561	864
1061.28764650962	860.799987792969
1061.97641291016	863
1062.665092025	861.599975585938
1063.35368386187	861.599975585938
1064.04218842851	863.400024414063
1064.73060573268	862.400024414063
1065.4189357821	863.200012207031
1066.10717858452	862.799987792969
1066.7953341477	862.400024414063
1067.48340247936	861
1068.17138358725	861.799987792969
1068.85927747912	863.400024414063
1069.5470841627	863.400024414063
1070.23480364573	863
1070.92243593595	863.200012207031
1071.60998104111	862.799987792969
1072.29743896894	862.200012207031
1072.98480972718	864
1073.67209332357	862.799987792969
1074.35928976585	864.799987792969
1075.04639906176	864.200012207031
1075.73342121903	863.599975585938
1076.42035624541	861.799987792969
1077.10720414862	863
1077.79396493641	863.799987792969
1078.48063861651	862.599975585938
1079.16722519666	863
1079.85372468459	862.799987792969
1080.54013708804	862.400024414063
1081.22646241474	862.200012207031
1081.91270067243	860.799987792969
1082.59885186884	862.400024414063
1083.28491601171	861.799987792969
1083.97089310877	862
1084.65678316774	862.599975585938
1085.34258619637	862.599975585938
1086.02830220239	862.200012207031
1086.71393119352	860.400024414063
1087.39947317751	861
1088.08492816207	862
1088.77029615495	862.200012207031
1089.45557716387	862
1090.14077119656	862.400024414063
1090.82587826075	861.200012207031
1091.51089836417	862.200012207031
1092.19583151456	862
1092.88067771963	862.799987792969
1093.56543698712	862
1094.25010932475	861.400024414063
1094.93469474026	863.200012207031
1095.61919324137	863
1096.3036048358	861.599975585938
1096.98792953129	861.400024414063
1097.67216733555	862
1098.35631825632	862.599975585938
1099.04038230132	862.200012207031
1099.72435947828	863
1100.40824979492	861.599975585938
1101.09205325895	862
1101.77576987812	862
1102.45939966014	860.599975585938
1103.14294261273	862.200012207031
1103.82639874362	861.200012207031
1104.50976806054	861.799987792969
1105.19305057119	861.200012207031
1105.87624628331	863.400024414063
1106.55935520461	862
1107.24237734283	863.400024414063
1107.92531270566	861.799987792969
1108.60816130085	861.599975585938
1109.2909231361	862.799987792969
1109.97359821914	862.599975585938
1110.65618655768	862.200012207031
1111.33868815946	862.200012207031
1112.02110303217	862
1112.70343118355	863.400024414063
1113.3856726213	862.799987792969
1114.06782735316	861.400024414063
1114.74989538683	861.200012207031
1115.43187673002	862
1116.11377139047	862
1116.79557937588	863
1117.47730069397	861.799987792969
1118.15893535245	862.799987792969
1118.84048335904	864.200012207031
1119.52194472146	863.400024414063
1120.20331944741	862
1120.88460754462	863.200012207031
1121.56580902079	863.400024414063
1122.24692388364	863.400024414063
1122.92795214088	862.799987792969
1123.60889380022	862.200012207031
1124.28974886938	863.599975585938
1124.97051735606	865
1125.65119926799	862.400024414063
1126.33179461286	863.599975585938
1127.0123033984	863
1127.6927256323	863.400024414063
1128.37306132229	863.400024414063
1129.05331047606	863.799987792969
1129.73347310134	863.599975585938
1130.41354920582	862.799987792969
1131.09353879722	864
1131.77344188324	863.400024414063
1132.45325847159	864.599975585938
1133.13298856999	863
1133.81263218612	864.400024414063
1134.49218932772	864.400024414063
1135.17166000247	863.400024414063
1135.85104421809	863.200012207031
1136.53034198227	864.799987792969
1137.20955330274	862.799987792969
1137.88867818718	864.200012207031
1138.56771664331	864
1139.24666867883	862.599975585938
1139.92553430144	863.400024414063
1140.60431351885	864.599975585938
1141.28300633876	863.400024414063
1141.96161276887	862.799987792969
1142.64013281689	863
1143.31856649051	863.200012207031
1143.99691379744	863.799987792969
1144.67517474538	862
1145.35334934203	863.799987792969
1146.03143759509	864.200012207031
1146.70943951226	863.200012207031
1147.38735510125	864
1148.06518436974	863
1148.74292732545	864
1149.42058397606	864.400024414063
1150.09815432928	864.799987792969
1150.7756383928	864.200012207031
1151.45303617432	865.200012207031
1152.13034768155	864.400024414063
1152.80757292217	865.599975585938
1153.48471190389	864.599975585938
1154.16176463439	865.200012207031
1154.83873112138	865.799987792969
1155.51561137255	863.799987792969
1156.1924053956	863.799987792969
1156.86911319822	865
1157.5457347881	863.400024414063
1158.22227017294	863.400024414063
1158.89871936044	865.400024414063
1159.57508235828	862.599975585938
1160.25135917416	864.200012207031
1160.92754981578	864.599975585938
1161.60365429081	866.200012207031
1162.27967260697	864.200012207031
1162.95560477193	864.400024414063
1163.63145079339	863.599975585938
1164.30721067904	865.799987792969
1164.98288443657	864.599975585938
1165.65847207367	864.200012207031
1166.33397359803	864.400024414063
1167.00938901735	863.200012207031
1167.6847183393	864.599975585938
1168.35996157157	863.599975585938
1169.03511872187	863
1169.71018979787	863.200012207031
1170.38517480726	862.599975585938
1171.06007375773	864.200012207031
1171.73488665696	864.799987792969
1172.40961351265	863.400024414063
1173.08425433247	863.799987792969
1173.75880912412	862.599975585938
1174.43327789528	863.599975585938
1175.10766065364	863
1175.78195740687	863.400024414063
1176.45616816267	863
1177.13029292871	865.200012207031
1177.80433171269	865.799987792969
1178.47828452229	863.599975585938
1179.15215136518	863.799987792969
1179.82593224905	862
1180.49962718159	862.200012207031
1181.17323617047	864
1181.84675922337	862.400024414063
1182.52019634799	864
1183.193547552	862.799987792969
1183.86681284307	864.200012207031
1184.53999222889	863.799987792969
1185.21308571714	864
1185.8860933155	863.200012207031
1186.55901503165	864.200012207031
1187.23185087326	861
1187.90460084802	863
1188.5772649636	863.200012207031
1189.24984322768	862.400024414063
1189.92233564794	862.200012207031
1190.59474223206	863.200012207031
1191.2670629877	862.599975585938
1191.93929792255	862.599975585938
1192.61144704428	862
1193.28351036058	861.400024414063
1193.9554878791	863.200012207031
1194.62737960754	861.799987792969
1195.29918555356	862
1195.97090572483	860.799987792969
1196.64254012903	862.200012207031
1197.31408877384	864
1197.98555166693	863.200012207031
1198.65692881596	862.799987792969
1199.32822022862	861.599975585938
1199.99942591256	860.599975585938
1200.67054587548	863
1201.34158012503	861.799987792969
1202.01252866889	864
1202.68339151473	862.599975585938
1203.35416867021	863.200012207031
1204.02486014301	863.400024414063
1204.6954659408	862.200012207031
1205.36598607124	862.599975585938
1206.03642054201	862.200012207031
1206.70676936078	861.200012207031
1207.3770325352	864.200012207031
1208.04721007295	862.200012207031
1208.7173019817	863
1209.38730826911	863.400024414063
1210.05722894285	862.200012207031
1210.72706401059	861.799987792969
1211.39681347999	862.599975585938
1212.06647735872	862.599975585938
1212.73605565444	864.400024414063
1213.40554837481	861.599975585938
1214.07495552751	863
1214.74427712019	865
1215.41351316052	863.400024414063
1216.08266365617	861.799987792969
1216.75172861479	862
1217.42070804405	862.799987792969
1218.0896019516	863
1218.75841034513	863.400024414063
1219.42713323227	863.200012207031
1220.0957706207	864
1220.76432251808	863.599975585938
1221.43278893207	863.599975585938
1222.10116987032	861.400024414063
1222.7694653405	863.400024414063
1223.43767535026	862.799987792969
1224.10579990727	863.799987792969
1224.77383901918	864.200012207031
1225.44179269366	865.599975585938
1226.10966093835	863.599975585938
1226.77744376093	863.599975585938
1227.44514116904	864.200012207031
1228.11275317034	863.200012207031
1228.78027977249	864.400024414063
1229.44772098315	861.799987792969
1230.11507680996	864
1230.7823472606	864
1231.44953234271	865
1232.11663206394	863.799987792969
1232.78364643195	862.799987792969
1233.4505754544	864.400024414063
1234.11741913894	865.200012207031
1234.78417749322	862.200012207031
1235.45085052489	864.599975585938
1236.11743824162	864
1236.78394065104	862.799987792969
1237.45035776082	862.400024414063
1238.1166895786	863.400024414063
1238.78293611204	862.799987792969
1239.44909736878	864.400024414063
1240.11517335648	863
1240.78116408279	862.799987792969
1241.44706955535	863
1242.11288978182	863.400024414063
1242.77862476985	862
1243.44427452708	863.200012207031
1244.10983906116	861.799987792969
1244.77531837974	861.599975585938
1245.44071249047	863.799987792969
1246.106021401	863.799987792969
1246.77124511898	863.799987792969
1247.43638365204	862.200012207031
1248.10143700783	861.799987792969
1248.76640519401	864.200012207031
1249.43128821822	862
1250.0960860881	862.799987792969
1250.76079881129	863
1251.42542639545	864.200012207031
1252.08996884822	862.799987792969
1252.75442617723	862.799987792969
1253.41879839014	863.599975585938
1254.08308549458	862.200012207031
1254.74728749821	862.400024414063
1255.41140440866	864
1256.07543623357	863
1256.73938298059	862.599975585938
1257.40324465735	862.799987792969
1258.0670212715	862.200012207031
1258.73071283068	863.599975585938
1259.39431934253	862.599975585938
1260.05784081468	863
1260.72127725479	862.400024414063
1261.38462867049	863.400024414063
1262.0478950694	862.400024414063
1262.71107645919	863.400024414063
1263.37417284748	863.599975585938
1264.03718424191	862.799987792969
1264.70011065011	865
1265.36295207974	863.599975585938
1266.02570853841	863.599975585938
1266.68838003378	863.400024414063
1267.35096657346	863.599975585938
1268.01346816511	864
1268.67588481636	862.599975585938
1269.33821653483	863
1270.00046332817	863.200012207031
1270.66262520401	863
1271.32470216998	864
1271.98669423372	864
1272.64860140285	863.200012207031
1273.31042368503	863.400024414063
1273.97216108786	865
1274.633813619	864.799987792969
1275.29538128606	865
1275.95686409669	861.799987792969
1276.6182620585	863.200012207031
1277.27957517914	863
1277.94080346624	863.799987792969
1278.60194692741	864.200012207031
1279.2630055703	865.200012207031
1279.92397940253	863.799987792969
1280.58486843173	863.599975585938
1281.24567266552	863.599975585938
1281.90639211155	864.200012207031
1282.56702677743	864.799987792969
1283.2275766708	862.799987792969
1283.88804179927	862.799987792969
1284.54842217049	863.599975585938
1285.20871779206	863.799987792969
1285.86892867163	863.400024414063
1286.52905481681	864.200012207031
1287.18909623523	863.799987792969
1287.84905293452	863.400024414063
1288.5089249223	865.200012207031
1289.16871220619	864.400024414063
1289.82841479383	864.200012207031
1290.48803269282	863.400024414063
1291.1475659108	864.400024414063
1291.80701445539	864
1292.46637833421	864.599975585938
1293.12565755489	864.799987792969
1293.78485212504	865.799987792969
1294.44396205229	865.200012207031
1295.10298734425	864.400024414063
1295.76192800856	866.599975585938
1296.42078405283	865
1297.07955548467	865
1297.73824231171	864.599975585938
1298.39684454158	864.799987792969
1299.05536218188	866.599975585938
1299.71379524023	865.799987792969
1300.37214372427	864.200012207031
1301.03040764159	865.400024414063
1301.68858699983	865.599975585938
1302.34668180659	866.599975585938
1303.0046920695	866.599975585938
1303.66261779617	865.400024414063
1304.32045899422	865.799987792969
1304.97821567126	865.400024414063
1305.63588783492	865.599975585938
1306.29347549279	865.599975585938
1306.95097865251	866.400024414063
1307.60839732168	865
1308.26573150791	864.799987792969
1308.92298121883	863.799987792969
1309.58014646204	864.200012207031
1310.23722724517	866.400024414063
1310.89422357581	864.400024414063
1311.55113546158	865.799987792969
1312.2079629101	864
1312.86470592898	864
1313.52136452582	864.799987792969
1314.17793870824	863.799987792969
1314.83442848386	864.799987792969
1315.49083386027	866.400024414063
1316.14715484509	865.400024414063
1316.80339144594	865.200012207031
1317.45954367041	864.400024414063
1318.11561152611	865.799987792969
1318.77159502067	864.599975585938
1319.42749416168	864.799987792969
1320.08330895674	866
1320.73903941348	864.599975585938
1321.3946855395	864.599975585938
1322.0502473424	866.400024414063
1322.70572482978	866.400024414063
1323.36111800926	865.799987792969
1324.01642688845	866
1324.67165147494	866.400024414063
1325.32679177634	864.799987792969
1325.98184780025	864.799987792969
1326.63681955429	866.599975585938
1327.29170704605	866.200012207031
1327.94651028314	865.799987792969
1328.60122927316	866
1329.25586402371	865.599975585938
1329.9104145424	865.400024414063
1330.56488083683	865.200012207031
1331.2192629146	864.599975585938
1331.87356078331	865.599975585938
1332.52777445056	865.599975585938
1333.18190392395	864.599975585938
1333.83594921109	865.599975585938
1334.48991031958	866.200012207031
1335.143787257	865.400024414063
1335.79758003097	867
1336.45128864908	865.599975585938
1337.10491311893	865.200012207031
1337.75845344813	865
1338.41190964425	866.400024414063
1339.06528171491	866.200012207031
1339.71856966771	865.799987792969
1340.37177351023	865.799987792969
1341.02489325007	865.799987792969
1341.67792889484	865.200012207031
1342.33088045212	866
1342.98374792952	864.799987792969
1343.63653133462	865.200012207031
1344.28923067503	866
1344.94184595833	866
1345.59437719212	867
1346.246824384	866
1346.89918754155	866
1347.55146667238	865.599975585938
1348.20366178407	864.599975585938
1348.85577288421	866
1349.50779998041	866.200012207031
1350.15974308024	866.400024414063
1350.8116021913	866
1351.46337732119	867.599975585938
1352.11506847748	865
1352.76667566778	867.599975585938
1353.41819889967	865.799987792969
1354.06963818074	865.799987792969
1354.72099351858	865.400024414063
1355.37226492079	865.599975585938
1356.02345239494	865.400024414063
1356.67455594862	866
1357.32557558943	866.400024414063
1357.97651132496	865.400024414063
1358.62736316277	866
1359.27813111048	866
1359.92881517565	866
1360.57941536589	865
1361.22993168876	866.400024414063
1361.88036415186	867.400024414063
1362.53071276278	865.400024414063
1363.1809775291	866.799987792969
1363.8311584584	865.799987792969
1364.48125555826	866.799987792969
1365.13126883627	866.599975585938
1365.78119830001	867.400024414063
1366.43104395707	866.400024414063
1367.08080581503	867
1367.73048388147	866.599975585938
1368.38007816397	865.400024414063
1369.02958867011	864.400024414063
1369.67901540748	866.400024414063
1370.32835838365	864.200012207031
1370.9776176062	866.599975585938
1371.62679308273	866.200012207031
1372.27588482079	865.599975585938
1372.92489282798	865.799987792969
1373.57381711188	865.799987792969
1374.22265768006	866.599975585938
1374.87141454009	864.400024414063
1375.52008769957	865.400024414063
1376.16867716606	866.400024414063
1376.81718294715	868
1377.4656050504	866.799987792969
1378.1139434834	866.599975585938
1378.76219825373	866.599975585938
1379.41036936895	866.200012207031
1380.05845683664	866.200012207031
1380.70646066439	867
1381.35438085976	867.799987792969
1382.00221743032	867.200012207031
1382.64997038366	867
1383.29763972735	868.200012207031
1383.94522546895	867.599975585938
1384.59272761605	867.400024414063
1385.24014617621	868.400024414063
1385.88748115701	868.200012207031
1386.53473256602	869.599975585938
1387.18190041081	867.400024414063
1387.82898469895	870.599975585938
1388.47598543802	869.799987792969
1389.12290263558	868.200012207031
1389.7697362992	868.200012207031
1390.41648643646	870.200012207031
1391.06315305492	869.200012207031
1391.70973616215	869.200012207031
1392.35623576573	869.599975585938
1393.00265187321	869.200012207031
1393.64898449217	869.200012207031
1394.29523363018	869.599975585938
1394.94139929481	871
1395.58748149361	869.200012207031
1396.23348023415	869.799987792969
1396.87939552402	870.599975585938
1397.52522737076	870
1398.17097578195	871.200012207031
1398.81664076514	869.200012207031
1399.46222232792	870.200012207031
1400.10772047783	869.599975585938
1400.75313522245	869.599975585938
1401.39846656934	869.400024414063
1402.04371452605	867.599975585938
1402.68887910016	869.599975585938
1403.33396029924	869.799987792969
1403.97895813083	868.200012207031
1404.6238726025	866.599975585938
1405.26870372182	868.599975585938
1405.91345149634	869.200012207031
1406.55811593363	867.200012207031
1407.20269704125	867.799987792969
1407.84719482676	865.599975585938
1408.49160929772	866.799987792969
1409.13594046168	867.400024414063
1409.78018832622	866.200012207031
1410.42435289887	865.799987792969
1411.06843418722	866.799987792969
1411.7124321988	864.400024414063
1412.3563469412	865.799987792969
1413.00017842194	867.200012207031
1413.64392664861	867
1414.28759162875	867.200012207031
1414.93117336992	866.200012207031
1415.57467187967	868.200012207031
1416.21808716557	866.799987792969
1416.86141923516	866.400024414063
1417.50466809601	869.599975585938
1418.14783375567	866.400024414063
1418.79091622169	869.200012207031
1419.43391550162	868
1420.07683160303	868
1420.71966453346	867.400024414063
1421.36241430046	868.799987792969
1422.0050809116	871.200012207031
1422.64766437442	868
1423.29016469647	869.599975585938
1423.93258188531	868.200012207031
1424.57491594848	868.200012207031
1425.21716689354	870
1425.85933472805	871.400024414063
1426.50141945954	869
1427.14342109557	870
1427.78533964369	869
1428.42717511144	871
1429.06892750639	870.400024414063
1429.71059683607	870
1430.35218310803	871.400024414063
1430.99368632983	868.799987792969
1431.635106509	870.599975585938
1432.2764436531	870.200012207031
1432.91769776967	870.799987792969
1433.55886886627	870.400024414063
1434.19995695043	869.599975585938
1434.84096202969	868.799987792969
1435.48188411162	869.400024414063
1436.12272320375	872.799987792969
1436.76347931363	870.400024414063
1437.40415244879	870.400024414063
1438.0447426168	871.400024414063
1438.68524982518	870.200012207031
1439.32567408148	869
1439.96601539325	869.599975585938
1440.60627376803	869.599975585938
1441.24644921336	869.400024414063
1441.88654173678	870.200012207031
1442.52655134583	869.599975585938
1443.16647804806	869.799987792969
1443.806321851	870.799987792969
1444.4460827622	870.200012207031
1445.0857607892	869.400024414063
1445.72535593953	869
1446.36486822074	870.599975585938
1447.00429764037	869
1447.64364420595	869
1448.28290792502	870
1448.92208880512	871.599975585938
1449.56118685379	870.599975585938
1450.20020207857	869.599975585938
1450.83913448699	870.599975585938
1451.47798408659	870.200012207031
1452.1167508849	869.400024414063
1452.75543488947	868.400024414063
1453.39403610782	870.599975585938
1454.0325545475	872.200012207031
1454.67099021603	871.200012207031
1455.30934312097	869.599975585938
1455.94761326982	870.200012207031
1456.58580067014	869.400024414063
1457.22390532945	867.599975585938
1457.86192725529	867.200012207031
1458.49986645519	868
1459.13772293668	867.400024414063
1459.7754967073	867.599975585938
1460.41318777457	868.200012207031
1461.05079614604	869
1461.68832182922	867.599975585938
1462.32576483166	867.599975585938
1462.96312516087	868
1463.6004028244	869
1464.23759782977	869
1464.8747101845	868.799987792969
1465.51173989614	869
1466.14868697221	868.400024414063
1466.78555142024	870
1467.42233324774	867.799987792969
1468.05903246227	867
1468.69564907133	867.799987792969
1469.33218308246	869
1469.96863450317	867.799987792969
1470.60500334102	867
1471.2412896035	867.599975585938
1471.87749329816	867.599975585938
1472.51361443251	868.799987792969
1473.14965301409	867.799987792969
1473.78560905041	867.799987792969
1474.421482549	868
1475.05727351739	866.799987792969
1475.69298196309	866.799987792969
1476.32860789364	867
1476.96415131654	867.400024414063
1477.59961223934	866.400024414063
1478.23499066954	867
1478.87028661467	867.200012207031
1479.50550008226	866.400024414063
1480.14063107981	867.200012207031
1480.77567961486	865.400024414063
1481.41064569492	867.599975585938
1482.04552932752	866.599975585938
1482.68033052017	868
1483.31504928039	868.200012207031
1483.9496856157	867.599975585938
1484.58423953363	869
1485.21871104168	868.599975585938
1485.85310014738	867.599975585938
1486.48740685824	867.599975585938
1487.12163118178	866.799987792969
1487.75577312553	867.799987792969
1488.38983269698	866.599975585938
1489.02380990367	867
1489.65770475311	868.599975585938
1490.29151725281	865
1490.92524741029	867.799987792969
1491.55889523306	867.200012207031
1492.19246072863	868
1492.82594390453	868.599975585938
1493.45934476826	866
1494.09266332734	868.400024414063
1494.72589958928	868
1495.3590535616	867
1495.99212525181	868.400024414063
1496.62511466741	868.400024414063
1497.25802181592	867.799987792969
1497.89084670485	867.200012207031
1498.52358934172	866.799987792969
1499.15624973403	867
1499.7888278893	865.400024414063
1500.42132381503	866.599975585938
1501.05373751873	867.799987792969
1501.68606900792	865.799987792969
1502.31831829009	867.599975585938
1502.95048537277	866.200012207031
1503.58257026346	866.200012207031
1504.21457296966	866.200012207031
1504.84649349889	866.400024414063
1505.47833185864	866.599975585938
1506.11008805644	865.799987792969
1506.74176209978	865.400024414063
1507.37335399617	866
1508.00486375312	865.799987792969
1508.63629137813	865.400024414063
1509.2676368787	865.400024414063
1509.89890026235	866
1510.53008153658	865.799987792969
1511.16118070889	865.799987792969
1511.79219778677	866
1512.42313277775	865
1513.05398568932	865
1513.68475652898	865.599975585938
1514.31544530424	866.599975585938
1514.9460520226	865.200012207031
1515.57657669155	864.799987792969
1516.20701931861	864.599975585938
1516.83737991127	864.400024414063
1517.46765847702	866.400024414063
1518.09785502339	866.200012207031
1518.72796955785	865
1519.35800208792	866.200012207031
1519.98795262109	864.799987792969
1520.61782116486	864.799987792969
1521.24760772673	865.200012207031
1521.87731231419	864.599975585938
1522.50693493475	864.799987792969
1523.1364755959	865
1523.76593430514	864.400024414063
1524.39531106997	863.799987792969
1525.02460589788	864.799987792969
1525.65381879637	864.400024414063
1526.28294977293	863.200012207031
1526.91199883507	865.400024414063
1527.54096599027	865
1528.16985124603	864
1528.79865460984	864.799987792969
1529.4273760892	864
1530.05601569161	863
1530.68457342455	864.400024414063
1531.31304929552	864.400024414063
1531.94144331201	864
1532.56975548151	864
1533.19798581152	864.200012207031
1533.82613430953	865.799987792969
1534.45420098302	863.400024414063
1535.08218583949	864.200012207031
1535.71008888643	863.599975585938
1536.33791013134	864.200012207031
1536.96564958169	863.799987792969
1537.59330724498	863.799987792969
1538.22088312871	864
1538.84837724034	864.400024414063
1539.47578958739	863.599975585938
1540.10312017733	863
1540.73036901765	862.400024414063
1541.35753611584	864.200012207031
1541.98462147939	864.400024414063
1542.61162511578	864.400024414063
1543.2385470325	863.400024414063
1543.86538723704	863.599975585938
1544.49214573688	864
1545.11882253951	864.400024414063
1545.74541765241	863.599975585938
1546.37193108306	863.400024414063
1546.99836283896	863.200012207031
1547.62471292758	864.400024414063
1548.25098135641	864.200012207031
1548.87716813294	863.599975585938
1549.50327326464	862.400024414063
1550.12929675899	863.799987792969
1550.75523862349	862.400024414063
1551.38109886561	861.799987792969
1552.00687749284	863
1552.63257451264	863.200012207031
1553.25818993252	863
1553.88372375994	862.599975585938
1554.50917600239	863.200012207031
1555.13454666734	861.799987792969
1555.75983576228	861.599975585938
1556.38504329469	862.599975585938
1557.01016927204	863.799987792969
1557.63521370181	864.400024414063
1558.26017659149	862.799987792969
1558.88505794854	863.799987792969
1559.50985778045	862.799987792969
1560.13457609469	862.799987792969
1560.75921289874	861.799987792969
1561.38376820008	862.200012207031
1562.00824200618	862.599975585938
1562.63263432452	861.400024414063
1563.25694516257	862.799987792969
1563.88117452781	863.599975585938
1564.50532242772	862.799987792969
1565.12938886976	863.200012207031
1565.75337386141	862.599975585938
1566.37727741015	863
1567.00109952345	861.599975585938
1567.62484020878	862.799987792969
1568.24849947361	863.400024414063
1568.87207732542	863
1569.49557377168	862.400024414063
1570.11898881986	864.599975585938
1570.74232247743	864.400024414063
1571.36557475186	863.599975585938
1571.98874565062	862.200012207031
1572.61183518119	863.599975585938
1573.23484335103	862.799987792969
1573.85777016761	862.799987792969
1574.4806156384	862.799987792969
1575.10337977088	863.599975585938
1575.7260625725	864
1576.34866405074	863.599975585938
1576.97118421306	863.200012207031
1577.59362306694	863.599975585938
1578.21598061984	863
1578.83825687922	863.200012207031
1579.46045185255	865.200012207031
1580.08256554731	863.599975585938
1580.70459797094	865.200012207031
1581.32654913093	864.400024414063
1581.94841903473	863.400024414063
1582.57020768981	864.799987792969
1583.19191510364	864
1583.81354128367	862.799987792969
1584.43508623737	862.599975585938
1585.05654997221	864
1585.67793249564	864
1586.29923381514	863.200012207031
1586.92045393815	864
1587.54159287216	862.400024414063
1588.1626506246	864.799987792969
1588.78362720296	865.400024414063
1589.40452261468	863.799987792969
1590.02533686724	863.400024414063
1590.64606996808	864.599975585938
1591.26672192467	865.200012207031
1591.88729274447	865.599975585938
1592.50778243493	864.799987792969
1593.12819100352	863.599975585938
1593.7485184577	865.799987792969
1594.36876480492	864.799987792969
1594.98893005264	863.200012207031
1595.60901420832	864.400024414063
1596.22901727941	864.400024414063
1596.84893927338	864
1597.46878019767	864.200012207031
1598.08854005975	864.799987792969
1598.70821886707	864.400024414063
1599.32781662708	865.400024414063
1599.94733334725	864.799987792969
1600.56676903502	866.799987792969
1601.18612369785	866.200012207031
1601.8053973432	865.200012207031
1602.42458997851	865.200012207031
1603.04370161124	864.799987792969
1603.66273224884	865.400024414063
1604.28168189878	864.200012207031
1604.90055056849	866.599975585938
1605.51933826543	865
1606.13804499705	864.799987792969
1606.75667077081	865.200012207031
1607.37521559415	865.599975585938
1607.99367947452	866
1608.61206241938	866.400024414063
1609.23036443618	866
1609.84858553236	866.599975585938
1610.46672571537	867.799987792969
1611.08478499267	866.799987792969
1611.7027633717	868
1612.3206608599	867.400024414063
1612.93847746473	866.799987792969
1613.55621319364	868.599975585938
1614.17386805407	869.400024414063
1614.79144205347	869.599975585938
1615.40893519928	870.799987792969
1616.02634749895	873
1616.64367895993	870.799987792969
1617.26092958966	872
1617.87809939559	872.400024414063
1618.49518838516	875
1619.11219656582	875.200012207031
1619.729123945	876.200012207031
1620.34597053016	877
1620.96273632874	878.200012207031
1621.57942134818	880.599975585938
1622.19602559592	880.599975585938
1622.8125490794	879.599975585938
1623.42899180607	881.200012207031
1624.04535378337	883.400024414063
1624.66163501874	883
1625.27783551963	886
1625.89395529346	881.599975585938
1626.50999434768	879.599975585938
1627.12595268974	883
1627.74183032707	882.200012207031
1628.3576272671	879.599975585938
1628.97334351729	879.599975585938
1629.58897908506	879
1630.20453397786	876
1630.82000820313	877.200012207031
1631.43540176829	875
1632.05071468079	873.400024414063
1632.66594694807	872.799987792969
1633.28109857756	871
1633.8961695767	872.400024414063
1634.51115995292	871.799987792969
1635.12606971366	869.599975585938
1635.74089886636	867.799987792969
1636.35564741844	868.599975585938
1636.97031537734	867
1637.58490275051	867
1638.19940954536	866.599975585938
1638.81383576934	866.799987792969
1639.42818142987	864.400024414063
1640.0424465344	866.400024414063
1640.65663109034	865
1641.27073510515	864.200012207031
1641.88475858623	864.400024414063
1642.49870154104	862.400024414063
1643.11256397699	863.599975585938
1643.72634590152	864.799987792969
1644.34004732206	861.799987792969
1644.95366824604	863
1645.56720868089	862.799987792969
1646.18066863404	864
1646.79404811291	863.200012207031
1647.40734712494	863
1648.02056567755	864
1648.63370377817	863.200012207031
1649.24676143423	862.599975585938
1649.85973865316	862
1650.47263544238	862.599975585938
1651.08545180932	863
1651.6981877614	862.400024414063
1652.31084330606	862.799987792969
1652.92341845071	864.400024414063
1653.53591320278	863
1654.1483275697	862.599975585938
1654.7606615589	862.200012207031
1655.37291517778	863.200012207031
1655.98508843379	861.599975585938
1656.59718133434	864.200012207031
1657.20919388685	862.599975585938
1657.82112609875	863.599975585938
1658.43297797747	862.799987792969
1659.04474953041	862
1659.65644076501	861.400024414063
1660.26805168869	862.200012207031
1660.87958230886	862.599975585938
1661.49103263294	863.200012207031
1662.10240266837	862.200012207031
1662.71369242255	861.799987792969
1663.32490190291	862.599975585938
1663.93603111687	863.400024414063
1664.54708007184	862.200012207031
1665.15804877524	861.599975585938
1665.7689372345	861.400024414063
1666.37974545703	861.400024414063
1666.99047345024	861.799987792969
1667.60112122156	863
1668.2116887784	861.400024414063
1668.82217612818	861.400024414063
1669.43258327831	861.400024414063
1670.04291023622	861
1670.65315700931	861.599975585938
1671.263323605	862
1671.8734100307	861.599975585938
1672.48341629384	862.599975585938
1673.09334240182	862.599975585938
1673.70318836206	862
1674.31295418197	862
1674.92263986896	861.799987792969
1675.53224543046	860.799987792969
1676.14177087386	862.599975585938
1676.75121620658	862.200012207031
1677.36058143604	862
1677.96986656964	862.599975585938
1678.5790716148	861.400024414063
1679.18819657892	861.400024414063
1679.79724146943	862
1680.40620629372	861.599975585938
1681.0150910592	862.599975585938
1681.6238957733	860.799987792969
1682.23262044341	861
1682.84126507694	860.599975585938
1683.4498296813	860.200012207031
1684.0583142639	860.799987792969
1684.66671883216	861
1685.27504339346	861.400024414063
1685.88328795523	861.200012207031
1686.49145252487	862.200012207031
1687.09953710978	860.400024414063
1687.70754171737	862
1688.31546635505	862.200012207031
1688.92331103021	860.599975585938
1689.53107575028	860.799987792969
1690.13876052265	861.599975585938
1690.74636535472	861
1691.3538902539	860.599975585938
1691.96133522759	861.799987792969
1692.5687002832	861
1693.17598542812	862.200012207031
1693.78319066977	861.799987792969
1694.39031601554	860.200012207031
1694.99736147283	861.599975585938
1695.60432704905	862.400024414063
1696.2112127516	861.200012207031
1696.81801858788	861.799987792969
1697.42474456528	862
1698.03139069121	861
1698.63795697307	861
1699.24444341826	860.799987792969
1699.85085003417	860.200012207031
1700.45717682821	860.200012207031
1701.06342380778	861
1701.66959098026	861
1702.27567835307	861.799987792969
1702.88168593359	860.200012207031
1703.48761372922	859.799987792969
1704.09346174737	860.400024414063
1704.69922999542	861.799987792969
1705.30491848077	860.599975585938
1705.91052721083	861.799987792969
1706.51605619297	859.400024414063
1707.12150543461	860.400024414063
1707.72687494312	861.599975585938
1708.33216472592	862
1708.93737479039	860.799987792969
1709.54250514392	861.599975585938
