634.977642221345	870
635.719821695905	868.400024414063
636.461909203392	868.799987792969
637.203904751776	869.599975585938
637.945808349023	869.599975585938
638.687620003102	870.799987792969
639.42933972198	868.400024414063
640.170967513616	870.599975585938
640.912503385981	870.400024414063
641.653947347041	870
642.395299404758	868.799987792969
643.13655956709	869.599975585938
643.877727842014	870.400024414063
644.61880423748	871.200012207031
645.359788761455	870
646.100681421905	869.799987792969
646.841482226789	870
647.582191184074	870
648.322808301711	870.599975585938
649.06333358767	871
649.803767049909	868.799987792969
650.544108696385	868.599975585938
651.28435853506	869.400024414063
652.024516573894	871.400024414063
652.764582820849	871.400024414063
653.504557283875	870.200012207031
654.244439970937	869.599975585938
654.984230889991	869
655.723930048995	868.799987792969
656.463537455909	868.400024414063
657.203053118683	870.200012207031
657.942477045275	870
658.681809243647	871.400024414063
659.421049721747	872.599975585938
660.160198487535	870
660.899255548962	871
661.638220913985	870.200012207031
662.377094590559	871.400024414063
663.115876586631	870.400024414063
663.854566910165	870.799987792969
664.593165569107	871
665.331672571406	871.799987792969
666.07008792502	871.799987792969
666.808411637902	872.400024414063
667.546643717996	872.200012207031
668.284784173258	872.400024414063
669.022833011641	871.599975585938
669.760790241089	873.400024414063
670.498655869554	871
671.236429904987	872.200012207031
671.97411235534	871.599975585938
672.711703228551	872.599975585938
673.449202532577	872
674.186610275364	871.799987792969
674.923926464857	873
675.661151109008	871.200012207031
676.398284215759	873.400024414063
677.135325793058	873.799987792969
677.87227584885	872.599975585938
678.609134391082	873
679.345901427696	870.799987792969
680.082576966644	868.799987792969
680.819161015861	872.200012207031
681.555653583298	871.599975585938
682.292054676895	871.799987792969
683.028364304594	871.200012207031
683.764582474344	870
684.500709194083	872
685.236744471752	872.200012207031
685.972688315294	871.200012207031
686.708540732652	870.799987792969
687.444301731762	872
688.179971320572	871.799987792969
688.915549507013	870.200012207031
689.651036299034	869.599975585938
690.386431704569	870.799987792969
691.121735731559	871
691.85694838794	869.400024414063
692.592069681652	870.400024414063
693.327099620632	869.400024414063
694.062038212821	870.599975585938
694.796885466149	869.599975585938
695.531641388561	871.200012207031
696.266305987987	871
697.000879272367	870.200012207031
697.735361249632	870.200012207031
698.469751927722	871.200012207031
699.204051314568	868.400024414063
699.938259418107	870.200012207031
700.672376246272	868.200012207031
701.406401806997	870.200012207031
702.140336108212	868.599975585938
702.874179157855	868.599975585938
703.607930963856	870.200012207031
704.341591534147	868.599975585938
705.07516087666	869.599975585938
705.808638999324	868.799987792969
706.542025910073	869
707.275321616841	867.599975585938
708.008526127549	869.400024414063
708.741639450132	868.599975585938
709.474661592521	869.599975585938
710.207592562641	871
710.940432368424	868
711.673181017796	869.799987792969
712.405838518687	869.599975585938
713.138404879025	870.400024414063
713.870880106731	869.200012207031
714.603264209738	870
715.335557195971	868.599975585938
716.067759073357	871.200012207031
716.799869849816	870.799987792969
717.531889533281	868.799987792969
718.263818131673	870.799987792969
718.995655652917	870
719.727402104934	868.599975585938
720.45905749565	866.400024414063
721.19062183299	867.799987792969
721.922095124877	870.200012207031
722.653477379231	868.799987792969
723.384768603973	868.599975585938
724.11596880703	868
724.847077996319	870.599975585938
725.578096179762	869.599975585938
726.309023365281	870.400024414063
727.039859560792	871
727.770604774222	870.400024414063
728.501259013484	869.200012207031
729.231822286501	869.400024414063
729.962294601191	870
730.692675965469	871
731.42296638726	870.400024414063
732.153165874472	869.599975585938
732.883274435032	868.200012207031
733.613292076851	869.799987792969
734.343218807843	867.799987792969
735.07305463593	869.200012207031
735.802799569028	868.799987792969
736.532453615048	870
737.262016781904	868.200012207031
737.991489077517	869.200012207031
738.720870509794	869.799987792969
739.450161086654	870.799987792969
740.179360816009	870.200012207031
740.908469705772	872.200012207031
741.637487763854	869.400024414063
742.366414998168	869.599975585938
743.095251416623	871
743.823997027137	868
744.552651837618	868
745.281215855978	867.799987792969
746.009689090124	870
746.738071547964	868.200012207031
747.466363237419	869.200012207031
748.194564166384	867.200012207031
748.92267434278	871.400024414063
749.650693774504	870.200012207031
750.378622469476	868.799987792969
751.106460435596	868.799987792969
751.834207680771	870.599975585938
752.561864212909	870.400024414063
753.289430039919	870.400024414063
754.016905169707	868.599975585938
754.744289610175	870
755.471583369231	871.200012207031
756.198786454782	868.799987792969
756.925898874728	869.400024414063
757.652920636979	869.200012207031
758.379851749433	869.400024414063
759.106692219996	869.400024414063
759.833442056572	871.799987792969
760.560101267063	868.799987792969
761.28666985937	870.599975585938
762.0131478414	868.200012207031
762.739535221046	869.599975585938
763.465832006219	871
764.192038204812	871
764.918153824731	869.400024414063
765.644178873872	870.400024414063
766.370113360138	871.200012207031
767.095957291425	871.799987792969
767.821710675635	871.799987792969
768.547373520665	873.799987792969
769.272945834415	873
769.998427624781	871.599975585938
770.723818899658	870.400024414063
771.449119666949	871.599975585938
772.174329934546	871.599975585938
772.899449710347	872.400024414063
773.624479002248	872
774.349417818145	871.599975585938
775.074266165934	870.599975585938
775.799024053505	872
776.523691488757	870.799987792969
777.248268479582	871.799987792969
777.972755033877	872
778.69715115953	871.200012207031
779.421456864441	871.599975585938
780.145672156493	871.599975585938
780.869797043587	870.400024414063
781.593831533611	871.799987792969
782.317775634457	870.200012207031
783.041629354012	870.400024414063
783.765392700174	872
784.489065680828	870.599975585938
785.212648303866	869.599975585938
785.936140577177	870.200012207031
786.659542508652	868.400024414063
787.382854106174	869
788.106075377639	870.400024414063
788.829206330928	869
789.552246973933	872
790.275197314542	871.400024414063
790.998057360638	871.400024414063
791.720827120108	869.799987792969
792.443506600841	868.599975585938
793.166095810722	870.200012207031
793.888594757635	870.799987792969
794.611003449465	871.599975585938
795.333321894098	871.599975585938
796.055550099417	871
796.777688073308	873.799987792969
797.499735823654	871
798.221693358334	871.200012207031
798.943560685235	870.799987792969
799.665337812239	872.200012207031
800.387024747226	871.799987792969
801.108621498075	871.599975585938
801.830128072674	872
802.551544478902	872.200012207031
803.272870724636	870.799987792969
803.994106817761	872.799987792969
804.715252766148	872.200012207031
805.436308577687	871.799987792969
806.157274260251	873
806.878149821721	872.200012207031
807.598935269973	871.599975585938
808.319630612886	871.599975585938
809.040235858336	871
809.760751014202	870.799987792969
810.481176088361	872.599975585938
811.201511088685	871.799987792969
811.921756023059	871.200012207031
812.641910899347	871.400024414063
813.361975725432	871
814.081950509188	871.400024414063
814.801835258489	872.599975585938
815.521629981206	871
816.241334685218	870.599975585938
816.960949378392	870.200012207031
817.680474068606	871.799987792969
818.399908763731	870.599975585938
819.11925347164	871
819.838508200202	870.799987792969
820.55767295729	870.599975585938
821.276747750778	871.200012207031
821.995732588531	871.400024414063
822.714627478425	869.799987792969
823.433432428327	870.599975585938
824.152147446105	871
824.870772539632	870.599975585938
825.589307716775	871.400024414063
826.307752985404	869.400024414063
827.026108353378	870.400024414063
827.744373828579	870.200012207031
828.462549418867	869.799987792969
829.180635132107	870.400024414063
829.898630976168	871.599975585938
830.616536958915	870.799987792969
831.334353088218	869.200012207031
832.052079371938	870.200012207031
832.769715817942	871.799987792969
833.487262434092	872.599975585938
834.204719228255	870.400024414063
834.922086208293	871.799987792969
835.639363382073	870.799987792969
836.356550757456	869.400024414063
837.073648342304	870.799987792969
837.790656144484	870
838.507574171847	868
839.22440243227	869
839.941140933601	869.599975585938
840.657789683706	871.599975585938
841.374348690448	870.599975585938
842.090817961686	869.200012207031
842.807197505276	869.400024414063
843.523487329083	870.599975585938
844.23968744096	871
844.955797848771	870.400024414063
845.671818560374	872
846.387749583622	870.400024414063
847.103590926378	870.400024414063
847.819342596497	869.200012207031
848.535004601833	869.799987792969
849.25057695025	870.400024414063
849.966059649598	870.400024414063
850.681452707735	869.400024414063
851.396756132513	871.599975585938
852.111969931789	872
852.827094113419	871
853.542128685257	871.200012207031
854.257073655158	873.599975585938
854.971929030969	870.599975585938
855.686694820551	872.400024414063
856.40137103175	872.200012207031
857.115957672423	873.599975585938
857.830454750423	873
858.544862273597	872.799987792969
859.259180249797	870.599975585938
859.97340868688	873.599975585938
860.687547592688	874.400024414063
861.401596975075	873.799987792969
862.115556841891	872.400024414063
862.829427200985	871.799987792969
863.543208060205	873
864.256899427402	874.599975585938
864.970501310423	872.200012207031
865.684013717114	870.200012207031
866.397436655325	870.799987792969
867.110770132901	872.400024414063
867.824014157691	872.200012207031
868.537168737542	870.799987792969
869.250233880299	872.799987792969
869.963209593803	873.200012207031
870.676095885902	872.200012207031
871.388892764445	872
872.101600237276	871.599975585938
872.814218312233	871.599975585938
873.526746997165	874.599975585938
874.239186299914	874
874.951536228323	871.400024414063
875.663796790231	874.200012207031
876.375967993487	873
877.088049845928	873
877.8000423554	871.599975585938
878.511945529739	872.200012207031
879.22375937679	873
879.935483904388	872.400024414063
880.64711912038	872.599975585938
881.358665032604	871.599975585938
882.070121648892	872.599975585938
882.78148897709	873
883.492767025039	875.599975585938
884.203955800571	873.599975585938
884.915055311525	873.400024414063
885.626065565741	872.799987792969
886.336986571053	873.799987792969
887.047818335298	873.400024414063
887.758560866315	876.200012207031
888.469214171937	874.599975585938
889.179778260005	875.799987792969
889.890253138347	876.400024414063
890.600638814803	874
891.310935297204	874.200012207031
892.021142593385	875.200012207031
892.731260711183	874.400024414063
893.441289658429	873.400024414063
894.15122944295	875
894.861080072591	873.400024414063
895.570841555173	875.599975585938
896.280513898534	871.599975585938
896.990097110503	874
897.699591198913	874.400024414063
898.408996171595	873.599975585938
899.118312036375	875.400024414063
899.827538801089	875.400024414063
900.536676473561	874.599975585938
901.245725061628	876
901.954684573109	877.599975585938
902.663555015838	875.200012207031
903.372336397644	876.799987792969
904.081028726351	875.400024414063
904.789632009793	873.200012207031
905.49814625579	874
906.20657147217	874.200012207031
906.914907666765	874
907.623154847391	872.799987792969
908.331313021885	873.599975585938
909.039382198064	875.200012207031
909.747362383754	873.200012207031
910.455253586782	874.200012207031
911.163055814972	875
911.870769076143	873.599975585938
912.578393378126	875
913.285928728738	874.400024414063
913.993375135802	873.599975585938
914.700732607145	874.200012207031
915.408001150579	873.400024414063
916.115180773937	872.400024414063
916.822271485037	872.599975585938
917.529273291693	871.599975585938
918.236186201733	872.799987792969
918.943010222971	870.599975585938
919.649745363234	872
920.356391630333	872.400024414063
921.062949032096	871.400024414063
921.769417576333	871.799987792969
922.475797270864	872.799987792969
923.182088123512	873.799987792969
923.888290142089	871.200012207031
924.594403334414	871.799987792969
925.300427708304	870.200012207031
926.006363271572	871.599975585938
926.712210032039	872.799987792969
927.417967997522	871.599975585938
928.123637175827	873.200012207031
928.829217574776	871.599975585938
929.534709202184	873.200012207031
930.240112065859	871.200012207031
930.945426173621	872
931.650651533283	871
932.355788152653	871.200012207031
933.060836039547	872
933.765795201776	870.599975585938
934.470665647153	870.799987792969
935.175447383492	872.400024414063
935.880140418599	871
936.584744760286	871
937.289260416366	872.599975585938
937.993687394647	872.799987792969
938.698025702939	870.599975585938
939.402275349051	874.799987792969
940.106436340793	873.200012207031
940.810508685976	871.400024414063
941.5144923924	871.599975585938
942.21838746788	872.400024414063
942.922193920223	873
943.625911757231	872.400024414063
944.329540986716	871.599975585938
945.033081616484	871.599975585938
945.736533654334	872.599975585938
946.439897108083	871.599975585938
947.143171985529	871.799987792969
947.846358294477	871.599975585938
948.549456042732	870.400024414063
949.2524652381	873
949.955385888382	871.799987792969
950.658218001384	872
951.360961584907	871.599975585938
952.063616646755	873.599975585938
952.766183194733	871.799987792969
953.468661236636	870.400024414063
954.171050780271	872.200012207031
954.873351833437	872.200012207031
955.575564403935	871.400024414063
956.277688499565	870.799987792969
956.97972412813	870.400024414063
957.681671297424	871
958.383530015255	871.599975585938
959.085300289414	871.799987792969
959.786982127703	870
960.488575537918	871.799987792969
961.190080527859	873
961.891497105327	871.599975585938
962.592825278111	870.799987792969
963.294065054012	870.599975585938
963.995216440829	872.200012207031
964.696279446353	871.200012207031
965.397254078383	870.400024414063
966.098140344714	871.599975585938
966.798938253139	871.599975585938
967.499647811456	869.599975585938
968.200269027458	872
968.900801908937	871.599975585938
969.601246463685	870
970.3016026995	870.799987792969
971.001870624169	871
971.702050245491	870.400024414063
972.402141571249	872
973.102144609245	871.200012207031
973.802059367267	871
974.501885853103	871
975.201624074541	869.200012207031
975.901274039379	871.799987792969
976.600835755399	872.400024414063
977.3003092304	871.200012207031
977.999694472158	870.799987792969
978.698991488473	871.599975585938
979.39820028713	870.599975585938
980.097320875915	871.200012207031
980.796353262618	873
981.495297455024	872.200012207031
982.194153460919	871.200012207031
982.892921288093	871.400024414063
983.591600944331	869.799987792969
984.290192437419	870.400024414063
984.98869577514	870.400024414063
985.687110965282	870.200012207031
986.385438015629	869.799987792969
987.083676933961	871
987.781827728069	868.799987792969
988.479890405732	871.200012207031
989.177864974732	869.400024414063
989.875751442857	869.400024414063
990.573549817888	871.400024414063
991.271260107602	871.400024414063
991.968882319786	869.599975585938
992.666416462217	868
993.363862542681	870.400024414063
994.061220568959	870.200012207031
994.758490548823	869
995.455672490061	872.400024414063
996.152766400451	870
996.849772287773	871.400024414063
997.5466901598	870.799987792969
998.243520024317	870.799987792969
998.940261889097	870.599975585938
999.636915761923	869.799987792969
1000.33348165057	867.599975585938
1001.02995956281	870
1001.72634950643	871
1002.42265148919	870.599975585938
1003.11886551889	870
1003.81499160328	870.200012207031
1004.51102975015	871
1005.20697996727	871.200012207031
1005.90284226242	870.799987792969
1006.59861664337	871.400024414063
1007.2943031179	869.799987792969
1007.98990169377	870.599975585938
1008.68541237876	869.400024414063
1009.38083518064	870.400024414063
1010.07617010719	870.599975585938
1010.77141716617	869
1011.46657636536	872.400024414063
1012.16164771253	872.200012207031
1012.85663121546	871.200012207031
1013.5515268819	872
1014.24633471963	870.400024414063
1014.94105473642	872.799987792969
1015.63568694004	871
1016.33023133826	870.599975585938
1017.02468793885	873.599975585938
1017.71905674957	872
1018.41333777819	870.799987792969
1019.10753103249	871.799987792969
1019.80163652022	871.200012207031
1020.49565424916	874.599975585938
1021.18958422707	872
1021.88342646171	870.599975585938
1022.57718096085	874
1023.27084773227	874.799987792969
1023.96442678371	873.400024414063
1024.65791812296	873
1025.35132175776	874.799987792969
1026.04463769589	873.400024414063
1026.73786594511	876
1027.43100651318	874.400024414063
1028.12405940786	876.400024414063
1028.81702463692	872.599975585938
1029.50990220812	875.799987792969
1030.20269212921	876.400024414063
1030.89539440798	876.200012207031
1031.58800905216	873.400024414063
1032.28053606952	875.400024414063
1032.97297546784	873.400024414063
1033.66532725485	875
1034.35759143832	874.599975585938
1035.04976802602	875.799987792969
1035.7418570257	876
1036.43385844511	877.400024414063
1037.12577229202	876.799987792969
1037.81759857419	877.400024414063
1038.50933729937	875
1039.20098847531	878
1039.89255210978	875
1040.58402821053	874.400024414063
1041.27541678532	876
1041.96671784191	876
1042.65793138804	873.599975585938
1043.34905743147	874
1044.04009597996	874
1044.73104704125	873
1045.42191062312	873.799987792969
1046.1126867333	873
1046.80337537955	871.799987792969
1047.49397656962	872.599975585938
1048.18449031127	873.200012207031
1048.87491661225	871.599975585938
1049.5652554803	872.599975585938
1050.25550692319	874.200012207031
1050.94567094865	872.400024414063
1051.63574756444	871.599975585938
1052.32573677832	873.200012207031
1053.01563859803	872.200012207031
1053.70545303131	872
1054.39518008592	871.400024414063
1055.08481976961	872.799987792969
1055.77437209013	871.799987792969
1056.46383705522	872.200012207031
1057.15321467262	872.400024414063
1057.8425049501	873.400024414063
1058.53170789539	871.400024414063
1059.22082351624	872.400024414063
1059.9098518204	872
1060.59879281561	870.599975585938
1061.28764650962	872
1061.97641291016	872
1062.665092025	871.400024414063
1063.35368386187	872.400024414063
1064.04218842851	873.200012207031
1064.73060573268	872.599975585938
1065.4189357821	873.599975585938
1066.10717858452	874.400024414063
1066.7953341477	873.599975585938
1067.48340247936	873.200012207031
1068.17138358725	872.799987792969
1068.85927747912	873
1069.5470841627	872.200012207031
1070.23480364573	875.200012207031
1070.92243593595	875.599975585938
1071.60998104111	874
1072.29743896894	874.799987792969
1072.98480972718	873.400024414063
1073.67209332357	874.799987792969
1074.35928976585	874.200012207031
1075.04639906176	873.200012207031
1075.73342121903	874
1076.42035624541	873.799987792969
1077.10720414862	874
1077.79396493641	871.599975585938
1078.48063861651	874
1079.16722519666	872
1079.85372468459	872.400024414063
1080.54013708804	874.400024414063
1081.22646241474	871.799987792969
1081.91270067243	871.400024414063
1082.59885186884	873.799987792969
1083.28491601171	871.400024414063
1083.97089310877	870.799987792969
1084.65678316774	871.400024414063
1085.34258619637	872.599975585938
1086.02830220239	871.799987792969
1086.71393119352	872.200012207031
1087.39947317751	870.799987792969
1088.08492816207	872.200012207031
1088.77029615495	868.799987792969
1089.45557716387	871
1090.14077119656	870
1090.82587826075	870.599975585938
1091.51089836417	870
1092.19583151456	871.400024414063
1092.88067771963	871
1093.56543698712	870.400024414063
1094.25010932475	869.400024414063
1094.93469474026	871.200012207031
1095.61919324137	872.400024414063
1096.3036048358	869.400024414063
1096.98792953129	870.599975585938
1097.67216733555	871.799987792969
1098.35631825632	871.599975585938
1099.04038230132	869.799987792969
1099.72435947828	872.599975585938
1100.40824979492	871.400024414063
1101.09205325895	872.200012207031
1101.77576987812	869.599975585938
1102.45939966014	869.799987792969
1103.14294261273	871.200012207031
1103.82639874362	871
1104.50976806054	871.799987792969
1105.19305057119	871.799987792969
1105.87624628331	871.400024414063
1106.55935520461	870.200012207031
1107.24237734283	871
1107.92531270566	872.799987792969
1108.60816130085	872.799987792969
1109.2909231361	872
1109.97359821914	871.400024414063
1110.65618655768	873.799987792969
1111.33868815946	871.400024414063
1112.02110303217	869.400024414063
1112.70343118355	874.599975585938
1113.3856726213	871.200012207031
1114.06782735316	873.200012207031
1114.74989538683	875.400024414063
1115.43187673002	872.799987792969
1116.11377139047	874
1116.79557937588	874.599975585938
1117.47730069397	875.200012207031
1118.15893535245	873.799987792969
1118.84048335904	875.400024414063
1119.52194472146	877
1120.20331944741	874.200012207031
1120.88460754462	877.599975585938
1121.56580902079	876.400024414063
1122.24692388364	875.400024414063
1122.92795214088	875.799987792969
1123.60889380022	875.200012207031
1124.28974886938	875.200012207031
1124.97051735606	876.400024414063
1125.65119926799	877.200012207031
1126.33179461286	875.200012207031
1127.0123033984	876.200012207031
1127.6927256323	878.400024414063
1128.37306132229	876.799987792969
1129.05331047606	876.799987792969
1129.73347310134	875
1130.41354920582	876.400024414063
1131.09353879722	875.599975585938
1131.77344188324	876
1132.45325847159	874.799987792969
1133.13298856999	874.200012207031
1133.81263218612	876.200012207031
1134.49218932772	874.599975585938
1135.17166000247	875.599975585938
1135.85104421809	877.799987792969
1136.53034198227	876.599975585938
1137.20955330274	875.400024414063
1137.88867818718	874.400024414063
1138.56771664331	874
1139.24666867883	875.599975585938
1139.92553430144	874.599975585938
1140.60431351885	873.599975585938
1141.28300633876	873.400024414063
1141.96161276887	877.400024414063
1142.64013281689	875.799987792969
1143.31856649051	874.200012207031
1143.99691379744	875
1144.67517474538	876.599975585938
1145.35334934203	874.799987792969
1146.03143759509	875.599975585938
1146.70943951226	876.200012207031
1147.38735510125	875
1148.06518436974	876.200012207031
1148.74292732545	875.400024414063
1149.42058397606	874.599975585938
1150.09815432928	876
1150.7756383928	877.200012207031
1151.45303617432	876.400024414063
1152.13034768155	875.200012207031
1152.80757292217	876.200012207031
1153.48471190389	877
1154.16176463439	878.400024414063
1154.83873112138	877.799987792969
1155.51561137255	879.200012207031
1156.1924053956	877
1156.86911319822	876.799987792969
1157.5457347881	875.799987792969
1158.22227017294	876.200012207031
1158.89871936044	874.799987792969
1159.57508235828	874
1160.25135917416	875.799987792969
1160.92754981578	875.799987792969
1161.60365429081	875.599975585938
1162.27967260697	876.400024414063
1162.95560477193	874.200012207031
1163.63145079339	875.799987792969
1164.30721067904	875.599975585938
1164.98288443657	873.799987792969
1165.65847207367	875.200012207031
1166.33397359803	875
1167.00938901735	875.599975585938
1167.6847183393	875.599975585938
1168.35996157157	875
1169.03511872187	874.799987792969
1169.71018979787	873.200012207031
1170.38517480726	874
1171.06007375773	874.200012207031
1171.73488665696	874.200012207031
1172.40961351265	874.599975585938
1173.08425433247	872
1173.75880912412	873.599975585938
1174.43327789528	871.799987792969
1175.10766065364	874.400024414063
1175.78195740687	874.200012207031
1176.45616816267	874.599975585938
1177.13029292871	875
1177.80433171269	872.599975585938
1178.47828452229	872.400024414063
1179.15215136518	875.200012207031
1179.82593224905	874.400024414063
1180.49962718159	873
1181.17323617047	874.200012207031
1181.84675922337	872.200012207031
1182.52019634799	873.599975585938
1183.193547552	872.599975585938
1183.86681284307	874
1184.53999222889	874.400024414063
1185.21308571714	874
1185.8860933155	873.799987792969
1186.55901503165	872.799987792969
1187.23185087326	873.400024414063
1187.90460084802	872.200012207031
1188.5772649636	872.200012207031
1189.24984322768	874.200012207031
1189.92233564794	873.200012207031
1190.59474223206	874.200012207031
1191.2670629877	874.400024414063
1191.93929792255	873.599975585938
1192.61144704428	874.400024414063
1193.28351036058	875
1193.9554878791	873
1194.62737960754	873.200012207031
1195.29918555356	873
1195.97090572483	873.799987792969
1196.64254012903	874.200012207031
1197.31408877384	872.200012207031
1197.98555166693	874.599975585938
1198.65692881596	874.200012207031
1199.32822022862	874.599975585938
1199.99942591256	874.400024414063
1200.67054587548	873.400024414063
1201.34158012503	872.400024414063
1202.01252866889	873
1202.68339151473	874.599975585938
1203.35416867021	874.400024414063
1204.02486014301	874.200012207031
1204.6954659408	874.799987792969
1205.36598607124	870.400024414063
1206.03642054201	873.599975585938
1206.70676936078	874.400024414063
1207.3770325352	875.200012207031
1208.04721007295	875
1208.7173019817	872.400024414063
1209.38730826911	872.799987792969
1210.05722894285	874.400024414063
1210.72706401059	873.799987792969
1211.39681347999	872.400024414063
1212.06647735872	873.599975585938
1212.73605565444	874.799987792969
1213.40554837481	874.400024414063
1214.07495552751	877
1214.74427712019	875.799987792969
1215.41351316052	874.799987792969
1216.08266365617	874.400024414063
1216.75172861479	875.799987792969
1217.42070804405	875.599975585938
1218.0896019516	877.400024414063
1218.75841034513	874.200012207031
1219.42713323227	877.400024414063
1220.0957706207	874.799987792969
1220.76432251808	875.599975585938
1221.43278893207	877
1222.10116987032	874.599975585938
1222.7694653405	876.599975585938
1223.43767535026	876.599975585938
1224.10579990727	877
1224.77383901918	876.400024414063
1225.44179269366	876.599975585938
1226.10966093835	876.400024414063
1226.77744376093	874
1227.44514116904	876.799987792969
1228.11275317034	874.799987792969
1228.78027977249	877
1229.44772098315	876.200012207031
1230.11507680996	874.200012207031
1230.7823472606	874.200012207031
1231.44953234271	878.599975585938
1232.11663206394	877.400024414063
1232.78364643195	874.599975585938
1233.4505754544	876.200012207031
1234.11741913894	876.200012207031
1234.78417749322	875
1235.45085052489	877.599975585938
1236.11743824162	876
1236.78394065104	877.799987792969
1237.45035776082	875.599975585938
1238.1166895786	875.799987792969
1238.78293611204	875.799987792969
1239.44909736878	876.799987792969
1240.11517335648	875.599975585938
1240.78116408279	876.400024414063
1241.44706955535	875.599975585938
1242.11288978182	876.400024414063
1242.77862476985	876
1243.44427452708	874.400024414063
1244.10983906116	877
1244.77531837974	873.799987792969
1245.44071249047	877
1246.106021401	876.200012207031
1246.77124511898	875.599975585938
1247.43638365204	875
1248.10143700783	875
1248.76640519401	876.400024414063
1249.43128821822	877.200012207031
1250.0960860881	876.599975585938
1250.76079881129	874.200012207031
1251.42542639545	876
1252.08996884822	876.200012207031
1252.75442617723	876.400024414063
1253.41879839014	873.799987792969
1254.08308549458	874.599975585938
1254.74728749821	874.200012207031
1255.41140440866	874.200012207031
1256.07543623357	876
1256.73938298059	875
1257.40324465735	875
1258.0670212715	874.200012207031
1258.73071283068	874.599975585938
1259.39431934253	878
1260.05784081468	875.200012207031
1260.72127725479	875.400024414063
1261.38462867049	874
1262.0478950694	874.599975585938
1262.71107645919	875.200012207031
1263.37417284748	875.400024414063
1264.03718424191	876
1264.70011065011	873.400024414063
1265.36295207974	874.200012207031
1266.02570853841	875.799987792969
1266.68838003378	875.400024414063
1267.35096657346	876
1268.01346816511	874.400024414063
1268.67588481636	872.799987792969
1269.33821653483	873.200012207031
1270.00046332817	875.599975585938
1270.66262520401	876.799987792969
1271.32470216998	876.200012207031
1271.98669423372	876.400024414063
1272.64860140285	873.200012207031
1273.31042368503	875.799987792969
1273.97216108786	875.599975585938
1274.633813619	875.400024414063
1275.29538128606	875.599975585938
1275.95686409669	875.599975585938
1276.6182620585	877.200012207031
1277.27957517914	876.599975585938
1277.94080346624	875.200012207031
1278.60194692741	877
1279.2630055703	875.599975585938
1279.92397940253	874.400024414063
1280.58486843173	876.599975585938
1281.24567266552	876.799987792969
1281.90639211155	876
1282.56702677743	875.400024414063
1283.2275766708	876
1283.88804179927	876.400024414063
1284.54842217049	876
1285.20871779206	877
1285.86892867163	875.599975585938
1286.52905481681	878.599975585938
1287.18909623523	877.400024414063
1287.84905293452	877.799987792969
1288.5089249223	876.200012207031
1289.16871220619	875.799987792969
1289.82841479383	877.200012207031
1290.48803269282	877.400024414063
1291.1475659108	875
1291.80701445539	875.599975585938
1292.46637833421	875.799987792969
1293.12565755489	878.599975585938
1293.78485212504	876.599975585938
1294.44396205229	877.400024414063
1295.10298734425	878
1295.76192800856	878
1296.42078405283	878.400024414063
1297.07955548467	878.599975585938
1297.73824231171	879.200012207031
1298.39684454158	879.799987792969
1299.05536218188	880.200012207031
1299.71379524023	883.400024414063
1300.37214372427	881.200012207031
1301.03040764159	878.400024414063
1301.68858699983	878.400024414063
1302.34668180659	879.799987792969
1303.0046920695	879.799987792969
1303.66261779617	879.799987792969
1304.32045899422	879.400024414063
1304.97821567126	882.200012207031
1305.63588783492	878.799987792969
1306.29347549279	879.400024414063
1306.95097865251	877.799987792969
1307.60839732168	878.799987792969
1308.26573150791	877.799987792969
1308.92298121883	879.599975585938
1309.58014646204	877.400024414063
1310.23722724517	877
1310.89422357581	877
1311.55113546158	877.200012207031
1312.2079629101	878.400024414063
1312.86470592898	883.200012207031
1313.52136452582	879.599975585938
1314.17793870824	878.200012207031
1314.83442848386	881
1315.49083386027	880.200012207031
1316.14715484509	881.400024414063
1316.80339144594	882.200012207031
1317.45954367041	879.799987792969
1318.11561152611	879.599975585938
1318.77159502067	882
1319.42749416168	881.200012207031
1320.08330895674	880.200012207031
1320.73903941348	880.200012207031
1321.3946855395	881.400024414063
1322.0502473424	880.799987792969
1322.70572482978	880.799987792969
1323.36111800926	880.400024414063
1324.01642688845	882.400024414063
1324.67165147494	882.599975585938
1325.32679177634	880.799987792969
1325.98184780025	881.799987792969
1326.63681955429	883
1327.29170704605	883.400024414063
1327.94651028314	880.599975585938
1328.60122927316	879
1329.25586402371	881
1329.9104145424	880.200012207031
1330.56488083683	879.599975585938
1331.2192629146	881
1331.87356078331	881.799987792969
1332.52777445056	881
1333.18190392395	882.799987792969
1333.83594921109	882
1334.48991031958	882
1335.143787257	879.599975585938
1335.79758003097	880.200012207031
1336.45128864908	879.400024414063
1337.10491311893	878
1337.75845344813	879.599975585938
1338.41190964425	879.400024414063
1339.06528171491	881.799987792969
1339.71856966771	880.799987792969
1340.37177351023	879.799987792969
1341.02489325007	879
1341.67792889484	880.400024414063
1342.33088045212	880.200012207031
1342.98374792952	882.599975585938
1343.63653133462	877.799987792969
1344.28923067503	881.799987792969
1344.94184595833	880.799987792969
1345.59437719212	881.799987792969
1346.246824384	881.799987792969
1346.89918754155	880
1347.55146667238	882.599975585938
1348.20366178407	879.400024414063
1348.85577288421	882
1349.50779998041	879.400024414063
1350.15974308024	880.200012207031
1350.8116021913	882.799987792969
1351.46337732119	880.599975585938
1352.11506847748	882
1352.76667566778	882.599975585938
1353.41819889967	882.400024414063
1354.06963818074	880
1354.72099351858	879.799987792969
1355.37226492079	880.799987792969
1356.02345239494	879.599975585938
1356.67455594862	882
1357.32557558943	882
1357.97651132496	878.799987792969
1358.62736316277	882.799987792969
1359.27813111048	880.599975585938
1359.92881517565	881.400024414063
1360.57941536589	882.400024414063
1361.22993168876	880.200012207031
1361.88036415186	882.400024414063
1362.53071276278	882.599975585938
1363.1809775291	880.799987792969
1363.8311584584	882.599975585938
1364.48125555826	881.200012207031
1365.13126883627	879.200012207031
1365.78119830001	883.599975585938
1366.43104395707	881.599975585938
1367.08080581503	882.400024414063
1367.73048388147	881.200012207031
1368.38007816397	882.400024414063
1369.02958867011	881.599975585938
1369.67901540748	881.599975585938
1370.32835838365	878.799987792969
1370.9776176062	883.799987792969
1371.62679308273	882.799987792969
1372.27588482079	880.799987792969
1372.92489282798	880.599975585938
1373.57381711188	880.799987792969
1374.22265768006	882.200012207031
1374.87141454009	877.799987792969
1375.52008769957	882
1376.16867716606	880.400024414063
1376.81718294715	883.200012207031
1377.4656050504	881.400024414063
1378.1139434834	882.599975585938
1378.76219825373	883.799987792969
1379.41036936895	882.799987792969
1380.05845683664	884.799987792969
1380.70646066439	883.400024414063
1381.35438085976	886.200012207031
1382.00221743032	885.200012207031
1382.64997038366	884.799987792969
1383.29763972735	885.200012207031
1383.94522546895	882.599975585938
1384.59272761605	885.400024414063
1385.24014617621	887.599975585938
1385.88748115701	886.200012207031
1386.53473256602	887.200012207031
1387.18190041081	884.799987792969
1387.82898469895	885
1388.47598543802	886.200012207031
1389.12290263558	885.400024414063
1389.7697362992	886.200012207031
1390.41648643646	888.400024414063
1391.06315305492	885.400024414063
1391.70973616215	886.400024414063
1392.35623576573	888
1393.00265187321	886.599975585938
1393.64898449217	889
1394.29523363018	887.200012207031
1394.94139929481	889
1395.58748149361	887.799987792969
1396.23348023415	886
1396.87939552402	886
1397.52522737076	886.400024414063
1398.17097578195	889.799987792969
1398.81664076514	885
1399.46222232792	885.200012207031
1400.10772047783	885
1400.75313522245	886.400024414063
1401.39846656934	885.599975585938
1402.04371452605	889.200012207031
1402.68887910016	887.799987792969
1403.33396029924	884.599975585938
1403.97895813083	885.200012207031
1404.6238726025	886.200012207031
1405.26870372182	889.200012207031
1405.91345149634	886.200012207031
1406.55811593363	884.400024414063
1407.20269704125	886.400024414063
1407.84719482676	882
1408.49160929772	886
1409.13594046168	883.799987792969
1409.78018832622	885
1410.42435289887	883
1411.06843418722	885.599975585938
1411.7124321988	885.400024414063
1412.3563469412	888.799987792969
1413.00017842194	885.799987792969
1413.64392664861	886.400024414063
1414.28759162875	886.799987792969
1414.93117336992	887.599975585938
1415.57467187967	887.400024414063
1416.21808716557	888.799987792969
1416.86141923516	889.799987792969
1417.50466809601	888
1418.14783375567	888.799987792969
1418.79091622169	887.799987792969
1419.43391550162	888.599975585938
1420.07683160303	889.400024414063
1420.71966453346	890.599975585938
1421.36241430046	891.400024414063
1422.0050809116	890.599975585938
1422.64766437442	891
1423.29016469647	891.200012207031
1423.93258188531	891.200012207031
1424.57491594848	897.200012207031
1425.21716689354	895.400024414063
1425.85933472805	894.599975585938
1426.50141945954	894.400024414063
1427.14342109557	894.200012207031
1427.78533964369	892
1428.42717511144	893.799987792969
1429.06892750639	894.799987792969
1429.71059683607	892.599975585938
1430.35218310803	890.799987792969
1430.99368632983	891.200012207031
1431.635106509	895
1432.2764436531	895
1432.91769776967	895
1433.55886886627	895
1434.19995695043	893
1434.84096202969	892.200012207031
1435.48188411162	893.200012207031
1436.12272320375	894.200012207031
1436.76347931363	894
1437.40415244879	892.400024414063
1438.0447426168	895.400024414063
1438.68524982518	892.599975585938
1439.32567408148	892.200012207031
1439.96601539325	893
1440.60627376803	893.599975585938
1441.24644921336	892.400024414063
1441.88654173678	893.400024414063
1442.52655134583	893.799987792969
1443.16647804806	892.799987792969
1443.806321851	894.599975585938
1444.4460827622	895
1445.0857607892	891
1445.72535593953	891.200012207031
1446.36486822074	892.200012207031
1447.00429764037	889.599975585938
1447.64364420595	890.799987792969
1448.28290792502	895
1448.92208880512	889.200012207031
1449.56118685379	893.599975585938
1450.20020207857	889
1450.83913448699	892.200012207031
1451.47798408659	891.799987792969
1452.1167508849	894.599975585938
1452.75543488947	894
1453.39403610782	890.200012207031
1454.0325545475	888.400024414063
1454.67099021603	892
1455.30934312097	890.799987792969
1455.94761326982	886.799987792969
1456.58580067014	886.599975585938
1457.22390532945	887
1457.86192725529	889.400024414063
1458.49986645519	888.400024414063
1459.13772293668	887.200012207031
1459.7754967073	887.599975585938
1460.41318777457	887.400024414063
1461.05079614604	885.799987792969
1461.68832182922	887.599975585938
1462.32576483166	888
1462.96312516087	887.400024414063
1463.6004028244	889.799987792969
1464.23759782977	891
1464.8747101845	886.599975585938
1465.51173989614	886.400024414063
1466.14868697221	883.799987792969
1466.78555142024	886.799987792969
1467.42233324774	887
1468.05903246227	885.400024414063
1468.69564907133	885
1469.33218308246	885.599975585938
1469.96863450317	883.200012207031
1470.60500334102	888
1471.2412896035	886.599975585938
1471.87749329816	888
1472.51361443251	887.200012207031
1473.14965301409	885.200012207031
1473.78560905041	885
1474.421482549	886.599975585938
1475.05727351739	886.400024414063
1475.69298196309	883.799987792969
1476.32860789364	886.599975585938
1476.96415131654	882.200012207031
1477.59961223934	886
1478.23499066954	886.200012207031
1478.87028661467	885.599975585938
1479.50550008226	883.599975585938
1480.14063107981	883.799987792969
1480.77567961486	884.400024414063
1481.41064569492	884.200012207031
1482.04552932752	884.400024414063
1482.68033052017	885.200012207031
1483.31504928039	884
1483.9496856157	886.799987792969
1484.58423953363	886.200012207031
1485.21871104168	885.799987792969
1485.85310014738	886.400024414063
1486.48740685824	884.799987792969
1487.12163118178	883.400024414063
1487.75577312553	884
1488.38983269698	885.400024414063
1489.02380990367	886.599975585938
1489.65770475311	881.799987792969
1490.29151725281	882.599975585938
1490.92524741029	882.400024414063
1491.55889523306	883.200012207031
1492.19246072863	881.400024414063
1492.82594390453	881.799987792969
1493.45934476826	885
1494.09266332734	883.799987792969
1494.72589958928	882.799987792969
1495.3590535616	881.200012207031
1495.99212525181	884.599975585938
1496.62511466741	884
1497.25802181592	884.200012207031
1497.89084670485	885.400024414063
1498.52358934172	885.400024414063
1499.15624973403	881.799987792969
1499.7888278893	886
1500.42132381503	887
1501.05373751873	883
1501.68606900792	884.400024414063
1502.31831829009	883.599975585938
1502.95048537277	882.799987792969
1503.58257026346	882.799987792969
1504.21457296966	881.200012207031
1504.84649349889	882.200012207031
1505.47833185864	883.400024414063
1506.11008805644	884.200012207031
1506.74176209978	883.599975585938
1507.37335399617	881.599975585938
1508.00486375312	881.400024414063
1508.63629137813	885.200012207031
1509.2676368787	883.599975585938
1509.89890026235	882.599975585938
1510.53008153658	883.799987792969
1511.16118070889	880.400024414063
1511.79219778677	881.200012207031
1512.42313277775	883.799987792969
1513.05398568932	881.200012207031
1513.68475652898	881.599975585938
1514.31544530424	881.599975585938
1514.9460520226	880.799987792969
1515.57657669155	881.599975585938
1516.20701931861	880.400024414063
1516.83737991127	883
1517.46765847702	881.799987792969
1518.09785502339	880.599975585938
1518.72796955785	882
1519.35800208792	881.599975585938
1519.98795262109	879.400024414063
1520.61782116486	883.200012207031
1521.24760772673	883.799987792969
1521.87731231419	882
1522.50693493475	880.799987792969
1523.1364755959	881.599975585938
1523.76593430514	881.200012207031
1524.39531106997	880.799987792969
1525.02460589788	881
1525.65381879637	877.400024414063
1526.28294977293	878.799987792969
1526.91199883507	878
1527.54096599027	880.200012207031
1528.16985124603	879
1528.79865460984	876.799987792969
1529.4273760892	879.400024414063
1530.05601569161	879
1530.68457342455	879
1531.31304929552	879.200012207031
1531.94144331201	877.400024414063
1532.56975548151	877.400024414063
1533.19798581152	878.599975585938
1533.82613430953	876.400024414063
1534.45420098302	878.200012207031
1535.08218583949	877.400024414063
1535.71008888643	878.200012207031
1536.33791013134	876.400024414063
1536.96564958169	877.400024414063
1537.59330724498	876.799987792969
1538.22088312871	876.400024414063
1538.84837724034	875.400024414063
1539.47578958739	874.200012207031
1540.10312017733	875.200012207031
1540.73036901765	875.400024414063
1541.35753611584	877
1541.98462147939	877.200012207031
1542.61162511578	878.799987792969
1543.2385470325	876.200012207031
1543.86538723704	874.799987792969
1544.49214573688	879.400024414063
1545.11882253951	877.799987792969
1545.74541765241	877
1546.37193108306	876.400024414063
1546.99836283896	877.799987792969
1547.62471292758	877
1548.25098135641	875.400024414063
1548.87716813294	874.799987792969
1549.50327326464	875.400024414063
1550.12929675899	877.400024414063
1550.75523862349	876.400024414063
1551.38109886561	876.799987792969
1552.00687749284	875.799987792969
1552.63257451264	878.200012207031
1553.25818993252	876.799987792969
1553.88372375994	874.599975585938
1554.50917600239	877.400024414063
1555.13454666734	875.400024414063
1555.75983576228	875.799987792969
1556.38504329469	875
1557.01016927204	875
1557.63521370181	875.799987792969
1558.26017659149	876
1558.88505794854	875.599975585938
1559.50985778045	875.400024414063
1560.13457609469	873.799987792969
1560.75921289874	876.599975585938
1561.38376820008	875
1562.00824200618	875.400024414063
1562.63263432452	874.599975585938
1563.25694516257	875.599975585938
1563.88117452781	875.400024414063
1564.50532242772	875.599975585938
1565.12938886976	877.400024414063
1565.75337386141	876.599975585938
1566.37727741015	874.799987792969
1567.00109952345	876.200012207031
1567.62484020878	874.799987792969
1568.24849947361	876.400024414063
1568.87207732542	874.799987792969
1569.49557377168	876.400024414063
1570.11898881986	875.799987792969
1570.74232247743	875.200012207031
1571.36557475186	875.400024414063
1571.98874565062	876.400024414063
1572.61183518119	877.400024414063
1573.23484335103	872.400024414063
1573.85777016761	876.400024414063
1574.4806156384	877.799987792969
1575.10337977088	874.799987792969
1575.7260625725	875
1576.34866405074	874.799987792969
1576.97118421306	876.400024414063
1577.59362306694	876
1578.21598061984	876.799987792969
1578.83825687922	876.200012207031
1579.46045185255	876
1580.08256554731	875.200012207031
1580.70459797094	874.799987792969
1581.32654913093	876.200012207031
1581.94841903473	877.799987792969
1582.57020768981	876
1583.19191510364	874.599975585938
1583.81354128367	876
1584.43508623737	875.599975585938
1585.05654997221	876
1585.67793249564	875.799987792969
1586.29923381514	877.400024414063
1586.92045393815	876.599975585938
1587.54159287216	877.400024414063
1588.1626506246	876.599975585938
1588.78362720296	875.200012207031
1589.40452261468	878.200012207031
1590.02533686724	878.200012207031
1590.64606996808	876.799987792969
1591.26672192467	877.799987792969
1591.88729274447	877.599975585938
1592.50778243493	876.400024414063
1593.12819100352	877.799987792969
1593.7485184577	878.400024414063
1594.36876480492	877.400024414063
1594.98893005264	877
1595.60901420832	876.799987792969
1596.22901727941	875
1596.84893927338	879.400024414063
1597.46878019767	877.200012207031
1598.08854005975	878.599975585938
1598.70821886707	878.799987792969
1599.32781662708	879.599975585938
1599.94733334725	877
1600.56676903502	877
1601.18612369785	878.799987792969
1601.8053973432	876.799987792969
1602.42458997851	877.799987792969
1603.04370161124	879.400024414063
1603.66273224884	879.599975585938
1604.28168189878	880.400024414063
1604.90055056849	879
1605.51933826543	880.599975585938
1606.13804499705	878.200012207031
1606.75667077081	880.599975585938
1607.37521559415	882.599975585938
1607.99367947452	881.799987792969
1608.61206241938	883.200012207031
1609.23036443618	883.599975585938
1609.84858553236	884
1610.46672571537	882.799987792969
1611.08478499267	885.400024414063
1611.7027633717	884.599975585938
1612.3206608599	883.599975585938
1612.93847746473	884.599975585938
1613.55621319364	886
1614.17386805407	891.400024414063
1614.79144205347	890.200012207031
1615.40893519928	887.599975585938
1616.02634749895	889.599975585938
1616.64367895993	892.799987792969
1617.26092958966	894.200012207031
1617.87809939559	895.400024414063
1618.49518838516	897
1619.11219656582	896.200012207031
1619.729123945	898.599975585938
1620.34597053016	898.200012207031
1620.96273632874	902.599975585938
1621.57942134818	900.599975585938
1622.19602559592	904.200012207031
1622.8125490794	903.599975585938
1623.42899180607	907.400024414063
1624.04535378337	908
1624.66163501874	905.799987792969
1625.27783551963	904.400024414063
1625.89395529346	907.400024414063
1626.50999434768	904
1627.12595268974	905
1627.74183032707	903.599975585938
1628.3576272671	897
1628.97334351729	899.599975585938
1629.58897908506	897
1630.20453397786	893.400024414063
1630.82000820313	892
1631.43540176829	890.400024414063
1632.05071468079	889.400024414063
1632.66594694807	886.400024414063
1633.28109857756	885.799987792969
1633.8961695767	885
1634.51115995292	883.599975585938
1635.12606971366	882.799987792969
1635.74089886636	879
1636.35564741844	879
1636.97031537734	879.599975585938
1637.58490275051	875.799987792969
1638.19940954536	877.400024414063
1638.81383576934	877
1639.42818142987	876
1640.0424465344	876.400024414063
1640.65663109034	874.799987792969
1641.27073510515	872
1641.88475858623	874.799987792969
1642.49870154104	872.200012207031
1643.11256397699	875.400024414063
1643.72634590152	874.200012207031
1644.34004732206	875
1644.95366824604	874
1645.56720868089	873.200012207031
1646.18066863404	873.400024414063
1646.79404811291	871.799987792969
1647.40734712494	871.599975585938
1648.02056567755	872.200012207031
1648.63370377817	872
1649.24676143423	872.200012207031
1649.85973865316	871.200012207031
1650.47263544238	873.599975585938
1651.08545180932	872.400024414063
1651.6981877614	869.200012207031
1652.31084330606	870.400024414063
1652.92341845071	870.599975585938
1653.53591320278	872.400024414063
1654.1483275697	871
1654.7606615589	871.400024414063
1655.37291517778	871.400024414063
1655.98508843379	871.200012207031
1656.59718133434	872.400024414063
1657.20919388685	871.400024414063
1657.82112609875	871.799987792969
1658.43297797747	871.400024414063
1659.04474953041	870.599975585938
1659.65644076501	871.400024414063
1660.26805168869	870.599975585938
1660.87958230886	870.200012207031
1661.49103263294	871.599975585938
1662.10240266837	868
1662.71369242255	871.599975585938
1663.32490190291	869.599975585938
1663.93603111687	870.799987792969
1664.54708007184	869.799987792969
1665.15804877524	869.799987792969
1665.7689372345	869.400024414063
1666.37974545703	869.599975585938
1666.99047345024	869.400024414063
1667.60112122156	869.799987792969
1668.2116887784	869.799987792969
1668.82217612818	869.400024414063
1669.43258327831	869
1670.04291023622	870.400024414063
1670.65315700931	870.200012207031
1671.263323605	868.599975585938
1671.8734100307	869
1672.48341629384	870.200012207031
1673.09334240182	870
1673.70318836206	869.799987792969
1674.31295418197	868
1674.92263986896	869.799987792969
1675.53224543046	868.799987792969
1676.14177087386	868.400024414063
1676.75121620658	869.200012207031
1677.36058143604	870.200012207031
1677.96986656964	869
1678.5790716148	867.799987792969
1679.18819657892	868
1679.79724146943	868.400024414063
1680.40620629372	868.400024414063
1681.0150910592	868.599975585938
1681.6238957733	869.200012207031
1682.23262044341	867
1682.84126507694	867.799987792969
1683.4498296813	868.799987792969
1684.0583142639	869.200012207031
1684.66671883216	869.200012207031
1685.27504339346	867.599975585938
1685.88328795523	865.799987792969
1686.49145252487	867.599975585938
1687.09953710978	867.400024414063
1687.70754171737	869
1688.31546635505	868.799987792969
1688.92331103021	868.599975585938
1689.53107575028	868.200012207031
1690.13876052265	867.599975585938
1690.74636535472	868.400024414063
1691.3538902539	867.200012207031
1691.96133522759	866.200012207031
1692.5687002832	867.599975585938
1693.17598542812	866.799987792969
1693.78319066977	865.599975585938
1694.39031601554	868
1694.99736147283	868.200012207031
1695.60432704905	868
1696.2112127516	868.400024414063
1696.81801858788	868.799987792969
1697.42474456528	868.799987792969
1698.03139069121	867.799987792969
1698.63795697307	868.599975585938
1699.24444341826	869
1699.85085003417	869
1700.45717682821	868.599975585938
1701.06342380778	868.200012207031
1701.66959098026	867.200012207031
1702.27567835307	867.400024414063
1702.88168593359	867.400024414063
1703.48761372922	866.799987792969
1704.09346174737	867.599975585938
1704.69922999542	867.599975585938
1705.30491848077	867
1705.91052721083	868
1706.51605619297	868.200012207031
1707.12150543461	867
1707.72687494312	867
1708.33216472592	867.400024414063
1708.93737479039	867.400024414063
1709.54250514392	867.599975585938
