634.977642221345	879.200012207031
635.719821695905	879.799987792969
636.461909203392	879.799987792969
637.203904751776	882.400024414063
637.945808349023	879.599975585938
638.687620003102	881.200012207031
639.42933972198	881.400024414063
640.170967513616	880.799987792969
640.912503385981	879
641.653947347041	881.799987792969
642.395299404758	882.200012207031
643.13655956709	880.599975585938
643.877727842014	880
644.61880423748	882.400024414063
645.359788761455	881.799987792969
646.100681421905	880.200012207031
646.841482226789	881.799987792969
647.582191184074	881.799987792969
648.322808301711	883.799987792969
649.06333358767	884.400024414063
649.803767049909	882.599975585938
650.544108696385	883.400024414063
651.28435853506	882.400024414063
652.024516573894	884.400024414063
652.764582820849	885
653.504557283875	881.200012207031
654.244439970937	883.400024414063
654.984230889991	881.599975585938
655.723930048995	884
656.463537455909	882.400024414063
657.203053118683	881.200012207031
657.942477045275	883.799987792969
658.681809243647	880
659.421049721747	882.599975585938
660.160198487535	881.799987792969
660.899255548962	881.599975585938
661.638220913985	883.200012207031
662.377094590559	883.200012207031
663.115876586631	884.200012207031
663.854566910165	887
664.593165569107	885.799987792969
665.331672571406	882.799987792969
666.07008792502	881.400024414063
666.808411637902	881.200012207031
667.546643717996	881
668.284784173258	886.799987792969
669.022833011641	883.799987792969
669.760790241089	882.599975585938
670.498655869554	882.400024414063
671.236429904987	882
671.97411235534	882.400024414063
672.711703228551	884.200012207031
673.449202532577	884.599975585938
674.186610275364	886.799987792969
674.923926464857	884.599975585938
675.661151109008	884.799987792969
676.398284215759	884.599975585938
677.135325793058	886.400024414063
677.87227584885	887.200012207031
678.609134391082	883.799987792969
679.345901427696	883.200012207031
680.082576966644	883.400024414063
680.819161015861	883.200012207031
681.555653583298	886.200012207031
682.292054676895	884.599975585938
683.028364304594	883.200012207031
683.764582474344	881.599975585938
684.500709194083	880.200012207031
685.236744471752	883.400024414063
685.972688315294	883.799987792969
686.708540732652	882
687.444301731762	883.400024414063
688.179971320572	881.400024414063
688.915549507013	881.799987792969
689.651036299034	883.400024414063
690.386431704569	881.200012207031
691.121735731559	881
691.85694838794	880.799987792969
692.592069681652	881.799987792969
693.327099620632	883.200012207031
694.062038212821	883.599975585938
694.796885466149	883.799987792969
695.531641388561	884
696.266305987987	880.599975585938
697.000879272367	883.599975585938
697.735361249632	882.400024414063
698.469751927722	882.599975585938
699.204051314568	880.400024414063
699.938259418107	883.200012207031
700.672376246272	879.400024414063
701.406401806997	880.599975585938
702.140336108212	880
702.874179157855	881.799987792969
703.607930963856	879.400024414063
704.341591534147	881
705.07516087666	881.799987792969
705.808638999324	880.400024414063
706.542025910073	880
707.275321616841	881.200012207031
708.008526127549	878
708.741639450132	881.799987792969
709.474661592521	880.799987792969
710.207592562641	882.599975585938
710.940432368424	883.799987792969
711.673181017796	880.400024414063
712.405838518687	879.599975585938
713.138404879025	882
713.870880106731	880
714.603264209738	881.400024414063
715.335557195971	879.799987792969
716.067759073357	882
716.799869849816	883
717.531889533281	883.599975585938
718.263818131673	882.200012207031
718.995655652917	881.400024414063
719.727402104934	880.799987792969
720.45905749565	880
721.19062183299	880.799987792969
721.922095124877	880.599975585938
722.653477379231	883.200012207031
723.384768603973	881.799987792969
724.11596880703	881
724.847077996319	882.599975585938
725.578096179762	882.400024414063
726.309023365281	882.799987792969
727.039859560792	880.400024414063
727.770604774222	881.200012207031
728.501259013484	881.799987792969
729.231822286501	885.200012207031
729.962294601191	882
730.692675965469	881
731.42296638726	881.400024414063
732.153165874472	880.799987792969
732.883274435032	880.400024414063
733.613292076851	881.599975585938
734.343218807843	880.799987792969
735.07305463593	882.200012207031
735.802799569028	882.599975585938
736.532453615048	882.200012207031
737.262016781904	881
737.991489077517	882.400024414063
738.720870509794	882.799987792969
739.450161086654	882
740.179360816009	883
740.908469705772	880.400024414063
741.637487763854	881.400024414063
742.366414998168	882
743.095251416623	881.400024414063
743.823997027137	881.400024414063
744.552651837618	880.799987792969
745.281215855978	881
746.009689090124	880.599975585938
746.738071547964	879.599975585938
747.466363237419	883.599975585938
748.194564166384	883
748.92267434278	883
749.650693774504	881.599975585938
750.378622469476	883.799987792969
751.106460435596	882.799987792969
751.834207680771	882.200012207031
752.561864212909	883.599975585938
753.289430039919	881.400024414063
754.016905169707	879.400024414063
754.744289610175	882.400024414063
755.471583369231	884.200012207031
756.198786454782	881.400024414063
756.925898874728	882
757.652920636979	882.400024414063
758.379851749433	882.400024414063
759.106692219996	880.200012207031
759.833442056572	882.200012207031
760.560101267063	883
761.28666985937	885.400024414063
762.0131478414	883
762.739535221046	880.599975585938
763.465832006219	879.799987792969
764.192038204812	883.400024414063
764.918153824731	883
765.644178873872	881
766.370113360138	882.599975585938
767.095957291425	881.200012207031
767.821710675635	881.799987792969
768.547373520665	882.799987792969
769.272945834415	883.200012207031
769.998427624781	881
770.723818899658	881.400024414063
771.449119666949	882
772.174329934546	881.200012207031
772.899449710347	882.200012207031
773.624479002248	881.599975585938
774.349417818145	884.599975585938
775.074266165934	882
775.799024053505	883
776.523691488757	881.200012207031
777.248268479582	881.200012207031
777.972755033877	883.400024414063
778.69715115953	881.400024414063
779.421456864441	883
780.145672156493	882.599975585938
780.869797043587	881.400024414063
781.593831533611	883.200012207031
782.317775634457	882.400024414063
783.041629354012	881.400024414063
783.765392700174	882.799987792969
784.489065680828	881.400024414063
785.212648303866	882.599975585938
785.936140577177	881.400024414063
786.659542508652	881.200012207031
787.382854106174	882
788.106075377639	885.200012207031
788.829206330928	884.200012207031
789.552246973933	885.200012207031
790.275197314542	883
790.998057360638	883.799987792969
791.720827120108	883.200012207031
792.443506600841	883.400024414063
793.166095810722	882.599975585938
793.888594757635	881
794.611003449465	883.799987792969
795.333321894098	880.400024414063
796.055550099417	883.599975585938
796.777688073308	881.200012207031
797.499735823654	883
798.221693358334	882.200012207031
798.943560685235	884.200012207031
799.665337812239	886
800.387024747226	883.400024414063
801.108621498075	881
801.830128072674	881.400024414063
802.551544478902	882.200012207031
803.272870724636	884.599975585938
803.994106817761	881.799987792969
804.715252766148	881.599975585938
805.436308577687	883.200012207031
806.157274260251	883.400024414063
806.878149821721	881.799987792969
807.598935269973	880.599975585938
808.319630612886	883.400024414063
809.040235858336	884.799987792969
809.760751014202	883
810.481176088361	882
811.201511088685	884.799987792969
811.921756023059	882.599975585938
812.641910899347	882.400024414063
813.361975725432	881.200012207031
814.081950509188	883.400024414063
814.801835258489	882
815.521629981206	883.400024414063
816.241334685218	882.799987792969
816.960949378392	883
817.680474068606	883.200012207031
818.399908763731	880.799987792969
819.11925347164	882.200012207031
819.838508200202	881.599975585938
820.55767295729	882.799987792969
821.276747750778	879.799987792969
821.995732588531	882.799987792969
822.714627478425	883.799987792969
823.433432428327	884.799987792969
824.152147446105	881.400024414063
824.870772539632	885
825.589307716775	885.200012207031
826.307752985404	882.200012207031
827.026108353378	883.200012207031
827.744373828579	884.400024414063
828.462549418867	883.400024414063
829.180635132107	882.799987792969
829.898630976168	883.400024414063
830.616536958915	884
831.334353088218	884.599975585938
832.052079371938	882.799987792969
832.769715817942	883.599975585938
833.487262434092	883.200012207031
834.204719228255	884.400024414063
834.922086208293	884
835.639363382073	881.200012207031
836.356550757456	884.200012207031
837.073648342304	882.400024414063
837.790656144484	883
838.507574171847	882.799987792969
839.22440243227	881.200012207031
839.941140933601	884
840.657789683706	884.400024414063
841.374348690448	883.200012207031
842.090817961686	881.799987792969
842.807197505276	883.400024414063
843.523487329083	883
844.23968744096	881.599975585938
844.955797848771	883.599975585938
845.671818560374	882.400024414063
846.387749583622	882.599975585938
847.103590926378	882.400024414063
847.819342596497	881.200012207031
848.535004601833	881.799987792969
849.25057695025	883.400024414063
849.966059649598	882.200012207031
850.681452707735	882.400024414063
851.396756132513	883.799987792969
852.111969931789	883
852.827094113419	884.799987792969
853.542128685257	883.200012207031
854.257073655158	885.200012207031
854.971929030969	884.400024414063
855.686694820551	886.400024414063
856.40137103175	882.599975585938
857.115957672423	883.799987792969
857.830454750423	882.200012207031
858.544862273597	886
859.259180249797	883.599975585938
859.97340868688	886.400024414063
860.687547592688	884.799987792969
861.401596975075	884.400024414063
862.115556841891	883.799987792969
862.829427200985	884.599975585938
863.543208060205	884
864.256899427402	885.200012207031
864.970501310423	885.799987792969
865.684013717114	886.400024414063
866.397436655325	884.200012207031
867.110770132901	883.200012207031
867.824014157691	883.599975585938
868.537168737542	882.200012207031
869.250233880299	882.599975585938
869.963209593803	884.799987792969
870.676095885902	883.200012207031
871.388892764445	887.599975585938
872.101600237276	884.200012207031
872.814218312233	883.400024414063
873.526746997165	884.799987792969
874.239186299914	885.400024414063
874.951536228323	883
875.663796790231	882.799987792969
876.375967993487	883.599975585938
877.088049845928	885.799987792969
877.8000423554	885.400024414063
878.511945529739	884.799987792969
879.22375937679	884
879.935483904388	885
880.64711912038	881.200012207031
881.358665032604	884.400024414063
882.070121648892	883.400024414063
882.78148897709	883.799987792969
883.492767025039	883.599975585938
884.203955800571	886.799987792969
884.915055311525	884.400024414063
885.626065565741	885.200012207031
886.336986571053	885
887.047818335298	884.599975585938
887.758560866315	883.799987792969
888.469214171937	886.200012207031
889.179778260005	884.599975585938
889.890253138347	886.599975585938
890.600638814803	883.599975585938
891.310935297204	883.799987792969
892.021142593385	886.200012207031
892.731260711183	887.200012207031
893.441289658429	884
894.15122944295	884.599975585938
894.861080072591	884.599975585938
895.570841555173	885.200012207031
896.280513898534	885.400024414063
896.990097110503	883
897.699591198913	886.200012207031
898.408996171595	886.400024414063
899.118312036375	888.599975585938
899.827538801089	888.599975585938
900.536676473561	888
901.245725061628	886.200012207031
901.954684573109	887.799987792969
902.663555015838	883.400024414063
903.372336397644	884
904.081028726351	884.200012207031
904.789632009793	887
905.49814625579	888.400024414063
906.20657147217	886.799987792969
906.914907666765	888.200012207031
907.623154847391	888.400024414063
908.331313021885	886.200012207031
909.039382198064	887.400024414063
909.747362383754	885.599975585938
910.455253586782	885.799987792969
911.163055814972	885.599975585938
911.870769076143	886
912.578393378126	886
913.285928728738	887.200012207031
913.993375135802	884.799987792969
914.700732607145	886.799987792969
915.408001150579	888.400024414063
916.115180773937	886.599975585938
916.822271485037	887
917.529273291693	885.400024414063
918.236186201733	884.400024414063
918.943010222971	885.400024414063
919.649745363234	886.200012207031
920.356391630333	883.200012207031
921.062949032096	883.599975585938
921.769417576333	884.799987792969
922.475797270864	882.799987792969
923.182088123512	886.400024414063
923.888290142089	885.200012207031
924.594403334414	885
925.300427708304	887.799987792969
926.006363271572	886.400024414063
926.712210032039	883.799987792969
927.417967997522	886.599975585938
928.123637175827	884.200012207031
928.829217574776	884.400024414063
929.534709202184	884.400024414063
930.240112065859	884.599975585938
930.945426173621	885
931.650651533283	885.599975585938
932.355788152653	883.799987792969
933.060836039547	881.599975585938
933.765795201776	885.400024414063
934.470665647153	882.799987792969
935.175447383492	883.400024414063
935.880140418599	886.200012207031
936.584744760286	885.400024414063
937.289260416366	885.799987792969
937.993687394647	887.599975585938
938.698025702939	885.200012207031
939.402275349051	888.799987792969
940.106436340793	885.599975585938
940.810508685976	887.599975585938
941.5144923924	885.799987792969
942.21838746788	886.400024414063
942.922193920223	883.200012207031
943.625911757231	885.599975585938
944.329540986716	885.599975585938
945.033081616484	885
945.736533654334	886.200012207031
946.439897108083	883.400024414063
947.143171985529	886
947.846358294477	886.200012207031
948.549456042732	886.599975585938
949.2524652381	884.799987792969
949.955385888382	885.799987792969
950.658218001384	884.400024414063
951.360961584907	884.599975585938
952.063616646755	884.400024414063
952.766183194733	883.799987792969
953.468661236636	884.200012207031
954.171050780271	881.799987792969
954.873351833437	884
955.575564403935	883.799987792969
956.277688499565	883.400024414063
956.97972412813	888.400024414063
957.681671297424	884.599975585938
958.383530015255	884.799987792969
959.085300289414	883.400024414063
959.786982127703	884.200012207031
960.488575537918	885
961.190080527859	882.599975585938
961.891497105327	884.400024414063
962.592825278111	884.400024414063
963.294065054012	885.799987792969
963.995216440829	887.599975585938
964.696279446353	884.599975585938
965.397254078383	885.400024414063
966.098140344714	888.400024414063
966.798938253139	885.400024414063
967.499647811456	887.799987792969
968.200269027458	882.400024414063
968.900801908937	883
969.601246463685	885.599975585938
970.3016026995	884.599975585938
971.001870624169	882.599975585938
971.702050245491	887
972.402141571249	884.799987792969
973.102144609245	885.200012207031
973.802059367267	885.200012207031
974.501885853103	887
975.201624074541	885.200012207031
975.901274039379	885.200012207031
976.600835755399	885
977.3003092304	881.599975585938
977.999694472158	883
978.698991488473	885.400024414063
979.39820028713	882.599975585938
980.097320875915	884.599975585938
980.796353262618	886.200012207031
981.495297455024	886.599975585938
982.194153460919	885.599975585938
982.892921288093	885.599975585938
983.591600944331	884
984.290192437419	886.200012207031
984.98869577514	885
985.687110965282	886
986.385438015629	888.799987792969
987.083676933961	884
987.781827728069	881.799987792969
988.479890405732	885.400024414063
989.177864974732	886.599975585938
989.875751442857	886.599975585938
990.573549817888	884.799987792969
991.271260107602	885.200012207031
991.968882319786	882.599975585938
992.666416462217	883.799987792969
993.363862542681	887.599975585938
994.061220568959	886.799987792969
994.758490548823	884
995.455672490061	883.400024414063
996.152766400451	884.599975585938
996.849772287773	883.599975585938
997.5466901598	884
998.243520024317	884
998.940261889097	884.400024414063
999.636915761923	884.799987792969
1000.33348165057	882.200012207031
1001.02995956281	886.599975585938
1001.72634950643	887.200012207031
1002.42265148919	884.400024414063
1003.11886551889	886.799987792969
1003.81499160328	886.200012207031
1004.51102975015	888.400024414063
1005.20697996727	886.200012207031
1005.90284226242	884.200012207031
1006.59861664337	886.799987792969
1007.2943031179	887.400024414063
1007.98990169377	884
1008.68541237876	885.200012207031
1009.38083518064	885.400024414063
1010.07617010719	886
1010.77141716617	886.200012207031
1011.46657636536	887.400024414063
1012.16164771253	885.200012207031
1012.85663121546	882.799987792969
1013.5515268819	881.200012207031
1014.24633471963	881.200012207031
1014.94105473642	885
1015.63568694004	887.799987792969
1016.33023133826	888.200012207031
1017.02468793885	886.799987792969
1017.71905674957	886
1018.41333777819	886.599975585938
1019.10753103249	888.400024414063
1019.80163652022	885.799987792969
1020.49565424916	885.799987792969
1021.18958422707	888.400024414063
1021.88342646171	887
1022.57718096085	886.400024414063
1023.27084773227	886
1023.96442678371	888.599975585938
1024.65791812296	887.400024414063
1025.35132175776	888
1026.04463769589	890
1026.73786594511	887
1027.43100651318	888.400024414063
1028.12405940786	892
1028.81702463692	889.799987792969
1029.50990220812	887
1030.20269212921	889.400024414063
1030.89539440798	890
1031.58800905216	890.799987792969
1032.28053606952	890
1032.97297546784	890.799987792969
1033.66532725485	890.599975585938
1034.35759143832	889
1035.04976802602	888.599975585938
1035.7418570257	892
1036.43385844511	890
1037.12577229202	886.200012207031
1037.81759857419	890.799987792969
1038.50933729937	891.799987792969
1039.20098847531	891.599975585938
1039.89255210978	887.799987792969
1040.58402821053	885.599975585938
1041.27541678532	887.599975585938
1041.96671784191	889.400024414063
1042.65793138804	889
1043.34905743147	888.599975585938
1044.04009597996	888.200012207031
1044.73104704125	887.599975585938
1045.42191062312	891.799987792969
1046.1126867333	887.599975585938
1046.80337537955	886
1047.49397656962	891.400024414063
1048.18449031127	888.799987792969
1048.87491661225	887.400024414063
1049.5652554803	888
1050.25550692319	889.200012207031
1050.94567094865	885.400024414063
1051.63574756444	886.200012207031
1052.32573677832	886.599975585938
1053.01563859803	886
1053.70545303131	886
1054.39518008592	883.400024414063
1055.08481976961	888.799987792969
1055.77437209013	888
1056.46383705522	887
1057.15321467262	887
1057.8425049501	886
1058.53170789539	889.599975585938
1059.22082351624	888.200012207031
1059.9098518204	885.400024414063
1060.59879281561	887.799987792969
1061.28764650962	886.599975585938
1061.97641291016	886.200012207031
1062.665092025	886.599975585938
1063.35368386187	887
1064.04218842851	884.200012207031
1064.73060573268	886.799987792969
1065.4189357821	885.799987792969
1066.10717858452	885.400024414063
1066.7953341477	885
1067.48340247936	886
1068.17138358725	885.599975585938
1068.85927747912	886.599975585938
1069.5470841627	888.200012207031
1070.23480364573	889.599975585938
1070.92243593595	887.599975585938
1071.60998104111	889
1072.29743896894	889.200012207031
1072.98480972718	887.400024414063
1073.67209332357	887.200012207031
1074.35928976585	886.599975585938
1075.04639906176	887.799987792969
1075.73342121903	890.200012207031
1076.42035624541	888
1077.10720414862	888.200012207031
1077.79396493641	886.599975585938
1078.48063861651	887.400024414063
1079.16722519666	886.400024414063
1079.85372468459	888.599975585938
1080.54013708804	885.599975585938
1081.22646241474	885.400024414063
1081.91270067243	887.599975585938
1082.59885186884	886.200012207031
1083.28491601171	885.599975585938
1083.97089310877	888.400024414063
1084.65678316774	887.799987792969
1085.34258619637	888.599975585938
1086.02830220239	886.599975585938
1086.71393119352	886
1087.39947317751	886.400024414063
1088.08492816207	888.200012207031
1088.77029615495	889.599975585938
1089.45557716387	890.200012207031
1090.14077119656	890.400024414063
1090.82587826075	885.799987792969
1091.51089836417	889.799987792969
1092.19583151456	885.400024414063
1092.88067771963	889
1093.56543698712	886.799987792969
1094.25010932475	886
1094.93469474026	886.799987792969
1095.61919324137	888.400024414063
1096.3036048358	885.799987792969
1096.98792953129	886.799987792969
1097.67216733555	887.799987792969
1098.35631825632	887
1099.04038230132	887.799987792969
1099.72435947828	887.799987792969
1100.40824979492	885.200012207031
1101.09205325895	887.400024414063
1101.77576987812	886.799987792969
1102.45939966014	885.200012207031
1103.14294261273	887.599975585938
1103.82639874362	887
1104.50976806054	886.400024414063
1105.19305057119	888
1105.87624628331	888.599975585938
1106.55935520461	888.799987792969
1107.24237734283	888.599975585938
1107.92531270566	894
1108.60816130085	889.400024414063
1109.2909231361	889.200012207031
1109.97359821914	888
1110.65618655768	889.599975585938
1111.33868815946	890.400024414063
1112.02110303217	889
1112.70343118355	889.200012207031
1113.3856726213	890.400024414063
1114.06782735316	892
1114.74989538683	890
1115.43187673002	889.599975585938
1116.11377139047	886.799987792969
1116.79557937588	889.799987792969
1117.47730069397	889.799987792969
1118.15893535245	893.599975585938
1118.84048335904	890.599975585938
1119.52194472146	892.799987792969
1120.20331944741	893.599975585938
1120.88460754462	890
1121.56580902079	894
1122.24692388364	892.599975585938
1122.92795214088	893.200012207031
1123.60889380022	892.599975585938
1124.28974886938	894.599975585938
1124.97051735606	893.799987792969
1125.65119926799	893.200012207031
1126.33179461286	894.200012207031
1127.0123033984	895.799987792969
1127.6927256323	896
1128.37306132229	894.400024414063
1129.05331047606	893.599975585938
1129.73347310134	893.599975585938
1130.41354920582	893
1131.09353879722	891.400024414063
1131.77344188324	891.599975585938
1132.45325847159	893.200012207031
1133.13298856999	894.200012207031
1133.81263218612	893.799987792969
1134.49218932772	895.200012207031
1135.17166000247	892.400024414063
1135.85104421809	894.599975585938
1136.53034198227	892.400024414063
1137.20955330274	892.200012207031
1137.88867818718	894.799987792969
1138.56771664331	893.400024414063
1139.24666867883	892
1139.92553430144	893
1140.60431351885	892
1141.28300633876	892.799987792969
1141.96161276887	892
1142.64013281689	893
1143.31856649051	895
1143.99691379744	893.400024414063
1144.67517474538	891.599975585938
1145.35334934203	888.200012207031
1146.03143759509	890.799987792969
1146.70943951226	890.799987792969
1147.38735510125	890.200012207031
1148.06518436974	892.599975585938
1148.74292732545	890
1149.42058397606	891.799987792969
1150.09815432928	894.400024414063
1150.7756383928	894
1151.45303617432	892.599975585938
1152.13034768155	893
1152.80757292217	889.200012207031
1153.48471190389	892.200012207031
1154.16176463439	891.599975585938
1154.83873112138	891.400024414063
1155.51561137255	894
1156.1924053956	891.400024414063
1156.86911319822	890.200012207031
1157.5457347881	890.799987792969
1158.22227017294	890.799987792969
1158.89871936044	890.799987792969
1159.57508235828	893
1160.25135917416	890.400024414063
1160.92754981578	892.200012207031
1161.60365429081	890.799987792969
1162.27967260697	892.200012207031
1162.95560477193	891.400024414063
1163.63145079339	891.599975585938
1164.30721067904	891.599975585938
1164.98288443657	892
1165.65847207367	893.599975585938
1166.33397359803	891.599975585938
1167.00938901735	891.799987792969
1167.6847183393	892.799987792969
1168.35996157157	890.400024414063
1169.03511872187	891.599975585938
1169.71018979787	889.200012207031
1170.38517480726	891.799987792969
1171.06007375773	892.599975585938
1171.73488665696	891
1172.40961351265	891
1173.08425433247	894.400024414063
1173.75880912412	894
1174.43327789528	890.200012207031
1175.10766065364	889.400024414063
1175.78195740687	894
1176.45616816267	891.599975585938
1177.13029292871	891.799987792969
1177.80433171269	888.799987792969
1178.47828452229	890.599975585938
1179.15215136518	891.799987792969
1179.82593224905	891.400024414063
1180.49962718159	892
1181.17323617047	892.200012207031
1181.84675922337	891
1182.52019634799	892.799987792969
1183.193547552	891.400024414063
1183.86681284307	891.200012207031
1184.53999222889	889.799987792969
1185.21308571714	891.400024414063
1185.8860933155	890.799987792969
1186.55901503165	890.400024414063
1187.23185087326	889.799987792969
1187.90460084802	887.400024414063
1188.5772649636	891
1189.24984322768	894.799987792969
1189.92233564794	896
1190.59474223206	893.599975585938
1191.2670629877	893.599975585938
1191.93929792255	892.799987792969
1192.61144704428	891.200012207031
1193.28351036058	892.400024414063
1193.9554878791	893.599975585938
1194.62737960754	890
1195.29918555356	894.200012207031
1195.97090572483	894.200012207031
1196.64254012903	893
1197.31408877384	892.799987792969
1197.98555166693	895.599975585938
1198.65692881596	895.599975585938
1199.32822022862	893.799987792969
1199.99942591256	894
1200.67054587548	894.200012207031
1201.34158012503	890.400024414063
1202.01252866889	894.400024414063
1202.68339151473	895.200012207031
1203.35416867021	894.799987792969
1204.02486014301	893.599975585938
1204.6954659408	893.200012207031
1205.36598607124	895.400024414063
1206.03642054201	895
1206.70676936078	896.200012207031
1207.3770325352	893
1208.04721007295	895.599975585938
1208.7173019817	896.400024414063
1209.38730826911	893.599975585938
1210.05722894285	893
1210.72706401059	894.400024414063
1211.39681347999	896.400024414063
1212.06647735872	894.799987792969
1212.73605565444	894.599975585938
1213.40554837481	897.200012207031
1214.07495552751	895.400024414063
1214.74427712019	893.799987792969
1215.41351316052	898.400024414063
1216.08266365617	898.200012207031
1216.75172861479	895
1217.42070804405	897.799987792969
1218.0896019516	898.599975585938
1218.75841034513	898.799987792969
1219.42713323227	901.599975585938
1220.0957706207	898
1220.76432251808	899.799987792969
1221.43278893207	898.599975585938
1222.10116987032	898.400024414063
1222.7694653405	899.200012207031
1223.43767535026	901.200012207031
1224.10579990727	900.400024414063
1224.77383901918	897.799987792969
1225.44179269366	900.599975585938
1226.10966093835	897.400024414063
1226.77744376093	898.400024414063
1227.44514116904	899
1228.11275317034	898.200012207031
1228.78027977249	898.599975585938
1229.44772098315	896.200012207031
1230.11507680996	895.200012207031
1230.7823472606	900.400024414063
1231.44953234271	898.400024414063
1232.11663206394	900.200012207031
1232.78364643195	900.799987792969
1233.4505754544	893.400024414063
1234.11741913894	897.200012207031
1234.78417749322	898.400024414063
1235.45085052489	898.799987792969
1236.11743824162	898
1236.78394065104	899.599975585938
1237.45035776082	898.599975585938
1238.1166895786	898.799987792969
1238.78293611204	896.200012207031
1239.44909736878	896
1240.11517335648	894.599975585938
1240.78116408279	899.200012207031
1241.44706955535	899.599975585938
1242.11288978182	898.799987792969
1242.77862476985	899.400024414063
1243.44427452708	898.599975585938
1244.10983906116	899.400024414063
1244.77531837974	898.799987792969
1245.44071249047	901.400024414063
1246.106021401	898
1246.77124511898	897.599975585938
1247.43638365204	896.599975585938
1248.10143700783	899
1248.76640519401	896.799987792969
1249.43128821822	899.200012207031
1250.0960860881	895.400024414063
1250.76079881129	897.400024414063
1251.42542639545	897.400024414063
1252.08996884822	893.599975585938
1252.75442617723	900.599975585938
1253.41879839014	899.200012207031
1254.08308549458	901.799987792969
1254.74728749821	899.599975585938
1255.41140440866	897.200012207031
1256.07543623357	899.799987792969
1256.73938298059	897.400024414063
1257.40324465735	895.599975585938
1258.0670212715	898.400024414063
1258.73071283068	898.400024414063
1259.39431934253	897.400024414063
1260.05784081468	896.400024414063
1260.72127725479	897
1261.38462867049	894.599975585938
1262.0478950694	895.400024414063
1262.71107645919	896.799987792969
1263.37417284748	893.799987792969
1264.03718424191	898.799987792969
1264.70011065011	896.599975585938
1265.36295207974	896.799987792969
1266.02570853841	895.799987792969
1266.68838003378	895.799987792969
1267.35096657346	893.400024414063
1268.01346816511	893.200012207031
1268.67588481636	895
1269.33821653483	898.200012207031
1270.00046332817	899
1270.66262520401	895
1271.32470216998	894.400024414063
1271.98669423372	897.200012207031
1272.64860140285	896.200012207031
1273.31042368503	896.599975585938
1273.97216108786	895.799987792969
1274.633813619	896.400024414063
1275.29538128606	897.400024414063
1275.95686409669	898.599975585938
1276.6182620585	898.799987792969
1277.27957517914	898.599975585938
1277.94080346624	897.799987792969
1278.60194692741	901.599975585938
1279.2630055703	900.400024414063
1279.92397940253	896.799987792969
1280.58486843173	898.599975585938
1281.24567266552	898.400024414063
1281.90639211155	900.200012207031
1282.56702677743	901.799987792969
1283.2275766708	899.799987792969
1283.88804179927	896.599975585938
1284.54842217049	896.599975585938
1285.20871779206	897.200012207031
1285.86892867163	897.799987792969
1286.52905481681	900.400024414063
1287.18909623523	900.799987792969
1287.84905293452	896.799987792969
1288.5089249223	898.599975585938
1289.16871220619	900.799987792969
1289.82841479383	901
1290.48803269282	897.799987792969
1291.1475659108	896
1291.80701445539	893.200012207031
1292.46637833421	895
1293.12565755489	896.799987792969
1293.78485212504	895.599975585938
1294.44396205229	898.799987792969
1295.10298734425	897.599975585938
1295.76192800856	896.599975585938
1296.42078405283	898.599975585938
1297.07955548467	900.599975585938
1297.73824231171	899.799987792969
1298.39684454158	899
1299.05536218188	902
1299.71379524023	900.799987792969
1300.37214372427	899.799987792969
1301.03040764159	900.599975585938
1301.68858699983	900.400024414063
1302.34668180659	899.799987792969
1303.0046920695	902.799987792969
1303.66261779617	902
1304.32045899422	904.400024414063
1304.97821567126	903.400024414063
1305.63588783492	903.799987792969
1306.29347549279	898.400024414063
1306.95097865251	900.799987792969
1307.60839732168	900.599975585938
1308.26573150791	897.799987792969
1308.92298121883	901.400024414063
1309.58014646204	902.200012207031
1310.23722724517	900.400024414063
1310.89422357581	901
1311.55113546158	903.799987792969
1312.2079629101	903
1312.86470592898	903.200012207031
1313.52136452582	904.799987792969
1314.17793870824	904.799987792969
1314.83442848386	904.599975585938
1315.49083386027	906.200012207031
1316.14715484509	905.200012207031
1316.80339144594	907.200012207031
1317.45954367041	904
1318.11561152611	903.400024414063
1318.77159502067	905.400024414063
1319.42749416168	906.799987792969
1320.08330895674	903
1320.73903941348	907.799987792969
1321.3946855395	906.400024414063
1322.0502473424	905.400024414063
1322.70572482978	903
1323.36111800926	905.799987792969
1324.01642688845	904.400024414063
1324.67165147494	909.799987792969
1325.32679177634	903.200012207031
1325.98184780025	906.599975585938
1326.63681955429	904.200012207031
1327.29170704605	907
1327.94651028314	903.799987792969
1328.60122927316	908.200012207031
1329.25586402371	906
1329.9104145424	903.599975585938
1330.56488083683	906.400024414063
1331.2192629146	907
1331.87356078331	903.799987792969
1332.52777445056	904
1333.18190392395	904.200012207031
1333.83594921109	904.200012207031
1334.48991031958	902.200012207031
1335.143787257	907.400024414063
1335.79758003097	902.400024414063
1336.45128864908	907.400024414063
1337.10491311893	910
1337.75845344813	906.400024414063
1338.41190964425	905
1339.06528171491	906.599975585938
1339.71856966771	904
1340.37177351023	904.400024414063
1341.02489325007	904.799987792969
1341.67792889484	902
1342.33088045212	902.400024414063
1342.98374792952	901.200012207031
1343.63653133462	902.200012207031
1344.28923067503	904.400024414063
1344.94184595833	904.200012207031
1345.59437719212	904.400024414063
1346.246824384	905.400024414063
1346.89918754155	905
1347.55146667238	904.200012207031
1348.20366178407	905.200012207031
1348.85577288421	902.799987792969
1349.50779998041	905.200012207031
1350.15974308024	904.799987792969
1350.8116021913	906.400024414063
1351.46337732119	905
1352.11506847748	904.799987792969
1352.76667566778	905.799987792969
1353.41819889967	904.799987792969
1354.06963818074	902.400024414063
1354.72099351858	904.599975585938
1355.37226492079	908
1356.02345239494	904.799987792969
1356.67455594862	909.400024414063
1357.32557558943	904.599975585938
1357.97651132496	903.400024414063
1358.62736316277	906.200012207031
1359.27813111048	903.799987792969
1359.92881517565	906
1360.57941536589	909.799987792969
1361.22993168876	904.799987792969
1361.88036415186	908.799987792969
1362.53071276278	907
1363.1809775291	908.200012207031
1363.8311584584	905
1364.48125555826	907.799987792969
1365.13126883627	904.799987792969
1365.78119830001	903.799987792969
1366.43104395707	908
1367.08080581503	903.400024414063
1367.73048388147	903.799987792969
1368.38007816397	903.200012207031
1369.02958867011	904.799987792969
1369.67901540748	904
1370.32835838365	902.799987792969
1370.9776176062	908.200012207031
1371.62679308273	905.200012207031
1372.27588482079	905.599975585938
1372.92489282798	905.599975585938
1373.57381711188	904.599975585938
1374.22265768006	904.799987792969
1374.87141454009	908.400024414063
1375.52008769957	905.200012207031
1376.16867716606	908
1376.81718294715	905.599975585938
1377.4656050504	907.599975585938
1378.1139434834	909.799987792969
1378.76219825373	910.200012207031
1379.41036936895	907.200012207031
1380.05845683664	908.799987792969
1380.70646066439	902.200012207031
1381.35438085976	908
1382.00221743032	906.400024414063
1382.64997038366	905.599975585938
1383.29763972735	904.799987792969
1383.94522546895	906
1384.59272761605	904.400024414063
1385.24014617621	906.400024414063
1385.88748115701	907.200012207031
1386.53473256602	905.400024414063
1387.18190041081	907
1387.82898469895	907.200012207031
1388.47598543802	909.200012207031
1389.12290263558	907.599975585938
1389.7697362992	909.599975585938
1390.41648643646	905.799987792969
1391.06315305492	908
1391.70973616215	906.799987792969
1392.35623576573	904
1393.00265187321	902.400024414063
1393.64898449217	906
1394.29523363018	907.799987792969
1394.94139929481	907.799987792969
1395.58748149361	906.400024414063
1396.23348023415	903.799987792969
1396.87939552402	902.799987792969
1397.52522737076	906.799987792969
1398.17097578195	907.799987792969
1398.81664076514	906
1399.46222232792	909.799987792969
1400.10772047783	906.799987792969
1400.75313522245	905.799987792969
1401.39846656934	909.400024414063
1402.04371452605	910
1402.68887910016	905.799987792969
1403.33396029924	909.799987792969
1403.97895813083	906
1404.6238726025	907.200012207031
1405.26870372182	908
1405.91345149634	903.400024414063
1406.55811593363	910.400024414063
1407.20269704125	905.599975585938
1407.84719482676	904.200012207031
1408.49160929772	908.599975585938
1409.13594046168	908.599975585938
1409.78018832622	904.400024414063
1410.42435289887	907.400024414063
1411.06843418722	911.400024414063
1411.7124321988	907.599975585938
1412.3563469412	908.599975585938
1413.00017842194	912.200012207031
1413.64392664861	913
1414.28759162875	912.799987792969
1414.93117336992	913.799987792969
1415.57467187967	909.400024414063
1416.21808716557	914
1416.86141923516	911.599975585938
1417.50466809601	911.200012207031
1418.14783375567	911.400024414063
1418.79091622169	911
1419.43391550162	912.200012207031
1420.07683160303	911.400024414063
1420.71966453346	916.400024414063
1421.36241430046	912.200012207031
1422.0050809116	913
1422.64766437442	915.200012207031
1423.29016469647	916.200012207031
1423.93258188531	918.400024414063
1424.57491594848	913.400024414063
1425.21716689354	915
1425.85933472805	912.599975585938
1426.50141945954	918.200012207031
1427.14342109557	915.799987792969
1427.78533964369	916.799987792969
1428.42717511144	917.200012207031
1429.06892750639	914.599975585938
1429.71059683607	917.200012207031
1430.35218310803	913
1430.99368632983	912.400024414063
1431.635106509	915
1432.2764436531	913.599975585938
1432.91769776967	916.799987792969
1433.55886886627	914.599975585938
1434.19995695043	916.799987792969
1434.84096202969	916.400024414063
1435.48188411162	912.599975585938
1436.12272320375	917.799987792969
1436.76347931363	914.799987792969
1437.40415244879	916.200012207031
1438.0447426168	919.599975585938
1438.68524982518	917.200012207031
1439.32567408148	916.599975585938
1439.96601539325	915.599975585938
1440.60627376803	916.599975585938
1441.24644921336	913.799987792969
1441.88654173678	918.599975585938
1442.52655134583	913
1443.16647804806	916.799987792969
1443.806321851	915.599975585938
1444.4460827622	912.599975585938
1445.0857607892	914
1445.72535593953	914.200012207031
1446.36486822074	918.200012207031
1447.00429764037	920
1447.64364420595	913.799987792969
1448.28290792502	915.200012207031
1448.92208880512	913.400024414063
1449.56118685379	916
1450.20020207857	915.599975585938
1450.83913448699	918.400024414063
1451.47798408659	911
1452.1167508849	919
1452.75543488947	913.400024414063
1453.39403610782	911.200012207031
1454.0325545475	917.599975585938
1454.67099021603	914.799987792969
1455.30934312097	913.200012207031
1455.94761326982	914.799987792969
1456.58580067014	911.200012207031
1457.22390532945	911.599975585938
1457.86192725529	913.400024414063
1458.49986645519	909.599975585938
1459.13772293668	912.599975585938
1459.7754967073	910.799987792969
1460.41318777457	912
1461.05079614604	910.200012207031
1461.68832182922	908
1462.32576483166	911.599975585938
1462.96312516087	909.799987792969
1463.6004028244	910
1464.23759782977	907.799987792969
1464.8747101845	905.799987792969
1465.51173989614	912.200012207031
1466.14868697221	904.799987792969
1466.78555142024	908.200012207031
1467.42233324774	907.599975585938
1468.05903246227	905.799987792969
1468.69564907133	908.599975585938
1469.33218308246	904.200012207031
1469.96863450317	908.599975585938
1470.60500334102	906.599975585938
1471.2412896035	907.400024414063
1471.87749329816	905.799987792969
1472.51361443251	906.400024414063
1473.14965301409	909.799987792969
1473.78560905041	904.799987792969
1474.421482549	907
1475.05727351739	906.400024414063
1475.69298196309	910
1476.32860789364	907.400024414063
1476.96415131654	905
1477.59961223934	906.599975585938
1478.23499066954	905.599975585938
1478.87028661467	904
1479.50550008226	905.200012207031
1480.14063107981	903.200012207031
1480.77567961486	907.400024414063
1481.41064569492	902.400024414063
1482.04552932752	905.599975585938
1482.68033052017	905.799987792969
1483.31504928039	902.400024414063
1483.9496856157	905
1484.58423953363	907.200012207031
1485.21871104168	909.200012207031
1485.85310014738	905.400024414063
1486.48740685824	904.400024414063
1487.12163118178	904
1487.75577312553	902.400024414063
1488.38983269698	905.400024414063
1489.02380990367	905.200012207031
1489.65770475311	907.400024414063
1490.29151725281	905.400024414063
1490.92524741029	904.200012207031
1491.55889523306	905.599975585938
1492.19246072863	906
1492.82594390453	907
1493.45934476826	907
1494.09266332734	906.400024414063
1494.72589958928	903.799987792969
1495.3590535616	905.200012207031
1495.99212525181	907.400024414063
1496.62511466741	906.400024414063
1497.25802181592	908
1497.89084670485	902.799987792969
1498.52358934172	902.599975585938
1499.15624973403	905.799987792969
1499.7888278893	904.599975585938
1500.42132381503	901.400024414063
1501.05373751873	902.400024414063
1501.68606900792	905.799987792969
1502.31831829009	903.400024414063
1502.95048537277	902
1503.58257026346	901.400024414063
1504.21457296966	901.599975585938
1504.84649349889	903
1505.47833185864	905.400024414063
1506.11008805644	906.599975585938
1506.74176209978	905.599975585938
1507.37335399617	904.599975585938
1508.00486375312	903.599975585938
1508.63629137813	903.200012207031
1509.2676368787	901
1509.89890026235	902.799987792969
1510.53008153658	900.599975585938
1511.16118070889	903.599975585938
1511.79219778677	905.599975585938
1512.42313277775	901.599975585938
1513.05398568932	906.599975585938
1513.68475652898	903
1514.31544530424	904.799987792969
1514.9460520226	902.200012207031
1515.57657669155	903
1516.20701931861	904.200012207031
1516.83737991127	902
1517.46765847702	906.200012207031
1518.09785502339	902
1518.72796955785	905.200012207031
1519.35800208792	904.799987792969
1519.98795262109	904.400024414063
1520.61782116486	903
1521.24760772673	904.400024414063
1521.87731231419	904.799987792969
1522.50693493475	906.400024414063
1523.1364755959	898.599975585938
1523.76593430514	901.200012207031
1524.39531106997	901
1525.02460589788	901.799987792969
1525.65381879637	901
1526.28294977293	900.599975585938
1526.91199883507	902.200012207031
1527.54096599027	900.599975585938
1528.16985124603	898.599975585938
1528.79865460984	898.400024414063
1529.4273760892	897.799987792969
1530.05601569161	897.599975585938
1530.68457342455	902.200012207031
1531.31304929552	903.200012207031
1531.94144331201	901
1532.56975548151	904
1533.19798581152	898.799987792969
1533.82613430953	899
1534.45420098302	899.599975585938
1535.08218583949	901.400024414063
1535.71008888643	902.599975585938
1536.33791013134	898.799987792969
1536.96564958169	899.599975585938
1537.59330724498	904
1538.22088312871	899
1538.84837724034	897.799987792969
1539.47578958739	897.200012207031
1540.10312017733	899.799987792969
1540.73036901765	898.400024414063
1541.35753611584	900.200012207031
1541.98462147939	898.400024414063
1542.61162511578	896.400024414063
1543.2385470325	899.599975585938
1543.86538723704	900.200012207031
1544.49214573688	900.599975585938
1545.11882253951	900.799987792969
1545.74541765241	902
1546.37193108306	900.200012207031
1546.99836283896	896.799987792969
1547.62471292758	895.400024414063
1548.25098135641	898.200012207031
1548.87716813294	899.799987792969
1549.50327326464	899.599975585938
1550.12929675899	896.200012207031
1550.75523862349	898.400024414063
1551.38109886561	897.599975585938
1552.00687749284	897.200012207031
1552.63257451264	897
1553.25818993252	898.599975585938
1553.88372375994	900.799987792969
1554.50917600239	899
1555.13454666734	900.599975585938
1555.75983576228	900
1556.38504329469	902
1557.01016927204	898.400024414063
1557.63521370181	900.799987792969
1558.26017659149	899.599975585938
1558.88505794854	896.200012207031
1559.50985778045	896
1560.13457609469	899.400024414063
1560.75921289874	900.799987792969
1561.38376820008	895.599975585938
1562.00824200618	898.599975585938
1562.63263432452	899.400024414063
1563.25694516257	894.400024414063
1563.88117452781	902.599975585938
1564.50532242772	900.200012207031
1565.12938886976	899.799987792969
1565.75337386141	899.400024414063
1566.37727741015	898.599975585938
1567.00109952345	898.599975585938
1567.62484020878	902.799987792969
1568.24849947361	900
1568.87207732542	899.200012207031
1569.49557377168	900
1570.11898881986	899
1570.74232247743	902
1571.36557475186	901.200012207031
1571.98874565062	901.599975585938
1572.61183518119	903.799987792969
1573.23484335103	901.599975585938
1573.85777016761	901
1574.4806156384	900.400024414063
1575.10337977088	902
1575.7260625725	905
1576.34866405074	903.200012207031
1576.97118421306	901.200012207031
1577.59362306694	901.599975585938
1578.21598061984	900.799987792969
1578.83825687922	900.400024414063
1579.46045185255	902.400024414063
1580.08256554731	900.200012207031
1580.70459797094	900.599975585938
1581.32654913093	901.400024414063
1581.94841903473	900
1582.57020768981	903.200012207031
1583.19191510364	900.200012207031
1583.81354128367	901.400024414063
1584.43508623737	899.200012207031
1585.05654997221	902.200012207031
1585.67793249564	899.599975585938
1586.29923381514	903.400024414063
1586.92045393815	904
1587.54159287216	901.599975585938
1588.1626506246	903.200012207031
1588.78362720296	901.799987792969
1589.40452261468	903.799987792969
1590.02533686724	898
1590.64606996808	899.799987792969
1591.26672192467	898.599975585938
1591.88729274447	901.400024414063
1592.50778243493	900
1593.12819100352	895.799987792969
1593.7485184577	896.599975585938
1594.36876480492	895.400024414063
1594.98893005264	892.599975585938
1595.60901420832	898.599975585938
1596.22901727941	892.599975585938
1596.84893927338	898
1597.46878019767	898
1598.08854005975	898.400024414063
1598.70821886707	900.599975585938
1599.32781662708	898
1599.94733334725	898.799987792969
1600.56676903502	897.599975585938
1601.18612369785	898
1601.8053973432	900.200012207031
1602.42458997851	896
1603.04370161124	895
1603.66273224884	899.400024414063
1604.28168189878	898
1604.90055056849	897.200012207031
1605.51933826543	897.200012207031
1606.13804499705	900.599975585938
1606.75667077081	901.400024414063
1607.37521559415	899.400024414063
1607.99367947452	899
1608.61206241938	902
1609.23036443618	898.400024414063
1609.84858553236	898
1610.46672571537	898.599975585938
1611.08478499267	901.400024414063
1611.7027633717	898.599975585938
1612.3206608599	901
1612.93847746473	902
1613.55621319364	899.599975585938
1614.17386805407	900.400024414063
1614.79144205347	902
1615.40893519928	902
1616.02634749895	901.799987792969
1616.64367895993	900.400024414063
1617.26092958966	904.200012207031
1617.87809939559	903.799987792969
1618.49518838516	905.400024414063
1619.11219656582	899.400024414063
1619.729123945	905
1620.34597053016	906.400024414063
1620.96273632874	905
1621.57942134818	905.400024414063
1622.19602559592	902
1622.8125490794	903.400024414063
1623.42899180607	903.200012207031
1624.04535378337	901
1624.66163501874	899.799987792969
1625.27783551963	900
1625.89395529346	898.799987792969
1626.50999434768	896.200012207031
1627.12595268974	896.400024414063
1627.74183032707	897
1628.3576272671	896.200012207031
1628.97334351729	897.799987792969
1629.58897908506	894.799987792969
1630.20453397786	893.599975585938
1630.82000820313	892.400024414063
1631.43540176829	891.599975585938
1632.05071468079	893.200012207031
1632.66594694807	891.599975585938
1633.28109857756	890
1633.8961695767	891.200012207031
1634.51115995292	889.599975585938
1635.12606971366	891.200012207031
1635.74089886636	888.400024414063
1636.35564741844	889.599975585938
1636.97031537734	888.799987792969
1637.58490275051	886.799987792969
1638.19940954536	886.799987792969
1638.81383576934	888.799987792969
1639.42818142987	888.400024414063
1640.0424465344	886.599975585938
1640.65663109034	885
1641.27073510515	887
1641.88475858623	885.599975585938
1642.49870154104	886.799987792969
1643.11256397699	887.200012207031
1643.72634590152	886.599975585938
1644.34004732206	884.599975585938
1644.95366824604	884.599975585938
1645.56720868089	883.799987792969
1646.18066863404	884.799987792969
1646.79404811291	882.400024414063
1647.40734712494	881.599975585938
1648.02056567755	881.599975585938
1648.63370377817	881.400024414063
1649.24676143423	883
1649.85973865316	882
1650.47263544238	884.400024414063
1651.08545180932	883.599975585938
1651.6981877614	883.599975585938
1652.31084330606	880.799987792969
1652.92341845071	882.599975585938
1653.53591320278	881.599975585938
1654.1483275697	880
1654.7606615589	880.799987792969
1655.37291517778	884
1655.98508843379	881.200012207031
1656.59718133434	883.799987792969
1657.20919388685	881.799987792969
1657.82112609875	884.400024414063
1658.43297797747	883.599975585938
1659.04474953041	881.400024414063
1659.65644076501	883
1660.26805168869	880.599975585938
1660.87958230886	881
1661.49103263294	884
1662.10240266837	881.400024414063
1662.71369242255	879.599975585938
1663.32490190291	880
1663.93603111687	881
1664.54708007184	881.200012207031
1665.15804877524	880.400024414063
1665.7689372345	879
1666.37974545703	877.400024414063
1666.99047345024	879.599975585938
1667.60112122156	878.799987792969
1668.2116887784	879.400024414063
1668.82217612818	878.799987792969
1669.43258327831	878.599975585938
1670.04291023622	878
1670.65315700931	879.200012207031
1671.263323605	876.400024414063
1671.8734100307	876.799987792969
1672.48341629384	877.200012207031
1673.09334240182	878.599975585938
1673.70318836206	880
1674.31295418197	877.599975585938
1674.92263986896	876.599975585938
1675.53224543046	877.400024414063
1676.14177087386	878.799987792969
1676.75121620658	876.799987792969
1677.36058143604	877.799987792969
1677.96986656964	877
1678.5790716148	878.799987792969
1679.18819657892	879.400024414063
1679.79724146943	881
1680.40620629372	877.400024414063
1681.0150910592	877.799987792969
1681.6238957733	878.599975585938
1682.23262044341	877.799987792969
1682.84126507694	878.599975585938
1683.4498296813	880.200012207031
1684.0583142639	877.799987792969
1684.66671883216	877
1685.27504339346	878.200012207031
1685.88328795523	877
1686.49145252487	876.799987792969
1687.09953710978	875.599975585938
1687.70754171737	880
1688.31546635505	878.799987792969
1688.92331103021	879.400024414063
1689.53107575028	877
1690.13876052265	879.599975585938
1690.74636535472	875.799987792969
1691.3538902539	877.799987792969
1691.96133522759	877.599975585938
1692.5687002832	876.599975585938
1693.17598542812	877.799987792969
1693.78319066977	878.799987792969
1694.39031601554	876.200012207031
1694.99736147283	875.799987792969
1695.60432704905	878.799987792969
1696.2112127516	878.200012207031
1696.81801858788	880
1697.42474456528	879
1698.03139069121	880.400024414063
1698.63795697307	878.599975585938
1699.24444341826	877.799987792969
1699.85085003417	879.799987792969
1700.45717682821	877.400024414063
1701.06342380778	877
1701.66959098026	879.400024414063
1702.27567835307	877
1702.88168593359	876.799987792969
1703.48761372922	877
1704.09346174737	878
1704.69922999542	879.599975585938
1705.30491848077	876.799987792969
1705.91052721083	877.200012207031
1706.51605619297	877.400024414063
1707.12150543461	876.400024414063
1707.72687494312	876.400024414063
1708.33216472592	877.200012207031
1708.93737479039	876.799987792969
1709.54250514392	875
