634.977642221345	867.200012207031
635.719821695905	868.799987792969
636.461909203392	866.400024414063
637.203904751776	868.599975585938
637.945808349023	868
638.687620003102	868.400024414063
639.42933972198	867.200012207031
640.170967513616	868.799987792969
640.912503385981	867.400024414063
641.653947347041	867.599975585938
642.395299404758	867.400024414063
643.13655956709	869.200012207031
643.877727842014	867
644.61880423748	868
645.359788761455	867.599975585938
646.100681421905	868
646.841482226789	868
647.582191184074	869
648.322808301711	869.599975585938
649.06333358767	867.400024414063
649.803767049909	868
650.544108696385	868
651.28435853506	869.599975585938
652.024516573894	871
652.764582820849	868.400024414063
653.504557283875	868
654.244439970937	869.799987792969
654.984230889991	869
655.723930048995	868.400024414063
656.463537455909	867.799987792969
657.203053118683	868
657.942477045275	868.400024414063
658.681809243647	869.799987792969
659.421049721747	868.799987792969
660.160198487535	868.599975585938
660.899255548962	869.799987792969
661.638220913985	867.599975585938
662.377094590559	870.400024414063
663.115876586631	870.400024414063
663.854566910165	869
664.593165569107	869.200012207031
665.331672571406	870.599975585938
666.07008792502	870.799987792969
666.808411637902	868.799987792969
667.546643717996	868.400024414063
668.284784173258	870.400024414063
669.022833011641	870.799987792969
669.760790241089	867.799987792969
670.498655869554	870.400024414063
671.236429904987	869.799987792969
671.97411235534	869.400024414063
672.711703228551	871.400024414063
673.449202532577	870.200012207031
674.186610275364	870.799987792969
674.923926464857	868.200012207031
675.661151109008	869
676.398284215759	869.200012207031
677.135325793058	869.200012207031
677.87227584885	870
678.609134391082	870
679.345901427696	869.200012207031
680.082576966644	871.400024414063
680.819161015861	870.400024414063
681.555653583298	868.200012207031
682.292054676895	869.200012207031
683.028364304594	869.799987792969
683.764582474344	868.400024414063
684.500709194083	869.200012207031
685.236744471752	868.599975585938
685.972688315294	869.599975585938
686.708540732652	869
687.444301731762	868.599975585938
688.179971320572	869.400024414063
688.915549507013	869.799987792969
689.651036299034	868.200012207031
690.386431704569	868.400024414063
691.121735731559	867.200012207031
691.85694838794	869.200012207031
692.592069681652	868
693.327099620632	870.400024414063
694.062038212821	870.799987792969
694.796885466149	870.599975585938
695.531641388561	868.799987792969
696.266305987987	870
697.000879272367	870
697.735361249632	868.799987792969
698.469751927722	869
699.204051314568	871
699.938259418107	869.799987792969
700.672376246272	868
701.406401806997	870
702.140336108212	869.599975585938
702.874179157855	868.799987792969
703.607930963856	869
704.341591534147	868.200012207031
705.07516087666	869.400024414063
705.808638999324	869.400024414063
706.542025910073	869.400024414063
707.275321616841	869.200012207031
708.008526127549	869
708.741639450132	867.799987792969
709.474661592521	868
710.207592562641	868.799987792969
710.940432368424	869.200012207031
711.673181017796	869
712.405838518687	868
713.138404879025	870
713.870880106731	867.200012207031
714.603264209738	868.200012207031
715.335557195971	868.200012207031
716.067759073357	866.200012207031
716.799869849816	869
717.531889533281	868.400024414063
718.263818131673	867.799987792969
718.995655652917	870.200012207031
719.727402104934	868.400024414063
720.45905749565	868.799987792969
721.19062183299	867.799987792969
721.922095124877	867.799987792969
722.653477379231	870.599975585938
723.384768603973	868.799987792969
724.11596880703	868.599975585938
724.847077996319	868.799987792969
725.578096179762	870.400024414063
726.309023365281	869.400024414063
727.039859560792	868.799987792969
727.770604774222	869.400024414063
728.501259013484	868.799987792969
729.231822286501	868.799987792969
729.962294601191	869.200012207031
730.692675965469	868.799987792969
731.42296638726	868.799987792969
732.153165874472	868.599975585938
732.883274435032	869.200012207031
733.613292076851	870.200012207031
734.343218807843	870
735.07305463593	870.400024414063
735.802799569028	870
736.532453615048	868.599975585938
737.262016781904	870.200012207031
737.991489077517	869.799987792969
738.720870509794	870
739.450161086654	871.200012207031
740.179360816009	869.799987792969
740.908469705772	868
741.637487763854	868.799987792969
742.366414998168	871.200012207031
743.095251416623	871
743.823997027137	868.799987792969
744.552651837618	869.400024414063
745.281215855978	867
746.009689090124	868
746.738071547964	868.799987792969
747.466363237419	868.200012207031
748.194564166384	867.200012207031
748.92267434278	868.400024414063
749.650693774504	869
750.378622469476	870
751.106460435596	867.400024414063
751.834207680771	868.200012207031
752.561864212909	867.599975585938
753.289430039919	868.400024414063
754.016905169707	869.200012207031
754.744289610175	869.599975585938
755.471583369231	870.400024414063
756.198786454782	869.200012207031
756.925898874728	869.200012207031
757.652920636979	869.599975585938
758.379851749433	869.200012207031
759.106692219996	867.400024414063
759.833442056572	868.200012207031
760.560101267063	868.799987792969
761.28666985937	869.200012207031
762.0131478414	870.599975585938
762.739535221046	869.599975585938
763.465832006219	870
764.192038204812	870.400024414063
764.918153824731	868.599975585938
765.644178873872	868.400024414063
766.370113360138	870.200012207031
767.095957291425	870.599975585938
767.821710675635	869.799987792969
768.547373520665	870.200012207031
769.272945834415	869.599975585938
769.998427624781	870
770.723818899658	871
771.449119666949	870.599975585938
772.174329934546	870.200012207031
772.899449710347	870.599975585938
773.624479002248	870.799987792969
774.349417818145	869.200012207031
775.074266165934	870.200012207031
775.799024053505	871
776.523691488757	870.599975585938
777.248268479582	871.799987792969
777.972755033877	870.200012207031
778.69715115953	869.400024414063
779.421456864441	868.799987792969
780.145672156493	869
780.869797043587	869.799987792969
781.593831533611	870.200012207031
782.317775634457	870.799987792969
783.041629354012	868.200012207031
783.765392700174	870.400024414063
784.489065680828	871.599975585938
785.212648303866	870.200012207031
785.936140577177	869.200012207031
786.659542508652	869.400024414063
787.382854106174	871.799987792969
788.106075377639	869.400024414063
788.829206330928	869.400024414063
789.552246973933	872
790.275197314542	870
790.998057360638	868
791.720827120108	869
792.443506600841	868.799987792969
793.166095810722	872
793.888594757635	868.599975585938
794.611003449465	869
795.333321894098	867.799987792969
796.055550099417	869.400024414063
796.777688073308	869.799987792969
797.499735823654	870.400024414063
798.221693358334	870
798.943560685235	869
799.665337812239	871
800.387024747226	869.799987792969
801.108621498075	870.799987792969
801.830128072674	869
802.551544478902	871.200012207031
803.272870724636	870.400024414063
803.994106817761	869.599975585938
804.715252766148	870.400024414063
805.436308577687	871.200012207031
806.157274260251	871.200012207031
806.878149821721	870.599975585938
807.598935269973	872
808.319630612886	871.400024414063
809.040235858336	869.400024414063
809.760751014202	871.799987792969
810.481176088361	871.200012207031
811.201511088685	872.599975585938
811.921756023059	870.200012207031
812.641910899347	870.799987792969
813.361975725432	870.200012207031
814.081950509188	868.799987792969
814.801835258489	870.200012207031
815.521629981206	867
816.241334685218	870
816.960949378392	870
817.680474068606	870
818.399908763731	869.400024414063
819.11925347164	870.799987792969
819.838508200202	867.799987792969
820.55767295729	869.599975585938
821.276747750778	870.599975585938
821.995732588531	869.599975585938
822.714627478425	869.200012207031
823.433432428327	870.799987792969
824.152147446105	870
824.870772539632	869.799987792969
825.589307716775	871.599975585938
826.307752985404	868.799987792969
827.026108353378	871.400024414063
827.744373828579	872.599975585938
828.462549418867	871.799987792969
829.180635132107	873.400024414063
829.898630976168	871.799987792969
830.616536958915	870
831.334353088218	868.799987792969
832.052079371938	870.200012207031
832.769715817942	869.400024414063
833.487262434092	871.400024414063
834.204719228255	868.599975585938
834.922086208293	869.599975585938
835.639363382073	869.599975585938
836.356550757456	869.200012207031
837.073648342304	869.599975585938
837.790656144484	870.400024414063
838.507574171847	870.400024414063
839.22440243227	868.799987792969
839.941140933601	870.599975585938
840.657789683706	869.400024414063
841.374348690448	869.799987792969
842.090817961686	870.799987792969
842.807197505276	869
843.523487329083	869.599975585938
844.23968744096	871.400024414063
844.955797848771	870.599975585938
845.671818560374	869.400024414063
846.387749583622	868.799987792969
847.103590926378	867.799987792969
847.819342596497	869.400024414063
848.535004601833	868.599975585938
849.25057695025	870
849.966059649598	870.599975585938
850.681452707735	871
851.396756132513	870.400024414063
852.111969931789	872.599975585938
852.827094113419	868.599975585938
853.542128685257	871.400024414063
854.257073655158	870.200012207031
854.971929030969	871.400024414063
855.686694820551	872.200012207031
856.40137103175	871.400024414063
857.115957672423	870.799987792969
857.830454750423	871.400024414063
858.544862273597	871.799987792969
859.259180249797	870.400024414063
859.97340868688	871.400024414063
860.687547592688	871.400024414063
861.401596975075	870.599975585938
862.115556841891	871.599975585938
862.829427200985	871.200012207031
863.543208060205	871.799987792969
864.256899427402	869
864.970501310423	869
865.684013717114	870.799987792969
866.397436655325	871
867.110770132901	871.200012207031
867.824014157691	872.400024414063
868.537168737542	870.799987792969
869.250233880299	870.799987792969
869.963209593803	871.599975585938
870.676095885902	869
871.388892764445	870.799987792969
872.101600237276	871.400024414063
872.814218312233	871
873.526746997165	872.599975585938
874.239186299914	871.400024414063
874.951536228323	870.400024414063
875.663796790231	870.200012207031
876.375967993487	871.599975585938
877.088049845928	870.599975585938
877.8000423554	873.599975585938
878.511945529739	871
879.22375937679	871.400024414063
879.935483904388	871.799987792969
880.64711912038	872.400024414063
881.358665032604	871.799987792969
882.070121648892	870.200012207031
882.78148897709	873
883.492767025039	871
884.203955800571	872.400024414063
884.915055311525	871.599975585938
885.626065565741	870.200012207031
886.336986571053	873
887.047818335298	873.400024414063
887.758560866315	874.200012207031
888.469214171937	874.200012207031
889.179778260005	873.200012207031
889.890253138347	872.599975585938
890.600638814803	873.400024414063
891.310935297204	872.400024414063
892.021142593385	875.599975585938
892.731260711183	872.799987792969
893.441289658429	872.400024414063
894.15122944295	872.400024414063
894.861080072591	873.200012207031
895.570841555173	873.200012207031
896.280513898534	872.799987792969
896.990097110503	875.599975585938
897.699591198913	874.799987792969
898.408996171595	871.799987792969
899.118312036375	872.799987792969
899.827538801089	871.599975585938
900.536676473561	873.799987792969
901.245725061628	873.599975585938
901.954684573109	873.200012207031
902.663555015838	873
903.372336397644	871.599975585938
904.081028726351	872.799987792969
904.789632009793	874.400024414063
905.49814625579	873
906.20657147217	872.799987792969
906.914907666765	873.200012207031
907.623154847391	870.599975585938
908.331313021885	872
909.039382198064	873
909.747362383754	871.200012207031
910.455253586782	871.799987792969
911.163055814972	871.599975585938
911.870769076143	873.200012207031
912.578393378126	874
913.285928728738	872
913.993375135802	871.799987792969
914.700732607145	873.799987792969
915.408001150579	874
916.115180773937	873.400024414063
916.822271485037	871.400024414063
917.529273291693	871
918.236186201733	871.400024414063
918.943010222971	870
919.649745363234	872.599975585938
920.356391630333	870.400024414063
921.062949032096	871.400024414063
921.769417576333	871.599975585938
922.475797270864	871.400024414063
923.182088123512	871.400024414063
923.888290142089	870.799987792969
924.594403334414	872
925.300427708304	872
926.006363271572	869.200012207031
926.712210032039	870.200012207031
927.417967997522	870
928.123637175827	870.799987792969
928.829217574776	871.200012207031
929.534709202184	868.799987792969
930.240112065859	871
930.945426173621	871
931.650651533283	870.599975585938
932.355788152653	872.400024414063
933.060836039547	870.799987792969
933.765795201776	870.599975585938
934.470665647153	868.400024414063
935.175447383492	870.599975585938
935.880140418599	871.400024414063
936.584744760286	871.799987792969
937.289260416366	868.799987792969
937.993687394647	872.200012207031
938.698025702939	872.799987792969
939.402275349051	868.599975585938
940.106436340793	870.400024414063
940.810508685976	870.200012207031
941.5144923924	870.200012207031
942.21838746788	870.400024414063
942.922193920223	872.799987792969
943.625911757231	871.799987792969
944.329540986716	870.200012207031
945.033081616484	871.599975585938
945.736533654334	869.400024414063
946.439897108083	872.599975585938
947.143171985529	871
947.846358294477	871
948.549456042732	869.599975585938
949.2524652381	870.599975585938
949.955385888382	872.799987792969
950.658218001384	872.599975585938
951.360961584907	872.799987792969
952.063616646755	870.799987792969
952.766183194733	871.400024414063
953.468661236636	871.200012207031
954.171050780271	870.599975585938
954.873351833437	871.400024414063
955.575564403935	871.200012207031
956.277688499565	871.799987792969
956.97972412813	870.599975585938
957.681671297424	869.400024414063
958.383530015255	870.400024414063
959.085300289414	871
959.786982127703	872.200012207031
960.488575537918	872
961.190080527859	870.200012207031
961.891497105327	871.799987792969
962.592825278111	869.599975585938
963.294065054012	870
963.995216440829	871.400024414063
964.696279446353	870.799987792969
965.397254078383	870.599975585938
966.098140344714	870.400024414063
966.798938253139	868.599975585938
967.499647811456	870.200012207031
968.200269027458	869.400024414063
968.900801908937	871.400024414063
969.601246463685	869.599975585938
970.3016026995	869.799987792969
971.001870624169	870.200012207031
971.702050245491	870.400024414063
972.402141571249	870.599975585938
973.102144609245	871.200012207031
973.802059367267	871
974.501885853103	871.200012207031
975.201624074541	871.200012207031
975.901274039379	870.799987792969
976.600835755399	871.400024414063
977.3003092304	870.799987792969
977.999694472158	870.799987792969
978.698991488473	870.599975585938
979.39820028713	871.200012207031
980.097320875915	871.400024414063
980.796353262618	872
981.495297455024	871.599975585938
982.194153460919	870
982.892921288093	871.200012207031
983.591600944331	870
984.290192437419	870.799987792969
984.98869577514	871
985.687110965282	870.599975585938
986.385438015629	871.200012207031
987.083676933961	868.799987792969
987.781827728069	867.799987792969
988.479890405732	870.599975585938
989.177864974732	872.400024414063
989.875751442857	869.599975585938
990.573549817888	869
991.271260107602	870.400024414063
991.968882319786	871
992.666416462217	870.799987792969
993.363862542681	870.599975585938
994.061220568959	870
994.758490548823	869.799987792969
995.455672490061	870.200012207031
996.152766400451	870.599975585938
996.849772287773	870.200012207031
997.5466901598	870.400024414063
998.243520024317	870
998.940261889097	870.599975585938
999.636915761923	870.799987792969
1000.33348165057	873.400024414063
1001.02995956281	870
1001.72634950643	872.200012207031
1002.42265148919	868.400024414063
1003.11886551889	870.599975585938
1003.81499160328	872.400024414063
1004.51102975015	872.799987792969
1005.20697996727	872.200012207031
1005.90284226242	872
1006.59861664337	871.799987792969
1007.2943031179	872.400024414063
1007.98990169377	871.799987792969
1008.68541237876	870.599975585938
1009.38083518064	871
1010.07617010719	870.200012207031
1010.77141716617	872.200012207031
1011.46657636536	869.799987792969
1012.16164771253	870.799987792969
1012.85663121546	871.599975585938
1013.5515268819	871.599975585938
1014.24633471963	870.400024414063
1014.94105473642	869.799987792969
1015.63568694004	870.200012207031
1016.33023133826	872.400024414063
1017.02468793885	872.400024414063
1017.71905674957	870.799987792969
1018.41333777819	871.599975585938
1019.10753103249	870.799987792969
1019.80163652022	871.400024414063
1020.49565424916	871.799987792969
1021.18958422707	871.200012207031
1021.88342646171	872.400024414063
1022.57718096085	872.599975585938
1023.27084773227	873
1023.96442678371	874
1024.65791812296	875
1025.35132175776	871.799987792969
1026.04463769589	871.799987792969
1026.73786594511	875
1027.43100651318	875.400024414063
1028.12405940786	876.200012207031
1028.81702463692	874.599975585938
1029.50990220812	875.400024414063
1030.20269212921	876.599975585938
1030.89539440798	874.400024414063
1031.58800905216	874.400024414063
1032.28053606952	876.400024414063
1032.97297546784	874.599975585938
1033.66532725485	873.400024414063
1034.35759143832	875.599975585938
1035.04976802602	874.400024414063
1035.7418570257	871.599975585938
1036.43385844511	875
1037.12577229202	874.400024414063
1037.81759857419	874.400024414063
1038.50933729937	873.200012207031
1039.20098847531	873.799987792969
1039.89255210978	874
1040.58402821053	876.400024414063
1041.27541678532	871.400024414063
1041.96671784191	873.599975585938
1042.65793138804	874.599975585938
1043.34905743147	874.599975585938
1044.04009597996	871.799987792969
1044.73104704125	873.599975585938
1045.42191062312	874.799987792969
1046.1126867333	874.200012207031
1046.80337537955	875
1047.49397656962	873.799987792969
1048.18449031127	872.400024414063
1048.87491661225	871.599975585938
1049.5652554803	872
1050.25550692319	873.200012207031
1050.94567094865	872.799987792969
1051.63574756444	870.799987792969
1052.32573677832	873.799987792969
1053.01563859803	872.200012207031
1053.70545303131	871.799987792969
1054.39518008592	872.599975585938
1055.08481976961	873
1055.77437209013	872.200012207031
1056.46383705522	872
1057.15321467262	870.400024414063
1057.8425049501	872.799987792969
1058.53170789539	872.799987792969
1059.22082351624	871.599975585938
1059.9098518204	872.200012207031
1060.59879281561	870.400024414063
1061.28764650962	870.599975585938
1061.97641291016	870.599975585938
1062.665092025	873
1063.35368386187	870.400024414063
1064.04218842851	872.799987792969
1064.73060573268	873.200012207031
1065.4189357821	873.599975585938
1066.10717858452	872.200012207031
1066.7953341477	871
1067.48340247936	871.599975585938
1068.17138358725	871.599975585938
1068.85927747912	871.799987792969
1069.5470841627	872.599975585938
1070.23480364573	873.799987792969
1070.92243593595	874
1071.60998104111	874
1072.29743896894	873.599975585938
1072.98480972718	873.400024414063
1073.67209332357	874.599975585938
1074.35928976585	873.200012207031
1075.04639906176	873.200012207031
1075.73342121903	872.599975585938
1076.42035624541	871.599975585938
1077.10720414862	873
1077.79396493641	873.799987792969
1078.48063861651	872.799987792969
1079.16722519666	874.599975585938
1079.85372468459	872.400024414063
1080.54013708804	871.799987792969
1081.22646241474	870.200012207031
1081.91270067243	872.599975585938
1082.59885186884	873.400024414063
1083.28491601171	873.400024414063
1083.97089310877	873
1084.65678316774	873.599975585938
1085.34258619637	871
1086.02830220239	869.200012207031
1086.71393119352	872.599975585938
1087.39947317751	871.200012207031
1088.08492816207	871.200012207031
1088.77029615495	871
1089.45557716387	870.799987792969
1090.14077119656	871.599975585938
1090.82587826075	871.799987792969
1091.51089836417	872.200012207031
1092.19583151456	872.599975585938
1092.88067771963	872
1093.56543698712	872
1094.25010932475	870.799987792969
1094.93469474026	872.200012207031
1095.61919324137	870.599975585938
1096.3036048358	871.599975585938
1096.98792953129	871.799987792969
1097.67216733555	872
1098.35631825632	871.200012207031
1099.04038230132	869
1099.72435947828	871.200012207031
1100.40824979492	871.599975585938
1101.09205325895	872.200012207031
1101.77576987812	871
1102.45939966014	871.400024414063
1103.14294261273	870.799987792969
1103.82639874362	871
1104.50976806054	873
1105.19305057119	869.200012207031
1105.87624628331	872
1106.55935520461	872
1107.24237734283	873
1107.92531270566	872
1108.60816130085	872.200012207031
1109.2909231361	872.400024414063
1109.97359821914	874.200012207031
1110.65618655768	874.799987792969
1111.33868815946	873.400024414063
1112.02110303217	873
1112.70343118355	873.799987792969
1113.3856726213	873.200012207031
1114.06782735316	872.200012207031
1114.74989538683	873.200012207031
1115.43187673002	873
1116.11377139047	873.400024414063
1116.79557937588	876.200012207031
1117.47730069397	873.599975585938
1118.15893535245	874.599975585938
1118.84048335904	874.599975585938
1119.52194472146	875.200012207031
1120.20331944741	875.799987792969
1120.88460754462	875.799987792969
1121.56580902079	874
1122.24692388364	875.200012207031
1122.92795214088	875.599975585938
1123.60889380022	874.200012207031
1124.28974886938	874.200012207031
1124.97051735606	876.599975585938
1125.65119926799	876.200012207031
1126.33179461286	877.599975585938
1127.0123033984	877.599975585938
1127.6927256323	874
1128.37306132229	876.400024414063
1129.05331047606	876.200012207031
1129.73347310134	874.400024414063
1130.41354920582	875.599975585938
1131.09353879722	877.400024414063
1131.77344188324	875.799987792969
1132.45325847159	874
1133.13298856999	876.400024414063
1133.81263218612	874.799987792969
1134.49218932772	876.799987792969
1135.17166000247	877.400024414063
1135.85104421809	875.799987792969
1136.53034198227	876.200012207031
1137.20955330274	876.599975585938
1137.88867818718	877.200012207031
1138.56771664331	875.599975585938
1139.24666867883	874.400024414063
1139.92553430144	876.599975585938
1140.60431351885	875.799987792969
1141.28300633876	876.400024414063
1141.96161276887	874.599975585938
1142.64013281689	873.799987792969
1143.31856649051	874.799987792969
1143.99691379744	874.400024414063
1144.67517474538	874.200012207031
1145.35334934203	877.400024414063
1146.03143759509	877.200012207031
1146.70943951226	875.400024414063
1147.38735510125	876
1148.06518436974	874.400024414063
1148.74292732545	877.200012207031
1149.42058397606	876.400024414063
1150.09815432928	876.799987792969
1150.7756383928	877.200012207031
1151.45303617432	877.200012207031
1152.13034768155	876.599975585938
1152.80757292217	880
1153.48471190389	877.599975585938
1154.16176463439	876
1154.83873112138	877.200012207031
1155.51561137255	875.599975585938
1156.1924053956	879
1156.86911319822	876.400024414063
1157.5457347881	875.400024414063
1158.22227017294	876
1158.89871936044	876.200012207031
1159.57508235828	876
1160.25135917416	876.799987792969
1160.92754981578	874.200012207031
1161.60365429081	874
1162.27967260697	876.799987792969
1162.95560477193	874.799987792969
1163.63145079339	873.200012207031
1164.30721067904	875.799987792969
1164.98288443657	877.400024414063
1165.65847207367	876.799987792969
1166.33397359803	876.400024414063
1167.00938901735	874.799987792969
1167.6847183393	876.799987792969
1168.35996157157	874.599975585938
1169.03511872187	875.400024414063
1169.71018979787	875.400024414063
1170.38517480726	874.799987792969
1171.06007375773	875.200012207031
1171.73488665696	873.799987792969
1172.40961351265	871.799987792969
1173.08425433247	874.599975585938
1173.75880912412	873.200012207031
1174.43327789528	875
1175.10766065364	873.799987792969
1175.78195740687	874.599975585938
1176.45616816267	872.599975585938
1177.13029292871	874.200012207031
1177.80433171269	874.799987792969
1178.47828452229	873.799987792969
1179.15215136518	876
1179.82593224905	874.799987792969
1180.49962718159	875.599975585938
1181.17323617047	875.200012207031
1181.84675922337	875.400024414063
1182.52019634799	874.599975585938
1183.193547552	875.599975585938
1183.86681284307	874.599975585938
1184.53999222889	873.400024414063
1185.21308571714	873
1185.8860933155	873.799987792969
1186.55901503165	873.200012207031
1187.23185087326	872.200012207031
1187.90460084802	874.799987792969
1188.5772649636	875.200012207031
1189.24984322768	873.599975585938
1189.92233564794	873.200012207031
1190.59474223206	876.599975585938
1191.2670629877	874.200012207031
1191.93929792255	875.400024414063
1192.61144704428	876
1193.28351036058	875
1193.9554878791	874.599975585938
1194.62737960754	873.599975585938
1195.29918555356	873.400024414063
1195.97090572483	875.200012207031
1196.64254012903	875.400024414063
1197.31408877384	875.799987792969
1197.98555166693	875.599975585938
1198.65692881596	873.200012207031
1199.32822022862	878.200012207031
1199.99942591256	874
1200.67054587548	875.799987792969
1201.34158012503	875.799987792969
1202.01252866889	875
1202.68339151473	874.200012207031
1203.35416867021	873.200012207031
1204.02486014301	876.200012207031
1204.6954659408	877.599975585938
1205.36598607124	876.200012207031
1206.03642054201	875.400024414063
1206.70676936078	874
1207.3770325352	874.799987792969
1208.04721007295	878.599975585938
1208.7173019817	875.599975585938
1209.38730826911	875.799987792969
1210.05722894285	874.200012207031
1210.72706401059	874.400024414063
1211.39681347999	876.599975585938
1212.06647735872	876.799987792969
1212.73605565444	876
1213.40554837481	877.400024414063
1214.07495552751	878
1214.74427712019	877.400024414063
1215.41351316052	876.599975585938
1216.08266365617	880
1216.75172861479	879.200012207031
1217.42070804405	877.599975585938
1218.0896019516	877.400024414063
1218.75841034513	876.799987792969
1219.42713323227	878.200012207031
1220.0957706207	878.799987792969
1220.76432251808	880.599975585938
1221.43278893207	879.599975585938
1222.10116987032	878
1222.7694653405	879.599975585938
1223.43767535026	877.799987792969
1224.10579990727	878.200012207031
1224.77383901918	876.400024414063
1225.44179269366	878.799987792969
1226.10966093835	880.200012207031
1226.77744376093	877.799987792969
1227.44514116904	876.799987792969
1228.11275317034	875.599975585938
1228.78027977249	877
1229.44772098315	878.200012207031
1230.11507680996	877.599975585938
1230.7823472606	877
1231.44953234271	877.200012207031
1232.11663206394	880.200012207031
1232.78364643195	878
1233.4505754544	876.799987792969
1234.11741913894	876.200012207031
1234.78417749322	877.799987792969
1235.45085052489	878.799987792969
1236.11743824162	877.799987792969
1236.78394065104	879.599975585938
1237.45035776082	879.400024414063
1238.1166895786	877.200012207031
1238.78293611204	875.799987792969
1239.44909736878	878.400024414063
1240.11517335648	876.599975585938
1240.78116408279	877.799987792969
1241.44706955535	876.200012207031
1242.11288978182	878.799987792969
1242.77862476985	876.400024414063
1243.44427452708	878.799987792969
1244.10983906116	876.799987792969
1244.77531837974	877.200012207031
1245.44071249047	876.799987792969
1246.106021401	877.400024414063
1246.77124511898	876.799987792969
1247.43638365204	879.599975585938
1248.10143700783	876
1248.76640519401	876.200012207031
1249.43128821822	878.799987792969
1250.0960860881	876.200012207031
1250.76079881129	877.599975585938
1251.42542639545	877.200012207031
1252.08996884822	877.400024414063
1252.75442617723	877
1253.41879839014	878
1254.08308549458	878
1254.74728749821	876.599975585938
1255.41140440866	877.599975585938
1256.07543623357	878
1256.73938298059	875.599975585938
1257.40324465735	876.200012207031
1258.0670212715	874.599975585938
1258.73071283068	875.200012207031
1259.39431934253	876.200012207031
1260.05784081468	873.799987792969
1260.72127725479	876.799987792969
1261.38462867049	874.599975585938
1262.0478950694	877
1262.71107645919	875.599975585938
1263.37417284748	877
1264.03718424191	876.400024414063
1264.70011065011	876.799987792969
1265.36295207974	877.599975585938
1266.02570853841	877
1266.68838003378	875.799987792969
1267.35096657346	876.799987792969
1268.01346816511	874.799987792969
1268.67588481636	875.799987792969
1269.33821653483	877.400024414063
1270.00046332817	876.799987792969
1270.66262520401	879.200012207031
1271.32470216998	876.200012207031
1271.98669423372	879.200012207031
1272.64860140285	879.400024414063
1273.31042368503	877.400024414063
1273.97216108786	877
1274.633813619	876.599975585938
1275.29538128606	876.400024414063
1275.95686409669	881.599975585938
1276.6182620585	878.799987792969
1277.27957517914	876.799987792969
1277.94080346624	879
1278.60194692741	877.599975585938
1279.2630055703	877.599975585938
1279.92397940253	877.400024414063
1280.58486843173	876
1281.24567266552	876
1281.90639211155	875.799987792969
1282.56702677743	875.599975585938
1283.2275766708	876.400024414063
1283.88804179927	876.200012207031
1284.54842217049	878
1285.20871779206	878.400024414063
1285.86892867163	880
1286.52905481681	878.599975585938
1287.18909623523	878.799987792969
1287.84905293452	877
1288.5089249223	878.799987792969
1289.16871220619	877.400024414063
1289.82841479383	876.599975585938
1290.48803269282	876.799987792969
1291.1475659108	876.599975585938
1291.80701445539	876.200012207031
1292.46637833421	880.400024414063
1293.12565755489	877.200012207031
1293.78485212504	880
1294.44396205229	878
1295.10298734425	879.799987792969
1295.76192800856	879
1296.42078405283	879.799987792969
1297.07955548467	879
1297.73824231171	881
1298.39684454158	879.799987792969
1299.05536218188	878.200012207031
1299.71379524023	880.799987792969
1300.37214372427	878.599975585938
1301.03040764159	879
1301.68858699983	880.200012207031
1302.34668180659	878.200012207031
1303.0046920695	881.200012207031
1303.66261779617	882.200012207031
1304.32045899422	880.200012207031
1304.97821567126	883.599975585938
1305.63588783492	880
1306.29347549279	882.200012207031
1306.95097865251	880.400024414063
1307.60839732168	882.400024414063
1308.26573150791	880.599975585938
1308.92298121883	877.599975585938
1309.58014646204	877
1310.23722724517	879.200012207031
1310.89422357581	879.200012207031
1311.55113546158	879.400024414063
1312.2079629101	881.400024414063
1312.86470592898	880.799987792969
1313.52136452582	883
1314.17793870824	879.599975585938
1314.83442848386	880.200012207031
1315.49083386027	885.400024414063
1316.14715484509	881.200012207031
1316.80339144594	882.799987792969
1317.45954367041	882.200012207031
1318.11561152611	883.799987792969
1318.77159502067	882.799987792969
1319.42749416168	881.799987792969
1320.08330895674	879
1320.73903941348	882.200012207031
1321.3946855395	879.799987792969
1322.0502473424	882.400024414063
1322.70572482978	881.599975585938
1323.36111800926	883.400024414063
1324.01642688845	884.200012207031
1324.67165147494	881.400024414063
1325.32679177634	883.200012207031
1325.98184780025	883.799987792969
1326.63681955429	884.799987792969
1327.29170704605	886
1327.94651028314	883.200012207031
1328.60122927316	882.799987792969
1329.25586402371	883.599975585938
1329.9104145424	882.400024414063
1330.56488083683	883.799987792969
1331.2192629146	883.599975585938
1331.87356078331	881
1332.52777445056	882.200012207031
1333.18190392395	883.400024414063
1333.83594921109	883
1334.48991031958	881.200012207031
1335.143787257	881.799987792969
1335.79758003097	884
1336.45128864908	880.599975585938
1337.10491311893	882.200012207031
1337.75845344813	882.200012207031
1338.41190964425	880
1339.06528171491	882.400024414063
1339.71856966771	883
1340.37177351023	884.200012207031
1341.02489325007	881.400024414063
1341.67792889484	881
1342.33088045212	881
1342.98374792952	885
1343.63653133462	883.599975585938
1344.28923067503	883.200012207031
1344.94184595833	882.599975585938
1345.59437719212	880.400024414063
1346.246824384	880
1346.89918754155	882.200012207031
1347.55146667238	882.200012207031
1348.20366178407	881.200012207031
1348.85577288421	881
1349.50779998041	882.200012207031
1350.15974308024	883.799987792969
1350.8116021913	879.599975585938
1351.46337732119	881.200012207031
1352.11506847748	883.200012207031
1352.76667566778	882.799987792969
1353.41819889967	882.200012207031
1354.06963818074	881.599975585938
1354.72099351858	881
1355.37226492079	879.400024414063
1356.02345239494	882.799987792969
1356.67455594862	884.799987792969
1357.32557558943	884.200012207031
1357.97651132496	884.200012207031
1358.62736316277	883.400024414063
1359.27813111048	882.400024414063
1359.92881517565	883
1360.57941536589	881.799987792969
1361.22993168876	883.599975585938
1361.88036415186	884.200012207031
1362.53071276278	885.400024414063
1363.1809775291	883.799987792969
1363.8311584584	885.400024414063
1364.48125555826	883.799987792969
1365.13126883627	885.799987792969
1365.78119830001	885
1366.43104395707	882.200012207031
1367.08080581503	885.400024414063
1367.73048388147	884.400024414063
1368.38007816397	883.200012207031
1369.02958867011	881.599975585938
1369.67901540748	883.799987792969
1370.32835838365	883.200012207031
1370.9776176062	882.200012207031
1371.62679308273	883.599975585938
1372.27588482079	884.400024414063
1372.92489282798	882.200012207031
1373.57381711188	884.400024414063
1374.22265768006	882.599975585938
1374.87141454009	884
1375.52008769957	883
1376.16867716606	883
1376.81718294715	882.400024414063
1377.4656050504	885.200012207031
1378.1139434834	883.799987792969
1378.76219825373	887.200012207031
1379.41036936895	883.799987792969
1380.05845683664	888.200012207031
1380.70646066439	886
1381.35438085976	887.200012207031
1382.00221743032	886.599975585938
1382.64997038366	885.799987792969
1383.29763972735	886.599975585938
1383.94522546895	884.799987792969
1384.59272761605	886.200012207031
1385.24014617621	885.599975585938
1385.88748115701	888.599975585938
1386.53473256602	889.400024414063
1387.18190041081	888.599975585938
1387.82898469895	889.400024414063
1388.47598543802	889
1389.12290263558	887.400024414063
1389.7697362992	888.799987792969
1390.41648643646	889
1391.06315305492	888.400024414063
1391.70973616215	888.799987792969
1392.35623576573	885.200012207031
1393.00265187321	887.599975585938
1393.64898449217	887
1394.29523363018	889
1394.94139929481	890
1395.58748149361	889
1396.23348023415	886.200012207031
1396.87939552402	887.599975585938
1397.52522737076	887.200012207031
1398.17097578195	886.400024414063
1398.81664076514	886.799987792969
1399.46222232792	887.599975585938
1400.10772047783	887.400024414063
1400.75313522245	886.799987792969
1401.39846656934	890.200012207031
1402.04371452605	888.200012207031
1402.68887910016	887.599975585938
1403.33396029924	888.799987792969
1403.97895813083	888.799987792969
1404.6238726025	888.799987792969
1405.26870372182	887.200012207031
1405.91345149634	887.200012207031
1406.55811593363	885.599975585938
1407.20269704125	889.200012207031
1407.84719482676	886.599975585938
1408.49160929772	887
1409.13594046168	885.599975585938
1409.78018832622	886.599975585938
1410.42435289887	890.599975585938
1411.06843418722	886.599975585938
1411.7124321988	889.200012207031
1412.3563469412	889.599975585938
1413.00017842194	889
1413.64392664861	891
1414.28759162875	888.599975585938
1414.93117336992	890
1415.57467187967	889.400024414063
1416.21808716557	887.400024414063
1416.86141923516	886.799987792969
1417.50466809601	889.599975585938
1418.14783375567	893.599975585938
1418.79091622169	891
1419.43391550162	891.400024414063
1420.07683160303	891.599975585938
1420.71966453346	891.599975585938
1421.36241430046	894.200012207031
1422.0050809116	893.200012207031
1422.64766437442	891.799987792969
1423.29016469647	889.400024414063
1423.93258188531	894.799987792969
1424.57491594848	892.400024414063
1425.21716689354	892.599975585938
1425.85933472805	894.400024414063
1426.50141945954	895
1427.14342109557	893
1427.78533964369	894
1428.42717511144	895.799987792969
1429.06892750639	898.799987792969
1429.71059683607	892.200012207031
1430.35218310803	893.599975585938
1430.99368632983	894.400024414063
1431.635106509	898
1432.2764436531	895
1432.91769776967	896.400024414063
1433.55886886627	897
1434.19995695043	893.400024414063
1434.84096202969	894.799987792969
1435.48188411162	895.599975585938
1436.12272320375	894.799987792969
1436.76347931363	893.599975585938
1437.40415244879	892.799987792969
1438.0447426168	894
1438.68524982518	897.200012207031
1439.32567408148	894.400024414063
1439.96601539325	892.599975585938
1440.60627376803	894.400024414063
1441.24644921336	893.799987792969
1441.88654173678	895.200012207031
1442.52655134583	895.599975585938
1443.16647804806	896
1443.806321851	892.400024414063
1444.4460827622	892.599975585938
1445.0857607892	895
1445.72535593953	893
1446.36486822074	892
1447.00429764037	894.799987792969
1447.64364420595	893.599975585938
1448.28290792502	895
1448.92208880512	892.599975585938
1449.56118685379	897
1450.20020207857	893.799987792969
1450.83913448699	896.599975585938
1451.47798408659	892.200012207031
1452.1167508849	895.400024414063
1452.75543488947	896.599975585938
1453.39403610782	891
1454.0325545475	894.599975585938
1454.67099021603	891.200012207031
1455.30934312097	895
1455.94761326982	892
1456.58580067014	888.200012207031
1457.22390532945	892.200012207031
1457.86192725529	893
1458.49986645519	891.400024414063
1459.13772293668	889.200012207031
1459.7754967073	887
1460.41318777457	887.200012207031
1461.05079614604	890.400024414063
1461.68832182922	887
1462.32576483166	890
1462.96312516087	888.799987792969
1463.6004028244	889.400024414063
1464.23759782977	889.200012207031
1464.8747101845	888.799987792969
1465.51173989614	888.400024414063
1466.14868697221	887.200012207031
1466.78555142024	887
1467.42233324774	889.200012207031
1468.05903246227	888.400024414063
1468.69564907133	886.200012207031
1469.33218308246	886
1469.96863450317	888.200012207031
1470.60500334102	886.400024414063
1471.2412896035	888.799987792969
1471.87749329816	889
1472.51361443251	889
1473.14965301409	889.400024414063
1473.78560905041	886
1474.421482549	886.200012207031
1475.05727351739	885.200012207031
1475.69298196309	885.799987792969
1476.32860789364	887.400024414063
1476.96415131654	885.400024414063
1477.59961223934	886
1478.23499066954	886.400024414063
1478.87028661467	882.200012207031
1479.50550008226	885.599975585938
1480.14063107981	886.200012207031
1480.77567961486	883.599975585938
1481.41064569492	886.799987792969
1482.04552932752	887.799987792969
1482.68033052017	888.799987792969
1483.31504928039	886.200012207031
1483.9496856157	886.400024414063
1484.58423953363	888
1485.21871104168	884
1485.85310014738	884.799987792969
1486.48740685824	886.200012207031
1487.12163118178	887.799987792969
1487.75577312553	886.599975585938
1488.38983269698	887.599975585938
1489.02380990367	888.400024414063
1489.65770475311	885.400024414063
1490.29151725281	886.599975585938
1490.92524741029	886.599975585938
1491.55889523306	885.799987792969
1492.19246072863	887
1492.82594390453	885
1493.45934476826	887.400024414063
1494.09266332734	888
1494.72589958928	888.799987792969
1495.3590535616	887.400024414063
1495.99212525181	885.400024414063
1496.62511466741	888.200012207031
1497.25802181592	887.599975585938
1497.89084670485	884.599975585938
1498.52358934172	887.400024414063
1499.15624973403	886.599975585938
1499.7888278893	886.200012207031
1500.42132381503	887.200012207031
1501.05373751873	889.400024414063
1501.68606900792	888.799987792969
1502.31831829009	888.400024414063
1502.95048537277	884
1503.58257026346	885.400024414063
1504.21457296966	883.799987792969
1504.84649349889	885.799987792969
1505.47833185864	884.200012207031
1506.11008805644	885
1506.74176209978	885.200012207031
1507.37335399617	885.400024414063
1508.00486375312	887.200012207031
1508.63629137813	884
1509.2676368787	887.599975585938
1509.89890026235	884.799987792969
1510.53008153658	887.200012207031
1511.16118070889	888.200012207031
1511.79219778677	886
1512.42313277775	887.400024414063
1513.05398568932	886
1513.68475652898	889.200012207031
1514.31544530424	886
1514.9460520226	886.200012207031
1515.57657669155	887.400024414063
1516.20701931861	888
1516.83737991127	887.599975585938
1517.46765847702	886
1518.09785502339	887.400024414063
1518.72796955785	888.799987792969
1519.35800208792	887.400024414063
1519.98795262109	886.400024414063
1520.61782116486	883.400024414063
1521.24760772673	885.400024414063
1521.87731231419	882.799987792969
1522.50693493475	885.799987792969
1523.1364755959	884.799987792969
1523.76593430514	884.200012207031
1524.39531106997	884
1525.02460589788	882.400024414063
1525.65381879637	879.599975585938
1526.28294977293	881.200012207031
1526.91199883507	881.599975585938
1527.54096599027	884.599975585938
1528.16985124603	880.799987792969
1528.79865460984	881.200012207031
1529.4273760892	878.400024414063
1530.05601569161	883
1530.68457342455	880
1531.31304929552	883.400024414063
1531.94144331201	882.599975585938
1532.56975548151	884.400024414063
1533.19798581152	883.400024414063
1533.82613430953	885.400024414063
1534.45420098302	882
1535.08218583949	882.599975585938
1535.71008888643	883
1536.33791013134	879.599975585938
1536.96564958169	882.400024414063
1537.59330724498	879.599975585938
1538.22088312871	877.599975585938
1538.84837724034	877.799987792969
1539.47578958739	877
1540.10312017733	880.200012207031
1540.73036901765	878.599975585938
1541.35753611584	879.599975585938
1541.98462147939	880.599975585938
1542.61162511578	878.799987792969
1543.2385470325	880.799987792969
1543.86538723704	880.599975585938
1544.49214573688	879.599975585938
1545.11882253951	880.599975585938
1545.74541765241	879.799987792969
1546.37193108306	879
1546.99836283896	882.400024414063
1547.62471292758	879.200012207031
1548.25098135641	881.200012207031
1548.87716813294	878.799987792969
1549.50327326464	878.599975585938
1550.12929675899	883.400024414063
1550.75523862349	880.200012207031
1551.38109886561	881.799987792969
1552.00687749284	880.599975585938
1552.63257451264	880
1553.25818993252	883.200012207031
1553.88372375994	882
1554.50917600239	882
1555.13454666734	882
1555.75983576228	884.599975585938
1556.38504329469	881.799987792969
1557.01016927204	883.200012207031
1557.63521370181	880
1558.26017659149	878.599975585938
1558.88505794854	879
1559.50985778045	877.599975585938
1560.13457609469	881.400024414063
1560.75921289874	878
1561.38376820008	880.599975585938
1562.00824200618	877.799987792969
1562.63263432452	881.599975585938
1563.25694516257	882.599975585938
1563.88117452781	882.599975585938
1564.50532242772	880.799987792969
1565.12938886976	879.400024414063
1565.75337386141	880.400024414063
1566.37727741015	880.400024414063
1567.00109952345	880.599975585938
1567.62484020878	881.400024414063
1568.24849947361	881.200012207031
1568.87207732542	881
1569.49557377168	879.200012207031
1570.11898881986	879.400024414063
1570.74232247743	879.400024414063
1571.36557475186	881
1571.98874565062	882.400024414063
1572.61183518119	881.599975585938
1573.23484335103	881.799987792969
1573.85777016761	881.400024414063
1574.4806156384	884.200012207031
1575.10337977088	883
1575.7260625725	880.200012207031
1576.34866405074	879.599975585938
1576.97118421306	880.400024414063
1577.59362306694	881.400024414063
1578.21598061984	880.599975585938
1578.83825687922	881.799987792969
1579.46045185255	881
1580.08256554731	881.400024414063
1580.70459797094	880.200012207031
1581.32654913093	879.799987792969
1581.94841903473	879.599975585938
1582.57020768981	883
1583.19191510364	879.200012207031
1583.81354128367	880
1584.43508623737	880.400024414063
1585.05654997221	881.400024414063
1585.67793249564	881
1586.29923381514	881.599975585938
1586.92045393815	880.400024414063
1587.54159287216	884
1588.1626506246	883.200012207031
1588.78362720296	882.400024414063
1589.40452261468	881.400024414063
1590.02533686724	883
1590.64606996808	879.400024414063
1591.26672192467	880.400024414063
1591.88729274447	881.200012207031
1592.50778243493	879.799987792969
1593.12819100352	878.799987792969
1593.7485184577	880.400024414063
1594.36876480492	881.799987792969
1594.98893005264	881.799987792969
1595.60901420832	881
1596.22901727941	882
1596.84893927338	881.799987792969
1597.46878019767	882.200012207031
1598.08854005975	883
1598.70821886707	882
1599.32781662708	878.599975585938
1599.94733334725	883.400024414063
1600.56676903502	882.599975585938
1601.18612369785	881.799987792969
1601.8053973432	880
1602.42458997851	880.799987792969
1603.04370161124	883.799987792969
1603.66273224884	880.799987792969
1604.28168189878	880.599975585938
1604.90055056849	881
1605.51933826543	883.200012207031
1606.13804499705	881.200012207031
1606.75667077081	881.400024414063
1607.37521559415	883.799987792969
1607.99367947452	885
1608.61206241938	886.799987792969
1609.23036443618	887.599975585938
1609.84858553236	886.200012207031
1610.46672571537	882.799987792969
1611.08478499267	885
1611.7027633717	886
1612.3206608599	885.599975585938
1612.93847746473	886.599975585938
1613.55621319364	886.599975585938
1614.17386805407	887
1614.79144205347	890.599975585938
1615.40893519928	889.599975585938
1616.02634749895	890.400024414063
1616.64367895993	892
1617.26092958966	896.400024414063
1617.87809939559	891.400024414063
1618.49518838516	893.200012207031
1619.11219656582	893
1619.729123945	897.200012207031
1620.34597053016	898.799987792969
1620.96273632874	901
1621.57942134818	902.599975585938
1622.19602559592	900.400024414063
1622.8125490794	900.599975585938
1623.42899180607	901
1624.04535378337	905.200012207031
1624.66163501874	902.599975585938
1625.27783551963	905
1625.89395529346	902.799987792969
1626.50999434768	902
1627.12595268974	898.400024414063
1627.74183032707	896
1628.3576272671	898.799987792969
1628.97334351729	898.799987792969
1629.58897908506	893.799987792969
1630.20453397786	893.799987792969
1630.82000820313	894.400024414063
1631.43540176829	892.400024414063
1632.05071468079	889.599975585938
1632.66594694807	884.799987792969
1633.28109857756	885.200012207031
1633.8961695767	884
1634.51115995292	883.400024414063
1635.12606971366	882.200012207031
1635.74089886636	881.400024414063
1636.35564741844	881
1636.97031537734	881.200012207031
1637.58490275051	876.799987792969
1638.19940954536	878.599975585938
1638.81383576934	879
1639.42818142987	877.799987792969
1640.0424465344	878.200012207031
1640.65663109034	876.400024414063
1641.27073510515	875.400024414063
1641.88475858623	877.200012207031
1642.49870154104	879.200012207031
1643.11256397699	875.400024414063
1643.72634590152	874.599975585938
1644.34004732206	874.599975585938
1644.95366824604	874.599975585938
1645.56720868089	873.599975585938
1646.18066863404	875.400024414063
1646.79404811291	873
1647.40734712494	871.799987792969
1648.02056567755	874.599975585938
1648.63370377817	873.599975585938
1649.24676143423	874.200012207031
1649.85973865316	874
1650.47263544238	871.400024414063
1651.08545180932	873
1651.6981877614	872
1652.31084330606	873.799987792969
1652.92341845071	872.200012207031
1653.53591320278	874.599975585938
1654.1483275697	874.200012207031
1654.7606615589	873.799987792969
1655.37291517778	872.400024414063
1655.98508843379	872.599975585938
1656.59718133434	872.599975585938
1657.20919388685	872.200012207031
1657.82112609875	871.599975585938
1658.43297797747	874.400024414063
1659.04474953041	874
1659.65644076501	870.400024414063
1660.26805168869	872.400024414063
1660.87958230886	873.200012207031
1661.49103263294	873
1662.10240266837	873.599975585938
1662.71369242255	870.599975585938
1663.32490190291	874
1663.93603111687	871.200012207031
1664.54708007184	870.400024414063
1665.15804877524	872.200012207031
1665.7689372345	872.400024414063
1666.37974545703	869.599975585938
1666.99047345024	869.200012207031
1667.60112122156	870.200012207031
1668.2116887784	868.799987792969
1668.82217612818	868.799987792969
1669.43258327831	869.599975585938
1670.04291023622	871.400024414063
1670.65315700931	871.200012207031
1671.263323605	870.599975585938
1671.8734100307	870
1672.48341629384	870.400024414063
1673.09334240182	870.200012207031
1673.70318836206	868
1674.31295418197	869.599975585938
1674.92263986896	868
1675.53224543046	871
1676.14177087386	870.200012207031
1676.75121620658	870.200012207031
1677.36058143604	870.599975585938
1677.96986656964	869.400024414063
1678.5790716148	868.799987792969
1679.18819657892	869
1679.79724146943	869.599975585938
1680.40620629372	868.799987792969
1681.0150910592	868.599975585938
1681.6238957733	870
1682.23262044341	870.599975585938
1682.84126507694	868.599975585938
1683.4498296813	871.400024414063
1684.0583142639	870.200012207031
1684.66671883216	869.599975585938
1685.27504339346	870.599975585938
1685.88328795523	870.200012207031
1686.49145252487	872.200012207031
1687.09953710978	868.200012207031
1687.70754171737	868.599975585938
1688.31546635505	870.400024414063
1688.92331103021	869.400024414063
1689.53107575028	870.799987792969
1690.13876052265	868.200012207031
1690.74636535472	869.599975585938
1691.3538902539	870.400024414063
1691.96133522759	868.799987792969
1692.5687002832	869
1693.17598542812	868.799987792969
1693.78319066977	867.799987792969
1694.39031601554	869.599975585938
1694.99736147283	869.599975585938
1695.60432704905	871.200012207031
1696.2112127516	870.599975585938
1696.81801858788	870.599975585938
1697.42474456528	869.200012207031
1698.03139069121	868.799987792969
1698.63795697307	869.599975585938
1699.24444341826	870
1699.85085003417	871
1700.45717682821	869.400024414063
1701.06342380778	869
1701.66959098026	868.400024414063
1702.27567835307	869.200012207031
1702.88168593359	870.799987792969
1703.48761372922	869.400024414063
1704.09346174737	868.400024414063
1704.69922999542	867.799987792969
1705.30491848077	869.599975585938
1705.91052721083	869.799987792969
1706.51605619297	868.200012207031
1707.12150543461	869.400024414063
1707.72687494312	867.799987792969
1708.33216472592	868.599975585938
1708.93737479039	867.599975585938
1709.54250514392	867.200012207031
