634.977642221345	906.200012207031
635.719821695905	900.799987792969
636.461909203392	901
637.203904751776	902.200012207031
637.945808349023	904.200012207031
638.687620003102	903.799987792969
639.42933972198	902.599975585938
640.170967513616	902.200012207031
640.912503385981	903.400024414063
641.653947347041	904
642.395299404758	902.400024414063
643.13655956709	901.200012207031
643.877727842014	903.200012207031
644.61880423748	900.400024414063
645.359788761455	904.200012207031
646.100681421905	903.200012207031
646.841482226789	903.200012207031
647.582191184074	903.799987792969
648.322808301711	903.200012207031
649.06333358767	903.799987792969
649.803767049909	904.200012207031
650.544108696385	903.400024414063
651.28435853506	901.400024414063
652.024516573894	905
652.764582820849	905.599975585938
653.504557283875	903
654.244439970937	904.400024414063
654.984230889991	897.599975585938
655.723930048995	899.200012207031
656.463537455909	901.400024414063
657.203053118683	907.400024414063
657.942477045275	904.400024414063
658.681809243647	902.400024414063
659.421049721747	904.200012207031
660.160198487535	901.400024414063
660.899255548962	902.200012207031
661.638220913985	906.400024414063
662.377094590559	906.599975585938
663.115876586631	906.400024414063
663.854566910165	906.200012207031
664.593165569107	908.200012207031
665.331672571406	904.599975585938
666.07008792502	906.200012207031
666.808411637902	908.400024414063
667.546643717996	904.799987792969
668.284784173258	907.799987792969
669.022833011641	906.400024414063
669.760790241089	906
670.498655869554	905.200012207031
671.236429904987	907
671.97411235534	908
672.711703228551	906
673.449202532577	905.799987792969
674.186610275364	906
674.923926464857	909.400024414063
675.661151109008	910.400024414063
676.398284215759	906.799987792969
677.135325793058	907.400024414063
677.87227584885	911.400024414063
678.609134391082	908
679.345901427696	908.599975585938
680.082576966644	908.200012207031
680.819161015861	906.400024414063
681.555653583298	908.400024414063
682.292054676895	908.799987792969
683.028364304594	908.400024414063
683.764582474344	905.400024414063
684.500709194083	911.200012207031
685.236744471752	908.200012207031
685.972688315294	908.200012207031
686.708540732652	907.599975585938
687.444301731762	904
688.179971320572	906.599975585938
688.915549507013	903
689.651036299034	903.599975585938
690.386431704569	905.799987792969
691.121735731559	903.799987792969
691.85694838794	904.200012207031
692.592069681652	900.200012207031
693.327099620632	901
694.062038212821	901.400024414063
694.796885466149	901.599975585938
695.531641388561	905
696.266305987987	905.200012207031
697.000879272367	903.200012207031
697.735361249632	907.200012207031
698.469751927722	905.400024414063
699.204051314568	905.599975585938
699.938259418107	905.200012207031
700.672376246272	905.400024414063
701.406401806997	907.200012207031
702.140336108212	903
702.874179157855	906.599975585938
703.607930963856	905.799987792969
704.341591534147	903
705.07516087666	901.200012207031
705.808638999324	903.599975585938
706.542025910073	904.400024414063
707.275321616841	907
708.008526127549	903
708.741639450132	906.799987792969
709.474661592521	910.400024414063
710.207592562641	905.200012207031
710.940432368424	904.200012207031
711.673181017796	901.400024414063
712.405838518687	902.200012207031
713.138404879025	899.599975585938
713.870880106731	904
714.603264209738	904.200012207031
715.335557195971	904.799987792969
716.067759073357	903.599975585938
716.799869849816	903.599975585938
717.531889533281	904.400024414063
718.263818131673	903.400024414063
718.995655652917	899
719.727402104934	902.799987792969
720.45905749565	903
721.19062183299	903.799987792969
721.922095124877	902
722.653477379231	903
723.384768603973	905.400024414063
724.11596880703	901.400024414063
724.847077996319	906.599975585938
725.578096179762	901.599975585938
726.309023365281	901.799987792969
727.039859560792	902.599975585938
727.770604774222	904.799987792969
728.501259013484	900.200012207031
729.231822286501	904.200012207031
729.962294601191	905.599975585938
730.692675965469	901.599975585938
731.42296638726	904.200012207031
732.153165874472	901.799987792969
732.883274435032	902
733.613292076851	901.599975585938
734.343218807843	902.400024414063
735.07305463593	901.799987792969
735.802799569028	901
736.532453615048	906.599975585938
737.262016781904	905
737.991489077517	902.799987792969
738.720870509794	907.200012207031
739.450161086654	907.200012207031
740.179360816009	905.799987792969
740.908469705772	905
741.637487763854	906
742.366414998168	905
743.095251416623	905.799987792969
743.823997027137	904.400024414063
744.552651837618	900.799987792969
745.281215855978	902.599975585938
746.009689090124	904.200012207031
746.738071547964	904.400024414063
747.466363237419	903
748.194564166384	905.200012207031
748.92267434278	904.599975585938
749.650693774504	905.599975585938
750.378622469476	905.200012207031
751.106460435596	904.599975585938
751.834207680771	904.400024414063
752.561864212909	904.599975585938
753.289430039919	906
754.016905169707	905
754.744289610175	903.799987792969
755.471583369231	904.599975585938
756.198786454782	900.799987792969
756.925898874728	897.400024414063
757.652920636979	901
758.379851749433	898
759.106692219996	900.400024414063
759.833442056572	900.599975585938
760.560101267063	901.200012207031
761.28666985937	905.400024414063
762.0131478414	907.200012207031
762.739535221046	909
763.465832006219	906.200012207031
764.192038204812	906.400024414063
764.918153824731	903.799987792969
765.644178873872	905
766.370113360138	905.400024414063
767.095957291425	906.799987792969
767.821710675635	904.400024414063
768.547373520665	907.200012207031
769.272945834415	905
769.998427624781	908
770.723818899658	906
771.449119666949	904.400024414063
772.174329934546	905.799987792969
772.899449710347	903.200012207031
773.624479002248	907.200012207031
774.349417818145	908.200012207031
775.074266165934	907.400024414063
775.799024053505	905.599975585938
776.523691488757	907.400024414063
777.248268479582	906.400024414063
777.972755033877	904.599975585938
778.69715115953	905.400024414063
779.421456864441	907
780.145672156493	907
780.869797043587	905.799987792969
781.593831533611	906.799987792969
782.317775634457	904.400024414063
783.041629354012	906
783.765392700174	902.799987792969
784.489065680828	902.200012207031
785.212648303866	906.200012207031
785.936140577177	905
786.659542508652	908
787.382854106174	906.799987792969
788.106075377639	906.200012207031
788.829206330928	907
789.552246973933	905.599975585938
790.275197314542	903.400024414063
790.998057360638	905
791.720827120108	905
792.443506600841	904
793.166095810722	907
793.888594757635	907.599975585938
794.611003449465	906
795.333321894098	906.400024414063
796.055550099417	902.799987792969
796.777688073308	905
797.499735823654	903.400024414063
798.221693358334	903.200012207031
798.943560685235	906.599975585938
799.665337812239	911.400024414063
800.387024747226	908.200012207031
801.108621498075	911.400024414063
801.830128072674	909.799987792969
802.551544478902	908
803.272870724636	909.400024414063
803.994106817761	909.400024414063
804.715252766148	904.599975585938
805.436308577687	911
806.157274260251	910.799987792969
806.878149821721	908
807.598935269973	907.599975585938
808.319630612886	907
809.040235858336	907.200012207031
809.760751014202	905.200012207031
810.481176088361	906.200012207031
811.201511088685	904.400024414063
811.921756023059	905.599975585938
812.641910899347	901.799987792969
813.361975725432	903.400024414063
814.081950509188	901.599975585938
814.801835258489	905.599975585938
815.521629981206	907.400024414063
816.241334685218	909
816.960949378392	908.200012207031
817.680474068606	904
818.399908763731	905.400024414063
819.11925347164	905.200012207031
819.838508200202	904.200012207031
820.55767295729	906.200012207031
821.276747750778	904.599975585938
821.995732588531	902
822.714627478425	901.799987792969
823.433432428327	905.799987792969
824.152147446105	907.599975585938
824.870772539632	905.200012207031
825.589307716775	909.200012207031
826.307752985404	910
827.026108353378	909.200012207031
827.744373828579	908.400024414063
828.462549418867	908
829.180635132107	908.599975585938
829.898630976168	905.400024414063
830.616536958915	907
831.334353088218	911.799987792969
832.052079371938	908.599975585938
832.769715817942	908.200012207031
833.487262434092	904.200012207031
834.204719228255	906.200012207031
834.922086208293	902.200012207031
835.639363382073	905
836.356550757456	910.200012207031
837.073648342304	907.599975585938
837.790656144484	907.799987792969
838.507574171847	905.799987792969
839.22440243227	906.799987792969
839.941140933601	906.599975585938
840.657789683706	908.200012207031
841.374348690448	904.200012207031
842.090817961686	905.799987792969
842.807197505276	904.200012207031
843.523487329083	905.599975585938
844.23968744096	905.599975585938
844.955797848771	904.599975585938
845.671818560374	903.599975585938
846.387749583622	906.400024414063
847.103590926378	907.599975585938
847.819342596497	906.799987792969
848.535004601833	905.400024414063
849.25057695025	909.400024414063
849.966059649598	902.599975585938
850.681452707735	905.200012207031
851.396756132513	908.400024414063
852.111969931789	905.799987792969
852.827094113419	908.400024414063
853.542128685257	908.799987792969
854.257073655158	909.200012207031
854.971929030969	908.599975585938
855.686694820551	910
856.40137103175	908.799987792969
857.115957672423	906.200012207031
857.830454750423	907.799987792969
858.544862273597	908.799987792969
859.259180249797	907.400024414063
859.97340868688	911.400024414063
860.687547592688	911
861.401596975075	908.799987792969
862.115556841891	909.200012207031
862.829427200985	911.200012207031
863.543208060205	908.200012207031
864.256899427402	908.400024414063
864.970501310423	907.400024414063
865.684013717114	909
866.397436655325	909
867.110770132901	906
867.824014157691	906.799987792969
868.537168737542	908
869.250233880299	904.200012207031
869.963209593803	908
870.676095885902	907.599975585938
871.388892764445	904.400024414063
872.101600237276	905.200012207031
872.814218312233	906
873.526746997165	907.799987792969
874.239186299914	906.799987792969
874.951536228323	905.799987792969
875.663796790231	905.200012207031
876.375967993487	907.599975585938
877.088049845928	906.799987792969
877.8000423554	906.799987792969
878.511945529739	907
879.22375937679	909.799987792969
879.935483904388	911.599975585938
880.64711912038	907.400024414063
881.358665032604	906
882.070121648892	910.400024414063
882.78148897709	912
883.492767025039	910.799987792969
884.203955800571	913.200012207031
884.915055311525	911
885.626065565741	916
886.336986571053	912.799987792969
887.047818335298	910.599975585938
887.758560866315	910
888.469214171937	911.799987792969
889.179778260005	910.599975585938
889.890253138347	910.799987792969
890.600638814803	911.599975585938
891.310935297204	911.200012207031
892.021142593385	910.599975585938
892.731260711183	916.200012207031
893.441289658429	913.200012207031
894.15122944295	908.400024414063
894.861080072591	910.799987792969
895.570841555173	910
896.280513898534	911.400024414063
896.990097110503	910.599975585938
897.699591198913	910.799987792969
898.408996171595	912.400024414063
899.118312036375	910.799987792969
899.827538801089	913
900.536676473561	909.599975585938
901.245725061628	909
901.954684573109	914.799987792969
902.663555015838	908
903.372336397644	910.599975585938
904.081028726351	910
904.789632009793	907.400024414063
905.49814625579	910.799987792969
906.20657147217	913.200012207031
906.914907666765	909
907.623154847391	915
908.331313021885	911.400024414063
909.039382198064	911
909.747362383754	913
910.455253586782	915
911.163055814972	912.400024414063
911.870769076143	915
912.578393378126	914.200012207031
913.285928728738	910.400024414063
913.993375135802	910.799987792969
914.700732607145	912.200012207031
915.408001150579	910.400024414063
916.115180773937	910.200012207031
916.822271485037	911.400024414063
917.529273291693	911.599975585938
918.236186201733	911.400024414063
918.943010222971	911.599975585938
919.649745363234	910
920.356391630333	908.400024414063
921.062949032096	906.200012207031
921.769417576333	905.200012207031
922.475797270864	908.799987792969
923.182088123512	906.799987792969
923.888290142089	906.799987792969
924.594403334414	906.599975585938
925.300427708304	907.799987792969
926.006363271572	911.599975585938
926.712210032039	909.400024414063
927.417967997522	911
928.123637175827	911.599975585938
928.829217574776	906.200012207031
929.534709202184	910.400024414063
930.240112065859	911
930.945426173621	908
931.650651533283	909.799987792969
932.355788152653	908
933.060836039547	905.599975585938
933.765795201776	905
934.470665647153	903.599975585938
935.175447383492	907.200012207031
935.880140418599	908
936.584744760286	906.599975585938
937.289260416366	905.599975585938
937.993687394647	907.599975585938
938.698025702939	910.599975585938
939.402275349051	909
940.106436340793	909.799987792969
940.810508685976	909.200012207031
941.5144923924	910.200012207031
942.21838746788	908.799987792969
942.922193920223	907.599975585938
943.625911757231	910.599975585938
944.329540986716	904.799987792969
945.033081616484	911.799987792969
945.736533654334	905.200012207031
946.439897108083	906.200012207031
947.143171985529	907.400024414063
947.846358294477	911.400024414063
948.549456042732	907.599975585938
949.2524652381	907.400024414063
949.955385888382	908.599975585938
950.658218001384	909.799987792969
951.360961584907	908.400024414063
952.063616646755	911.799987792969
952.766183194733	908
953.468661236636	906
954.171050780271	903
954.873351833437	904
955.575564403935	905.599975585938
956.277688499565	903
956.97972412813	902.799987792969
957.681671297424	903.400024414063
958.383530015255	902.799987792969
959.085300289414	904.400024414063
959.786982127703	907
960.488575537918	908.400024414063
961.190080527859	908.200012207031
961.891497105327	903.799987792969
962.592825278111	906.200012207031
963.294065054012	908
963.995216440829	906.400024414063
964.696279446353	904.400024414063
965.397254078383	908.799987792969
966.098140344714	908.400024414063
966.798938253139	909.400024414063
967.499647811456	906.799987792969
968.200269027458	908.400024414063
968.900801908937	909
969.601246463685	906.599975585938
970.3016026995	905.599975585938
971.001870624169	907
971.702050245491	905.599975585938
972.402141571249	908.200012207031
973.102144609245	906
973.802059367267	909.400024414063
974.501885853103	905.400024414063
975.201624074541	905.400024414063
975.901274039379	905.799987792969
976.600835755399	907
977.3003092304	907
977.999694472158	905.599975585938
978.698991488473	908.400024414063
979.39820028713	907.200012207031
980.097320875915	906.799987792969
980.796353262618	905.599975585938
981.495297455024	903
982.194153460919	905.400024414063
982.892921288093	906.599975585938
983.591600944331	904.400024414063
984.290192437419	908.200012207031
984.98869577514	908.200012207031
985.687110965282	906.599975585938
986.385438015629	903.200012207031
987.083676933961	908.200012207031
987.781827728069	905.200012207031
988.479890405732	906.599975585938
989.177864974732	904.599975585938
989.875751442857	909.200012207031
990.573549817888	906.599975585938
991.271260107602	907.200012207031
991.968882319786	904.400024414063
992.666416462217	905
993.363862542681	907.200012207031
994.061220568959	903.400024414063
994.758490548823	905.799987792969
995.455672490061	905.200012207031
996.152766400451	907.200012207031
996.849772287773	907.400024414063
997.5466901598	905.200012207031
998.243520024317	907
998.940261889097	907
999.636915761923	905.799987792969
1000.33348165057	903.799987792969
1001.02995956281	907.200012207031
1001.72634950643	907.599975585938
1002.42265148919	908.799987792969
1003.11886551889	907.400024414063
1003.81499160328	905.799987792969
1004.51102975015	907.799987792969
1005.20697996727	909.200012207031
1005.90284226242	907
1006.59861664337	909
1007.2943031179	912
1007.98990169377	908.400024414063
1008.68541237876	910.400024414063
1009.38083518064	910.799987792969
1010.07617010719	907.599975585938
1010.77141716617	910.200012207031
1011.46657636536	911.799987792969
1012.16164771253	908.599975585938
1012.85663121546	909.200012207031
1013.5515268819	907
1014.24633471963	912.799987792969
1014.94105473642	910.599975585938
1015.63568694004	908.599975585938
1016.33023133826	910.200012207031
1017.02468793885	912.400024414063
1017.71905674957	914.200012207031
1018.41333777819	911.200012207031
1019.10753103249	911.200012207031
1019.80163652022	912.400024414063
1020.49565424916	921.400024414063
1021.18958422707	915.200012207031
1021.88342646171	915
1022.57718096085	916
1023.27084773227	912.400024414063
1023.96442678371	913.200012207031
1024.65791812296	915.799987792969
1025.35132175776	915.599975585938
1026.04463769589	917.200012207031
1026.73786594511	920.200012207031
1027.43100651318	919.400024414063
1028.12405940786	921
1028.81702463692	919
1029.50990220812	922
1030.20269212921	928.400024414063
1030.89539440798	919
1031.58800905216	923.400024414063
1032.28053606952	924.599975585938
1032.97297546784	921.200012207031
1033.66532725485	921.200012207031
1034.35759143832	917.599975585938
1035.04976802602	921.799987792969
1035.7418570257	919.200012207031
1036.43385844511	917.400024414063
1037.12577229202	918.200012207031
1037.81759857419	915.599975585938
1038.50933729937	917.799987792969
1039.20098847531	916.200012207031
1039.89255210978	915.200012207031
1040.58402821053	914
1041.27541678532	916
1041.96671784191	916
1042.65793138804	916
1043.34905743147	916.400024414063
1044.04009597996	913.799987792969
1044.73104704125	912.599975585938
1045.42191062312	915
1046.1126867333	915.400024414063
1046.80337537955	914.799987792969
1047.49397656962	913.799987792969
1048.18449031127	912.599975585938
1048.87491661225	910
1049.5652554803	909.200012207031
1050.25550692319	910
1050.94567094865	913.799987792969
1051.63574756444	910
1052.32573677832	912
1053.01563859803	913
1053.70545303131	912.400024414063
1054.39518008592	911.599975585938
1055.08481976961	913.200012207031
1055.77437209013	914.200012207031
1056.46383705522	911.799987792969
1057.15321467262	916.599975585938
1057.8425049501	910.799987792969
1058.53170789539	914.400024414063
1059.22082351624	908.200012207031
1059.9098518204	907.799987792969
1060.59879281561	910.200012207031
1061.28764650962	908.400024414063
1061.97641291016	910.400024414063
1062.665092025	913.200012207031
1063.35368386187	913.400024414063
1064.04218842851	911.599975585938
1064.73060573268	910.599975585938
1065.4189357821	919
1066.10717858452	911.400024414063
1066.7953341477	912
1067.48340247936	910.400024414063
1068.17138358725	914
1068.85927747912	916.200012207031
1069.5470841627	913.799987792969
1070.23480364573	914.200012207031
1070.92243593595	916.599975585938
1071.60998104111	914.799987792969
1072.29743896894	916.400024414063
1072.98480972718	920.599975585938
1073.67209332357	916.200012207031
1074.35928976585	912.799987792969
1075.04639906176	913.400024414063
1075.73342121903	914
1076.42035624541	911.599975585938
1077.10720414862	913.599975585938
1077.79396493641	911.799987792969
1078.48063861651	914.400024414063
1079.16722519666	910
1079.85372468459	914
1080.54013708804	915.200012207031
1081.22646241474	911.599975585938
1081.91270067243	909.799987792969
1082.59885186884	906.799987792969
1083.28491601171	911.200012207031
1083.97089310877	910.400024414063
1084.65678316774	911.400024414063
1085.34258619637	911.200012207031
1086.02830220239	910.400024414063
1086.71393119352	909.200012207031
1087.39947317751	910.200012207031
1088.08492816207	911.799987792969
1088.77029615495	914
1089.45557716387	908.200012207031
1090.14077119656	913
1090.82587826075	911.200012207031
1091.51089836417	915.400024414063
1092.19583151456	911.599975585938
1092.88067771963	909.799987792969
1093.56543698712	911.599975585938
1094.25010932475	907.799987792969
1094.93469474026	907.200012207031
1095.61919324137	907.599975585938
1096.3036048358	908.799987792969
1096.98792953129	910.200012207031
1097.67216733555	913.200012207031
1098.35631825632	915.799987792969
1099.04038230132	914
1099.72435947828	910.799987792969
1100.40824979492	912.599975585938
1101.09205325895	909.799987792969
1101.77576987812	910.200012207031
1102.45939966014	911.200012207031
1103.14294261273	909.200012207031
1103.82639874362	912.799987792969
1104.50976806054	915.200012207031
1105.19305057119	914.599975585938
1105.87624628331	910.200012207031
1106.55935520461	914.400024414063
1107.24237734283	915.799987792969
1107.92531270566	915.200012207031
1108.60816130085	915.799987792969
1109.2909231361	919.400024414063
1109.97359821914	915.599975585938
1110.65618655768	920.400024414063
1111.33868815946	919.599975585938
1112.02110303217	919.400024414063
1112.70343118355	918.599975585938
1113.3856726213	918.599975585938
1114.06782735316	921.400024414063
1114.74989538683	918.799987792969
1115.43187673002	918.400024414063
1116.11377139047	916.400024414063
1116.79557937588	921.599975585938
1117.47730069397	923
1118.15893535245	924.599975585938
1118.84048335904	923
1119.52194472146	926.799987792969
1120.20331944741	923.799987792969
1120.88460754462	923.200012207031
1121.56580902079	923.400024414063
1122.24692388364	925.400024414063
1122.92795214088	924.400024414063
1123.60889380022	925.599975585938
1124.28974886938	927
1124.97051735606	926.200012207031
1125.65119926799	927.400024414063
1126.33179461286	926.799987792969
1127.0123033984	926.799987792969
1127.6927256323	928.400024414063
1128.37306132229	931.200012207031
1129.05331047606	923.400024414063
1129.73347310134	931
1130.41354920582	927.400024414063
1131.09353879722	924.799987792969
1131.77344188324	923.400024414063
1132.45325847159	922.400024414063
1133.13298856999	925.400024414063
1133.81263218612	926.200012207031
1134.49218932772	926.599975585938
1135.17166000247	926.799987792969
1135.85104421809	926.799987792969
1136.53034198227	928.200012207031
1137.20955330274	925.400024414063
1137.88867818718	924.400024414063
1138.56771664331	924.400024414063
1139.24666867883	925.400024414063
1139.92553430144	923.599975585938
1140.60431351885	922.599975585938
1141.28300633876	920.200012207031
1141.96161276887	923.599975585938
1142.64013281689	920.799987792969
1143.31856649051	920.400024414063
1143.99691379744	921.400024414063
1144.67517474538	922
1145.35334934203	921.200012207031
1146.03143759509	919.400024414063
1146.70943951226	920.200012207031
1147.38735510125	924.200012207031
1148.06518436974	918.599975585938
1148.74292732545	920.799987792969
1149.42058397606	920.200012207031
1150.09815432928	920.599975585938
1150.7756383928	922.400024414063
1151.45303617432	923.599975585938
1152.13034768155	930
1152.80757292217	927.599975585938
1153.48471190389	924.599975585938
1154.16176463439	925.799987792969
1154.83873112138	925.400024414063
1155.51561137255	924
1156.1924053956	922.799987792969
1156.86911319822	925.799987792969
1157.5457347881	922.799987792969
1158.22227017294	922.599975585938
1158.89871936044	922.599975585938
1159.57508235828	917
1160.25135917416	921.400024414063
1160.92754981578	921
1161.60365429081	915.799987792969
1162.27967260697	920.400024414063
1162.95560477193	927.599975585938
1163.63145079339	921.200012207031
1164.30721067904	918.799987792969
1164.98288443657	922.599975585938
1165.65847207367	926
1166.33397359803	922.400024414063
1167.00938901735	922.400024414063
1167.6847183393	921.799987792969
1168.35996157157	924
1169.03511872187	923
1169.71018979787	920.200012207031
1170.38517480726	919.599975585938
1171.06007375773	919.799987792969
1171.73488665696	917
1172.40961351265	922
1173.08425433247	917.200012207031
1173.75880912412	921.599975585938
1174.43327789528	915.599975585938
1175.10766065364	918.200012207031
1175.78195740687	921.599975585938
1176.45616816267	920.799987792969
1177.13029292871	919.599975585938
1177.80433171269	920.200012207031
1178.47828452229	923
1179.15215136518	919.799987792969
1179.82593224905	919.400024414063
1180.49962718159	920.799987792969
1181.17323617047	919.799987792969
1181.84675922337	920.200012207031
1182.52019634799	924.799987792969
1183.193547552	922.799987792969
1183.86681284307	921.200012207031
1184.53999222889	922.400024414063
1185.21308571714	916.599975585938
1185.8860933155	918.200012207031
1186.55901503165	915.599975585938
1187.23185087326	918.799987792969
1187.90460084802	920
1188.5772649636	921.799987792969
1189.24984322768	920.400024414063
1189.92233564794	923.400024414063
1190.59474223206	920.599975585938
1191.2670629877	922.200012207031
1191.93929792255	924.200012207031
1192.61144704428	927.599975585938
1193.28351036058	924.599975585938
1193.9554878791	929.200012207031
1194.62737960754	925.400024414063
1195.29918555356	925.599975585938
1195.97090572483	926.599975585938
1196.64254012903	929.400024414063
1197.31408877384	924.400024414063
1197.98555166693	931
1198.65692881596	930
1199.32822022862	928
1199.99942591256	927.200012207031
1200.67054587548	930.599975585938
1201.34158012503	925
1202.01252866889	928
1202.68339151473	926.200012207031
1203.35416867021	926.200012207031
1204.02486014301	926.799987792969
1204.6954659408	929
1205.36598607124	925.799987792969
1206.03642054201	934.400024414063
1206.70676936078	929.200012207031
1207.3770325352	928.200012207031
1208.04721007295	931.799987792969
1208.7173019817	934.400024414063
1209.38730826911	930.799987792969
1210.05722894285	929.200012207031
1210.72706401059	930.400024414063
1211.39681347999	929.799987792969
1212.06647735872	930.799987792969
1212.73605565444	930.200012207031
1213.40554837481	931
1214.07495552751	930.200012207031
1214.74427712019	931.200012207031
1215.41351316052	929.400024414063
1216.08266365617	932.799987792969
1216.75172861479	936.200012207031
1217.42070804405	933.599975585938
1218.0896019516	932.599975585938
1218.75841034513	934.400024414063
1219.42713323227	935.799987792969
1220.0957706207	937.799987792969
1220.76432251808	944.599975585938
1221.43278893207	936.400024414063
1222.10116987032	938.799987792969
1222.7694653405	938.799987792969
1223.43767535026	939.599975585938
1224.10579990727	942.400024414063
1224.77383901918	941
1225.44179269366	942.799987792969
1226.10966093835	939.799987792969
1226.77744376093	940
1227.44514116904	936.799987792969
1228.11275317034	938.799987792969
1228.78027977249	939.799987792969
1229.44772098315	936.799987792969
1230.11507680996	934.400024414063
1230.7823472606	935.799987792969
1231.44953234271	934.799987792969
1232.11663206394	932.200012207031
1232.78364643195	933.799987792969
1233.4505754544	937.200012207031
1234.11741913894	937.200012207031
1234.78417749322	937.799987792969
1235.45085052489	934
1236.11743824162	941.599975585938
1236.78394065104	940.799987792969
1237.45035776082	939.599975585938
1238.1166895786	938.599975585938
1238.78293611204	939
1239.44909736878	936.799987792969
1240.11517335648	940
1240.78116408279	941
1241.44706955535	938
1242.11288978182	934.799987792969
1242.77862476985	936.599975585938
1243.44427452708	933.599975585938
1244.10983906116	940.400024414063
1244.77531837974	936.400024414063
1245.44071249047	936
1246.106021401	937.599975585938
1246.77124511898	936.200012207031
1247.43638365204	937.799987792969
1248.10143700783	939.200012207031
1248.76640519401	940.400024414063
1249.43128821822	936.200012207031
1250.0960860881	936.400024414063
1250.76079881129	936.400024414063
1251.42542639545	937.599975585938
1252.08996884822	934
1252.75442617723	933.799987792969
1253.41879839014	937.400024414063
1254.08308549458	939.400024414063
1254.74728749821	935.599975585938
1255.41140440866	933.599975585938
1256.07543623357	937
1256.73938298059	933
1257.40324465735	937
1258.0670212715	931.599975585938
1258.73071283068	935.200012207031
1259.39431934253	933.799987792969
1260.05784081468	935.400024414063
1260.72127725479	936
1261.38462867049	928.599975585938
1262.0478950694	931.599975585938
1262.71107645919	930.400024414063
1263.37417284748	932.400024414063
1264.03718424191	930.799987792969
1264.70011065011	931.799987792969
1265.36295207974	931.799987792969
1266.02570853841	932.599975585938
1266.68838003378	929.799987792969
1267.35096657346	932.599975585938
1268.01346816511	932
1268.67588481636	933
1269.33821653483	925.799987792969
1270.00046332817	932
1270.66262520401	935.400024414063
1271.32470216998	929.799987792969
1271.98669423372	935.400024414063
1272.64860140285	930.599975585938
1273.31042368503	934.400024414063
1273.97216108786	938.799987792969
1274.633813619	937.599975585938
1275.29538128606	936.400024414063
1275.95686409669	935.799987792969
1276.6182620585	936.400024414063
1277.27957517914	937.400024414063
1277.94080346624	934.599975585938
1278.60194692741	932.200012207031
1279.2630055703	934.400024414063
1279.92397940253	937.400024414063
1280.58486843173	935.799987792969
1281.24567266552	934
1281.90639211155	931.200012207031
1282.56702677743	933.200012207031
1283.2275766708	935.200012207031
1283.88804179927	931.400024414063
1284.54842217049	933.200012207031
1285.20871779206	931
1285.86892867163	935.599975585938
1286.52905481681	937.799987792969
1287.18909623523	938.799987792969
1287.84905293452	941.200012207031
1288.5089249223	932
1289.16871220619	938.200012207031
1289.82841479383	936
1290.48803269282	934.799987792969
1291.1475659108	933.200012207031
1291.80701445539	938.400024414063
1292.46637833421	932.799987792969
1293.12565755489	932.200012207031
1293.78485212504	938
1294.44396205229	940.400024414063
1295.10298734425	939.400024414063
1295.76192800856	942.799987792969
1296.42078405283	940.599975585938
1297.07955548467	940.799987792969
1297.73824231171	934.799987792969
1298.39684454158	939.400024414063
1299.05536218188	939.200012207031
1299.71379524023	935.799987792969
1300.37214372427	939.400024414063
1301.03040764159	937.200012207031
1301.68858699983	943
1302.34668180659	942.200012207031
1303.0046920695	942
1303.66261779617	948
1304.32045899422	947
1304.97821567126	943
1305.63588783492	940.599975585938
1306.29347549279	945
1306.95097865251	943.799987792969
1307.60839732168	949.400024414063
1308.26573150791	946.200012207031
1308.92298121883	944.799987792969
1309.58014646204	941.799987792969
1310.23722724517	937
1310.89422357581	947
1311.55113546158	946.799987792969
1312.2079629101	945.799987792969
1312.86470592898	950.799987792969
1313.52136452582	950
1314.17793870824	945.400024414063
1314.83442848386	946.200012207031
1315.49083386027	951.400024414063
1316.14715484509	948.799987792969
1316.80339144594	949.599975585938
1317.45954367041	952.799987792969
1318.11561152611	949.200012207031
1318.77159502067	951.799987792969
1319.42749416168	947.599975585938
1320.08330895674	946.599975585938
1320.73903941348	950
1321.3946855395	949.200012207031
1322.0502473424	950.200012207031
1322.70572482978	951
1323.36111800926	954
1324.01642688845	953.200012207031
1324.67165147494	952
1325.32679177634	953.400024414063
1325.98184780025	948.799987792969
1326.63681955429	953
1327.29170704605	953
1327.94651028314	950
1328.60122927316	947.200012207031
1329.25586402371	950.799987792969
1329.9104145424	954.200012207031
1330.56488083683	949
1331.2192629146	951.599975585938
1331.87356078331	949
1332.52777445056	957
1333.18190392395	949.799987792969
1333.83594921109	947.799987792969
1334.48991031958	950.200012207031
1335.143787257	945.599975585938
1335.79758003097	950.200012207031
1336.45128864908	945.400024414063
1337.10491311893	946.400024414063
1337.75845344813	953.599975585938
1338.41190964425	951.200012207031
1339.06528171491	941
1339.71856966771	947.200012207031
1340.37177351023	946
1341.02489325007	949
1341.67792889484	946.599975585938
1342.33088045212	945
1342.98374792952	947
1343.63653133462	947.400024414063
1344.28923067503	946.799987792969
1344.94184595833	946.799987792969
1345.59437719212	940.799987792969
1346.246824384	942.599975585938
1346.89918754155	944.799987792969
1347.55146667238	943.599975585938
1348.20366178407	942.799987792969
1348.85577288421	944.400024414063
1349.50779998041	937
1350.15974308024	944.599975585938
1350.8116021913	942.599975585938
1351.46337732119	941.799987792969
1352.11506847748	945.200012207031
1352.76667566778	944.799987792969
1353.41819889967	943
1354.06963818074	942.400024414063
1354.72099351858	942
1355.37226492079	942.200012207031
1356.02345239494	948.599975585938
1356.67455594862	946.799987792969
1357.32557558943	950.400024414063
1357.97651132496	949.599975585938
1358.62736316277	949
1359.27813111048	949
1359.92881517565	947.599975585938
1360.57941536589	953.200012207031
1361.22993168876	950.599975585938
1361.88036415186	954.599975585938
1362.53071276278	954.599975585938
1363.1809775291	955.200012207031
1363.8311584584	953.799987792969
1364.48125555826	948.799987792969
1365.13126883627	952
1365.78119830001	948.400024414063
1366.43104395707	951
1367.08080581503	946
1367.73048388147	949.599975585938
1368.38007816397	949.200012207031
1369.02958867011	944.200012207031
1369.67901540748	951
1370.32835838365	955.200012207031
1370.9776176062	953.200012207031
1371.62679308273	949.799987792969
1372.27588482079	953.400024414063
1372.92489282798	953.599975585938
1373.57381711188	955
1374.22265768006	947.599975585938
1374.87141454009	947.200012207031
1375.52008769957	944.799987792969
1376.16867716606	946
1376.81718294715	946.400024414063
1377.4656050504	947
1378.1139434834	948
1378.76219825373	951.799987792969
1379.41036936895	952.799987792969
1380.05845683664	955
1380.70646066439	959.599975585938
1381.35438085976	954.799987792969
1382.00221743032	956.200012207031
1382.64997038366	959.200012207031
1383.29763972735	958.599975585938
1383.94522546895	957.200012207031
1384.59272761605	950.200012207031
1385.24014617621	952.799987792969
1385.88748115701	954
1386.53473256602	954.599975585938
1387.18190041081	954.400024414063
1387.82898469895	957.799987792969
1388.47598543802	957.200012207031
1389.12290263558	952.400024414063
1389.7697362992	954
1390.41648643646	950.400024414063
1391.06315305492	952.799987792969
1391.70973616215	950.599975585938
1392.35623576573	953
1393.00265187321	956.799987792969
1393.64898449217	953.599975585938
1394.29523363018	954
1394.94139929481	952
1395.58748149361	959
1396.23348023415	954.599975585938
1396.87939552402	952.799987792969
1397.52522737076	950
1398.17097578195	949.400024414063
1398.81664076514	947
1399.46222232792	949.400024414063
1400.10772047783	947
1400.75313522245	952
1401.39846656934	953.400024414063
1402.04371452605	960.400024414063
1402.68887910016	962.200012207031
1403.33396029924	956.400024414063
1403.97895813083	960.799987792969
1404.6238726025	958.799987792969
1405.26870372182	965
1405.91345149634	965.400024414063
1406.55811593363	956
1407.20269704125	961.200012207031
1407.84719482676	956.599975585938
1408.49160929772	958.799987792969
1409.13594046168	955
1409.78018832622	957
1410.42435289887	955.200012207031
1411.06843418722	960
1411.7124321988	960.599975585938
1412.3563469412	960.599975585938
1413.00017842194	962.799987792969
1413.64392664861	966.799987792969
1414.28759162875	966.400024414063
1414.93117336992	967.400024414063
1415.57467187967	964.799987792969
1416.21808716557	962
1416.86141923516	960.599975585938
1417.50466809601	963.799987792969
1418.14783375567	968.200012207031
1418.79091622169	961.200012207031
1419.43391550162	964.599975585938
1420.07683160303	969.400024414063
1420.71966453346	968.599975585938
1421.36241430046	965.599975585938
1422.0050809116	967.599975585938
1422.64766437442	976
1423.29016469647	976.200012207031
1423.93258188531	974.400024414063
1424.57491594848	981
1425.21716689354	976.200012207031
1425.85933472805	972.599975585938
1426.50141945954	974.200012207031
1427.14342109557	972.400024414063
1427.78533964369	974.799987792969
1428.42717511144	978.200012207031
1429.06892750639	981.200012207031
1429.71059683607	975
1430.35218310803	977
1430.99368632983	978.799987792969
1431.635106509	979.599975585938
1432.2764436531	982.799987792969
1432.91769776967	983.400024414063
1433.55886886627	979.400024414063
1434.19995695043	975.200012207031
1434.84096202969	983
1435.48188411162	982.599975585938
1436.12272320375	983.400024414063
1436.76347931363	983.200012207031
1437.40415244879	985.599975585938
1438.0447426168	985.799987792969
1438.68524982518	988.799987792969
1439.32567408148	980
1439.96601539325	979
1440.60627376803	976
1441.24644921336	976.799987792969
1441.88654173678	980.200012207031
1442.52655134583	977.400024414063
1443.16647804806	979.599975585938
1443.806321851	980.799987792969
1444.4460827622	980
1445.0857607892	977.200012207031
1445.72535593953	980.200012207031
1446.36486822074	971.599975585938
1447.00429764037	977.799987792969
1447.64364420595	979.200012207031
1448.28290792502	978
1448.92208880512	979.400024414063
1449.56118685379	982.799987792969
1450.20020207857	981.799987792969
1450.83913448699	974.599975585938
1451.47798408659	977.799987792969
1452.1167508849	977.799987792969
1452.75543488947	974.200012207031
1453.39403610782	972
1454.0325545475	968.799987792969
1454.67099021603	973.200012207031
1455.30934312097	973.599975585938
1455.94761326982	972.799987792969
1456.58580067014	967
1457.22390532945	962.799987792969
1457.86192725529	970.799987792969
1458.49986645519	971.400024414063
1459.13772293668	964.400024414063
1459.7754967073	961.200012207031
1460.41318777457	961.799987792969
1461.05079614604	960.200012207031
1461.68832182922	963.799987792969
1462.32576483166	964.400024414063
1462.96312516087	961.799987792969
1463.6004028244	963
1464.23759782977	959.400024414063
1464.8747101845	962.200012207031
1465.51173989614	966.599975585938
1466.14868697221	961.799987792969
1466.78555142024	962.599975585938
1467.42233324774	955.400024414063
1468.05903246227	959.599975585938
1468.69564907133	955.599975585938
1469.33218308246	953.400024414063
1469.96863450317	953.599975585938
1470.60500334102	958.200012207031
1471.2412896035	958.599975585938
1471.87749329816	956.400024414063
1472.51361443251	961
1473.14965301409	954.400024414063
1473.78560905041	956.799987792969
1474.421482549	958.799987792969
1475.05727351739	955.599975585938
1475.69298196309	954
1476.32860789364	954.799987792969
1476.96415131654	951.400024414063
1477.59961223934	951.400024414063
1478.23499066954	954.400024414063
1478.87028661467	954.599975585938
1479.50550008226	951.200012207031
1480.14063107981	951.200012207031
1480.77567961486	951.599975585938
1481.41064569492	955.799987792969
1482.04552932752	949.599975585938
1482.68033052017	952.400024414063
1483.31504928039	951.799987792969
1483.9496856157	952.599975585938
1484.58423953363	956.799987792969
1485.21871104168	961.400024414063
1485.85310014738	955.599975585938
1486.48740685824	958.599975585938
1487.12163118178	957.200012207031
1487.75577312553	958
1488.38983269698	957.400024414063
1489.02380990367	954
1489.65770475311	951
1490.29151725281	953.400024414063
1490.92524741029	952.599975585938
1491.55889523306	954.799987792969
1492.19246072863	949
1492.82594390453	953
1493.45934476826	946.200012207031
1494.09266332734	946.400024414063
1494.72589958928	950
1495.3590535616	948
1495.99212525181	952.200012207031
1496.62511466741	945
1497.25802181592	951.400024414063
1497.89084670485	949
1498.52358934172	953.599975585938
1499.15624973403	955.200012207031
1499.7888278893	953
1500.42132381503	954.400024414063
1501.05373751873	957.200012207031
1501.68606900792	949
1502.31831829009	951.599975585938
1502.95048537277	950.200012207031
1503.58257026346	947.400024414063
1504.21457296966	943.400024414063
1504.84649349889	947
1505.47833185864	954.200012207031
1506.11008805644	951.400024414063
1506.74176209978	947
1507.37335399617	950.400024414063
1508.00486375312	950.599975585938
1508.63629137813	952
1509.2676368787	951.799987792969
1509.89890026235	956.400024414063
1510.53008153658	951.799987792969
1511.16118070889	950.400024414063
1511.79219778677	949.799987792969
1512.42313277775	950.799987792969
1513.05398568932	949
1513.68475652898	949
1514.31544530424	947.400024414063
1514.9460520226	947.599975585938
1515.57657669155	947
1516.20701931861	945.599975585938
1516.83737991127	946
1517.46765847702	947.599975585938
1518.09785502339	948
1518.72796955785	951.599975585938
1519.35800208792	953.599975585938
1519.98795262109	955.599975585938
1520.61782116486	954.200012207031
1521.24760772673	954.200012207031
1521.87731231419	954.599975585938
1522.50693493475	956.799987792969
1523.1364755959	955.200012207031
1523.76593430514	954.400024414063
1524.39531106997	947.200012207031
1525.02460589788	950.200012207031
1525.65381879637	948.200012207031
1526.28294977293	949
1526.91199883507	946.400024414063
1527.54096599027	944.200012207031
1528.16985124603	939.799987792969
1528.79865460984	942.599975585938
1529.4273760892	944.400024414063
1530.05601569161	941.400024414063
1530.68457342455	945
1531.31304929552	943.400024414063
1531.94144331201	946
1532.56975548151	944.599975585938
1533.19798581152	947.400024414063
1533.82613430953	948.400024414063
1534.45420098302	942.799987792969
1535.08218583949	948.400024414063
1535.71008888643	944
1536.33791013134	941.200012207031
1536.96564958169	941.200012207031
1537.59330724498	940.400024414063
1538.22088312871	940.799987792969
1538.84837724034	937
1539.47578958739	938
1540.10312017733	941.200012207031
1540.73036901765	942
1541.35753611584	942.200012207031
1541.98462147939	943.200012207031
1542.61162511578	939.400024414063
1543.2385470325	942.200012207031
1543.86538723704	940
1544.49214573688	939
1545.11882253951	940
1545.74541765241	939.799987792969
1546.37193108306	937.599975585938
1546.99836283896	942.400024414063
1547.62471292758	940.799987792969
1548.25098135641	938.599975585938
1548.87716813294	935
1549.50327326464	940.400024414063
1550.12929675899	942.200012207031
1550.75523862349	940.599975585938
1551.38109886561	940.799987792969
1552.00687749284	945.200012207031
1552.63257451264	943.799987792969
1553.25818993252	939
1553.88372375994	939
1554.50917600239	939.599975585938
1555.13454666734	937.400024414063
1555.75983576228	937
1556.38504329469	938.400024414063
1557.01016927204	934.400024414063
1557.63521370181	935
1558.26017659149	935
1558.88505794854	935.799987792969
1559.50985778045	935.400024414063
1560.13457609469	941.799987792969
1560.75921289874	937.599975585938
1561.38376820008	936.599975585938
1562.00824200618	934
1562.63263432452	936
1563.25694516257	933.599975585938
1563.88117452781	935.799987792969
1564.50532242772	934.400024414063
1565.12938886976	935.599975585938
1565.75337386141	935.599975585938
1566.37727741015	937.599975585938
1567.00109952345	943.799987792969
1567.62484020878	941.200012207031
1568.24849947361	944.200012207031
1568.87207732542	940.200012207031
1569.49557377168	941
1570.11898881986	942.400024414063
1570.74232247743	943
1571.36557475186	940.799987792969
1571.98874565062	944.599975585938
1572.61183518119	942.400024414063
1573.23484335103	942.599975585938
1573.85777016761	948.200012207031
1574.4806156384	944
1575.10337977088	937.400024414063
1575.7260625725	940.200012207031
1576.34866405074	942
1576.97118421306	938.799987792969
1577.59362306694	937.599975585938
1578.21598061984	942
1578.83825687922	940
1579.46045185255	935.200012207031
1580.08256554731	945.400024414063
1580.70459797094	938.599975585938
1581.32654913093	934.400024414063
1581.94841903473	940.200012207031
1582.57020768981	934.200012207031
1583.19191510364	935.799987792969
1583.81354128367	937.799987792969
1584.43508623737	938.400024414063
1585.05654997221	935.200012207031
1585.67793249564	935.200012207031
1586.29923381514	936.200012207031
1586.92045393815	940
1587.54159287216	940.200012207031
1588.1626506246	938.200012207031
1588.78362720296	942.200012207031
1589.40452261468	937.799987792969
1590.02533686724	936
1590.64606996808	940
1591.26672192467	937
1591.88729274447	936
1592.50778243493	943.799987792969
1593.12819100352	944.400024414063
1593.7485184577	943
1594.36876480492	937.599975585938
1594.98893005264	936.799987792969
1595.60901420832	940
1596.22901727941	937.599975585938
1596.84893927338	939
1597.46878019767	941.599975585938
1598.08854005975	939.400024414063
1598.70821886707	936.400024414063
1599.32781662708	941.200012207031
1599.94733334725	938.200012207031
1600.56676903502	938.799987792969
1601.18612369785	938
1601.8053973432	939.200012207031
1602.42458997851	936.599975585938
1603.04370161124	935.799987792969
1603.66273224884	935.799987792969
1604.28168189878	940.400024414063
1604.90055056849	939.200012207031
1605.51933826543	935.400024414063
1606.13804499705	938.599975585938
1606.75667077081	941.400024414063
1607.37521559415	942.200012207031
1607.99367947452	949.200012207031
1608.61206241938	942.200012207031
1609.23036443618	946.200012207031
1609.84858553236	943.799987792969
1610.46672571537	944.599975585938
1611.08478499267	946.599975585938
1611.7027633717	945.200012207031
1612.3206608599	945.599975585938
1612.93847746473	944.799987792969
1613.55621319364	943.799987792969
1614.17386805407	947.400024414063
1614.79144205347	946
1615.40893519928	946.400024414063
1616.02634749895	949.200012207031
1616.64367895993	946.200012207031
1617.26092958966	946.799987792969
1617.87809939559	944.599975585938
1618.49518838516	947.400024414063
1619.11219656582	947
1619.729123945	950.799987792969
1620.34597053016	951.400024414063
1620.96273632874	947
1621.57942134818	944.799987792969
1622.19602559592	947.200012207031
1622.8125490794	944.599975585938
1623.42899180607	948.400024414063
1624.04535378337	947
1624.66163501874	949
1625.27783551963	941.400024414063
1625.89395529346	944.799987792969
1626.50999434768	942.599975585938
1627.12595268974	937.799987792969
1627.74183032707	938.599975585938
1628.3576272671	933.200012207031
1628.97334351729	935.599975585938
1629.58897908506	928.200012207031
1630.20453397786	927.799987792969
1630.82000820313	921.599975585938
1631.43540176829	926.599975585938
1632.05071468079	925.400024414063
1632.66594694807	924.799987792969
1633.28109857756	922.200012207031
1633.8961695767	916.200012207031
1634.51115995292	916.799987792969
1635.12606971366	914.400024414063
1635.74089886636	914
1636.35564741844	916.400024414063
1636.97031537734	914.200012207031
1637.58490275051	912.599975585938
1638.19940954536	912.400024414063
1638.81383576934	914.400024414063
1639.42818142987	912.599975585938
1640.0424465344	914.200012207031
1640.65663109034	907.400024414063
1641.27073510515	909.200012207031
1641.88475858623	910.400024414063
1642.49870154104	911.799987792969
1643.11256397699	907.599975585938
1643.72634590152	906.799987792969
1644.34004732206	904.799987792969
1644.95366824604	911.799987792969
1645.56720868089	911.400024414063
1646.18066863404	906.799987792969
1646.79404811291	906.200012207031
1647.40734712494	903.599975585938
1648.02056567755	905
1648.63370377817	901.799987792969
1649.24676143423	906.400024414063
1649.85973865316	904
1650.47263544238	904.799987792969
1651.08545180932	903.200012207031
1651.6981877614	905.200012207031
1652.31084330606	902.799987792969
1652.92341845071	902.599975585938
1653.53591320278	899.799987792969
1654.1483275697	904.400024414063
1654.7606615589	903.400024414063
1655.37291517778	902.599975585938
1655.98508843379	900.400024414063
1656.59718133434	900.400024414063
1657.20919388685	900.400024414063
1657.82112609875	903
1658.43297797747	907.400024414063
1659.04474953041	905
1659.65644076501	907.400024414063
1660.26805168869	903.200012207031
1660.87958230886	903.400024414063
1661.49103263294	902.400024414063
1662.10240266837	904.400024414063
1662.71369242255	900.200012207031
1663.32490190291	901.200012207031
1663.93603111687	901
1664.54708007184	900.599975585938
1665.15804877524	899
1665.7689372345	898.599975585938
1666.37974545703	898.599975585938
1666.99047345024	898.200012207031
1667.60112122156	899
1668.2116887784	897.599975585938
1668.82217612818	896.799987792969
1669.43258327831	896.799987792969
1670.04291023622	898.400024414063
1670.65315700931	894.400024414063
1671.263323605	896
1671.8734100307	897.200012207031
1672.48341629384	899.599975585938
1673.09334240182	899.200012207031
1673.70318836206	896.200012207031
1674.31295418197	898.400024414063
1674.92263986896	898.599975585938
1675.53224543046	898.599975585938
1676.14177087386	895.400024414063
1676.75121620658	895.799987792969
1677.36058143604	895.599975585938
1677.96986656964	896.599975585938
1678.5790716148	894.599975585938
1679.18819657892	895.400024414063
1679.79724146943	897.799987792969
1680.40620629372	897.200012207031
1681.0150910592	897
1681.6238957733	895
1682.23262044341	894.599975585938
1682.84126507694	894.200012207031
1683.4498296813	893.400024414063
1684.0583142639	895.200012207031
1684.66671883216	897.799987792969
1685.27504339346	897.200012207031
1685.88328795523	894.400024414063
1686.49145252487	892
1687.09953710978	892.599975585938
1687.70754171737	892.599975585938
1688.31546635505	894.599975585938
1688.92331103021	893.799987792969
1689.53107575028	893
1690.13876052265	895
1690.74636535472	893.200012207031
1691.3538902539	894.200012207031
1691.96133522759	892.400024414063
1692.5687002832	895
1693.17598542812	895.599975585938
1693.78319066977	892.599975585938
1694.39031601554	895.799987792969
1694.99736147283	897
1695.60432704905	895.400024414063
1696.2112127516	897.799987792969
1696.81801858788	898.200012207031
1697.42474456528	896.799987792969
1698.03139069121	896.799987792969
1698.63795697307	893.599975585938
1699.24444341826	896.799987792969
1699.85085003417	894.400024414063
1700.45717682821	895
1701.06342380778	893.400024414063
1701.66959098026	892.599975585938
1702.27567835307	892
1702.88168593359	890.200012207031
1703.48761372922	891.200012207031
1704.09346174737	889.599975585938
1704.69922999542	890.799987792969
1705.30491848077	890.799987792969
1705.91052721083	889.599975585938
1706.51605619297	890.599975585938
1707.12150543461	890.599975585938
1707.72687494312	888.799987792969
1708.33216472592	891
1708.93737479039	889.400024414063
1709.54250514392	889
