634.977642221345	875.799987792969
635.719821695905	877.599975585938
636.461909203392	879
637.203904751776	878.400024414063
637.945808349023	879.400024414063
638.687620003102	881.400024414063
639.42933972198	877.400024414063
640.170967513616	878.400024414063
640.912503385981	876.799987792969
641.653947347041	880
642.395299404758	878.400024414063
643.13655956709	878.200012207031
643.877727842014	877
644.61880423748	875.799987792969
645.359788761455	875.400024414063
646.100681421905	876.599975585938
646.841482226789	876.599975585938
647.582191184074	876.599975585938
648.322808301711	876
649.06333358767	877.200012207031
649.803767049909	877.200012207031
650.544108696385	877.599975585938
651.28435853506	876.200012207031
652.024516573894	877
652.764582820849	879
653.504557283875	878.799987792969
654.244439970937	877.599975585938
654.984230889991	877.200012207031
655.723930048995	877.799987792969
656.463537455909	879.200012207031
657.203053118683	879.200012207031
657.942477045275	879.599975585938
658.681809243647	878.200012207031
659.421049721747	880.599975585938
660.160198487535	877.599975585938
660.899255548962	877.400024414063
661.638220913985	880.400024414063
662.377094590559	878
663.115876586631	879.799987792969
663.854566910165	879.400024414063
664.593165569107	882.200012207031
665.331672571406	881
666.07008792502	879.599975585938
666.808411637902	879.200012207031
667.546643717996	878.200012207031
668.284784173258	881.400024414063
669.022833011641	879.599975585938
669.760790241089	879
670.498655869554	879.799987792969
671.236429904987	880.599975585938
671.97411235534	878.200012207031
672.711703228551	880
673.449202532577	881.400024414063
674.186610275364	878.400024414063
674.923926464857	879.799987792969
675.661151109008	882.200012207031
676.398284215759	882.200012207031
677.135325793058	879.200012207031
677.87227584885	878.799987792969
678.609134391082	882.799987792969
679.345901427696	880.599975585938
680.082576966644	881.799987792969
680.819161015861	880.400024414063
681.555653583298	878.400024414063
682.292054676895	878.799987792969
683.028364304594	878.599975585938
683.764582474344	880.599975585938
684.500709194083	879.400024414063
685.236744471752	877.400024414063
685.972688315294	879
686.708540732652	880.200012207031
687.444301731762	878
688.179971320572	878
688.915549507013	877.599975585938
689.651036299034	877.200012207031
690.386431704569	878
691.121735731559	879
691.85694838794	876.200012207031
692.592069681652	878
693.327099620632	875.599975585938
694.062038212821	879.400024414063
694.796885466149	878.799987792969
695.531641388561	879.200012207031
696.266305987987	878
697.000879272367	877.400024414063
697.735361249632	877
698.469751927722	879.200012207031
699.204051314568	878.799987792969
699.938259418107	877.599975585938
700.672376246272	878.599975585938
701.406401806997	878.400024414063
702.140336108212	877.200012207031
702.874179157855	876.400024414063
703.607930963856	878.599975585938
704.341591534147	876.400024414063
705.07516087666	878.200012207031
705.808638999324	875.799987792969
706.542025910073	877.200012207031
707.275321616841	875.799987792969
708.008526127549	876.200012207031
708.741639450132	877.200012207031
709.474661592521	876.599975585938
710.207592562641	878.200012207031
710.940432368424	876.599975585938
711.673181017796	876.799987792969
712.405838518687	876
713.138404879025	876.799987792969
713.870880106731	876.599975585938
714.603264209738	876
715.335557195971	877.799987792969
716.067759073357	877
716.799869849816	879.200012207031
717.531889533281	878.400024414063
718.263818131673	879.400024414063
718.995655652917	878.400024414063
719.727402104934	876.799987792969
720.45905749565	876.799987792969
721.19062183299	876.599975585938
721.922095124877	876.599975585938
722.653477379231	878
723.384768603973	878
724.11596880703	875.799987792969
724.847077996319	876.599975585938
725.578096179762	877.400024414063
726.309023365281	877
727.039859560792	877.200012207031
727.770604774222	877
728.501259013484	876.799987792969
729.231822286501	876.799987792969
729.962294601191	874.400024414063
730.692675965469	878.200012207031
731.42296638726	874.599975585938
732.153165874472	877
732.883274435032	877.400024414063
733.613292076851	878
734.343218807843	876.799987792969
735.07305463593	878
735.802799569028	878.200012207031
736.532453615048	878.400024414063
737.262016781904	877.599975585938
737.991489077517	876.400024414063
738.720870509794	879.200012207031
739.450161086654	876.799987792969
740.179360816009	877.400024414063
740.908469705772	877.200012207031
741.637487763854	877
742.366414998168	877.799987792969
743.095251416623	879
743.823997027137	877.200012207031
744.552651837618	874.200012207031
745.281215855978	876.200012207031
746.009689090124	877.200012207031
746.738071547964	875.599975585938
747.466363237419	877
748.194564166384	875.799987792969
748.92267434278	877
749.650693774504	878
750.378622469476	876.599975585938
751.106460435596	877.400024414063
751.834207680771	878.200012207031
752.561864212909	878.599975585938
753.289430039919	878
754.016905169707	878
754.744289610175	878
755.471583369231	875.799987792969
756.198786454782	876.599975585938
756.925898874728	876.599975585938
757.652920636979	875.400024414063
758.379851749433	876.200012207031
759.106692219996	876.599975585938
759.833442056572	875.799987792969
760.560101267063	877
761.28666985937	876
762.0131478414	880.200012207031
762.739535221046	876.799987792969
763.465832006219	877.200012207031
764.192038204812	875.799987792969
764.918153824731	877
765.644178873872	876.400024414063
766.370113360138	878.799987792969
767.095957291425	878.799987792969
767.821710675635	878
768.547373520665	879.200012207031
769.272945834415	879.200012207031
769.998427624781	879.200012207031
770.723818899658	878.599975585938
771.449119666949	878.799987792969
772.174329934546	875.599975585938
772.899449710347	879.400024414063
773.624479002248	881
774.349417818145	879.400024414063
775.074266165934	876.200012207031
775.799024053505	879.599975585938
776.523691488757	878.599975585938
777.248268479582	877
777.972755033877	881.400024414063
778.69715115953	878
779.421456864441	881
780.145672156493	878
780.869797043587	881.400024414063
781.593831533611	879.599975585938
782.317775634457	879.599975585938
783.041629354012	879.400024414063
783.765392700174	878.599975585938
784.489065680828	878.200012207031
785.212648303866	878
785.936140577177	878.400024414063
786.659542508652	877.200012207031
787.382854106174	876.400024414063
788.106075377639	878.799987792969
788.829206330928	877.799987792969
789.552246973933	881.599975585938
790.275197314542	881.599975585938
790.998057360638	880
791.720827120108	876.599975585938
792.443506600841	877.400024414063
793.166095810722	881
793.888594757635	878.200012207031
794.611003449465	876.799987792969
795.333321894098	880.599975585938
796.055550099417	877.599975585938
796.777688073308	878
797.499735823654	877
798.221693358334	878.200012207031
798.943560685235	877
799.665337812239	876.400024414063
800.387024747226	878.599975585938
801.108621498075	878.200012207031
801.830128072674	878.799987792969
802.551544478902	878.200012207031
803.272870724636	881
803.994106817761	879.200012207031
804.715252766148	879.799987792969
805.436308577687	878.799987792969
806.157274260251	879.599975585938
806.878149821721	880.200012207031
807.598935269973	880.200012207031
808.319630612886	882.200012207031
809.040235858336	882
809.760751014202	880.599975585938
810.481176088361	882.200012207031
811.201511088685	879.200012207031
811.921756023059	881.599975585938
812.641910899347	879
813.361975725432	879.200012207031
814.081950509188	878.599975585938
814.801835258489	877.599975585938
815.521629981206	877.799987792969
816.241334685218	877.599975585938
816.960949378392	878.599975585938
817.680474068606	879.599975585938
818.399908763731	878.200012207031
819.11925347164	878.599975585938
819.838508200202	877.200012207031
820.55767295729	877
821.276747750778	876.400024414063
821.995732588531	877
822.714627478425	875.599975585938
823.433432428327	877.799987792969
824.152147446105	878.599975585938
824.870772539632	879.200012207031
825.589307716775	879.400024414063
826.307752985404	878.200012207031
827.026108353378	878.599975585938
827.744373828579	878.200012207031
828.462549418867	878.799987792969
829.180635132107	881.799987792969
829.898630976168	880.799987792969
830.616536958915	879.799987792969
831.334353088218	878
832.052079371938	877.200012207031
832.769715817942	879.400024414063
833.487262434092	878.599975585938
834.204719228255	876.400024414063
834.922086208293	878.799987792969
835.639363382073	877
836.356550757456	875.799987792969
837.073648342304	879.200012207031
837.790656144484	877.400024414063
838.507574171847	879.200012207031
839.22440243227	877.200012207031
839.941140933601	881.200012207031
840.657789683706	878.200012207031
841.374348690448	877.799987792969
842.090817961686	876.799987792969
842.807197505276	879.599975585938
843.523487329083	878.200012207031
844.23968744096	880.400024414063
844.955797848771	880.599975585938
845.671818560374	875.599975585938
846.387749583622	879.200012207031
847.103590926378	876
847.819342596497	878.799987792969
848.535004601833	878.400024414063
849.25057695025	878.599975585938
849.966059649598	878.599975585938
850.681452707735	880.799987792969
851.396756132513	879.599975585938
852.111969931789	878.599975585938
852.827094113419	879.599975585938
853.542128685257	879
854.257073655158	878.200012207031
854.971929030969	881
855.686694820551	878.400024414063
856.40137103175	878.799987792969
857.115957672423	877.799987792969
857.830454750423	880.599975585938
858.544862273597	878.400024414063
859.259180249797	878.200012207031
859.97340868688	879.200012207031
860.687547592688	881.799987792969
861.401596975075	882.599975585938
862.115556841891	880.799987792969
862.829427200985	880.799987792969
863.543208060205	878.799987792969
864.256899427402	880.400024414063
864.970501310423	880.200012207031
865.684013717114	878.400024414063
866.397436655325	879.599975585938
867.110770132901	879.200012207031
867.824014157691	882
868.537168737542	878.400024414063
869.250233880299	881
869.963209593803	880.200012207031
870.676095885902	880.799987792969
871.388892764445	879.200012207031
872.101600237276	880.799987792969
872.814218312233	880
873.526746997165	879.799987792969
874.239186299914	881.400024414063
874.951536228323	879
875.663796790231	883.200012207031
876.375967993487	880.400024414063
877.088049845928	880.599975585938
877.8000423554	879.200012207031
878.511945529739	881.799987792969
879.22375937679	879.599975585938
879.935483904388	880
880.64711912038	878.799987792969
881.358665032604	880
882.070121648892	879.599975585938
882.78148897709	879.400024414063
883.492767025039	880.799987792969
884.203955800571	881.799987792969
884.915055311525	880.200012207031
885.626065565741	878.599975585938
886.336986571053	880.799987792969
887.047818335298	881.400024414063
887.758560866315	879.200012207031
888.469214171937	879.599975585938
889.179778260005	883.799987792969
889.890253138347	881.599975585938
890.600638814803	884
891.310935297204	879.200012207031
892.021142593385	882.799987792969
892.731260711183	882.599975585938
893.441289658429	880.599975585938
894.15122944295	882.400024414063
894.861080072591	883.799987792969
895.570841555173	881.200012207031
896.280513898534	881.400024414063
896.990097110503	884.400024414063
897.699591198913	882.200012207031
898.408996171595	881.200012207031
899.118312036375	882.400024414063
899.827538801089	883.599975585938
900.536676473561	880.799987792969
901.245725061628	881.599975585938
901.954684573109	882.599975585938
902.663555015838	882
903.372336397644	882
904.081028726351	880.400024414063
904.789632009793	882.599975585938
905.49814625579	882.599975585938
906.20657147217	880.599975585938
906.914907666765	881.400024414063
907.623154847391	883
908.331313021885	881.799987792969
909.039382198064	881.200012207031
909.747362383754	882.799987792969
910.455253586782	883.799987792969
911.163055814972	882.799987792969
911.870769076143	884
912.578393378126	879.799987792969
913.285928728738	881.799987792969
913.993375135802	880.599975585938
914.700732607145	879.200012207031
915.408001150579	882
916.115180773937	881.799987792969
916.822271485037	879.200012207031
917.529273291693	880.200012207031
918.236186201733	880.599975585938
918.943010222971	881
919.649745363234	879.799987792969
920.356391630333	879.599975585938
921.062949032096	882
921.769417576333	877.799987792969
922.475797270864	876.599975585938
923.182088123512	878.599975585938
923.888290142089	878.400024414063
924.594403334414	879.200012207031
925.300427708304	879.200012207031
926.006363271572	879
926.712210032039	879.400024414063
927.417967997522	877.200012207031
928.123637175827	880.400024414063
928.829217574776	880.400024414063
929.534709202184	879
930.240112065859	879.799987792969
930.945426173621	878
931.650651533283	879.400024414063
932.355788152653	879
933.060836039547	880.400024414063
933.765795201776	878.799987792969
934.470665647153	879.400024414063
935.175447383492	878.599975585938
935.880140418599	878.599975585938
936.584744760286	880.400024414063
937.289260416366	879.200012207031
937.993687394647	880.200012207031
938.698025702939	881.799987792969
939.402275349051	883.200012207031
940.106436340793	879.599975585938
940.810508685976	880.799987792969
941.5144923924	880
942.21838746788	882.400024414063
942.922193920223	879.799987792969
943.625911757231	881.200012207031
944.329540986716	881.200012207031
945.033081616484	879.599975585938
945.736533654334	879.799987792969
946.439897108083	881
947.143171985529	878.400024414063
947.846358294477	881.200012207031
948.549456042732	881.200012207031
949.2524652381	881.200012207031
949.955385888382	881.200012207031
950.658218001384	879.799987792969
951.360961584907	878.799987792969
952.063616646755	881
952.766183194733	880
953.468661236636	878.400024414063
954.171050780271	880.799987792969
954.873351833437	880.799987792969
955.575564403935	879.599975585938
956.277688499565	880.599975585938
956.97972412813	881
957.681671297424	877.799987792969
958.383530015255	880.400024414063
959.085300289414	881
959.786982127703	879.599975585938
960.488575537918	880
961.190080527859	877.799987792969
961.891497105327	879.400024414063
962.592825278111	879
963.294065054012	879
963.995216440829	880
964.696279446353	879.799987792969
965.397254078383	879.200012207031
966.098140344714	881.200012207031
966.798938253139	879.799987792969
967.499647811456	878.799987792969
968.200269027458	879.799987792969
968.900801908937	883
969.601246463685	877.400024414063
970.3016026995	880.799987792969
971.001870624169	878
971.702050245491	879.200012207031
972.402141571249	878.599975585938
973.102144609245	879.200012207031
973.802059367267	879.200012207031
974.501885853103	879.599975585938
975.201624074541	879.799987792969
975.901274039379	876.799987792969
976.600835755399	879.599975585938
977.3003092304	878
977.999694472158	880
978.698991488473	880.400024414063
979.39820028713	878.799987792969
980.097320875915	879.799987792969
980.796353262618	879.200012207031
981.495297455024	878.599975585938
982.194153460919	880.400024414063
982.892921288093	880.200012207031
983.591600944331	881.200012207031
984.290192437419	880.400024414063
984.98869577514	881.200012207031
985.687110965282	879
986.385438015629	878.599975585938
987.083676933961	879.799987792969
987.781827728069	878
988.479890405732	878.400024414063
989.177864974732	880
989.875751442857	877.599975585938
990.573549817888	880.200012207031
991.271260107602	879.799987792969
991.968882319786	877.799987792969
992.666416462217	877.400024414063
993.363862542681	879.400024414063
994.061220568959	879
994.758490548823	879.200012207031
995.455672490061	877.599975585938
996.152766400451	876.799987792969
996.849772287773	877.799987792969
997.5466901598	876.799987792969
998.243520024317	878.599975585938
998.940261889097	877.599975585938
999.636915761923	877.799987792969
1000.33348165057	878
1001.02995956281	878
1001.72634950643	878
1002.42265148919	879
1003.11886551889	879.799987792969
1003.81499160328	878.799987792969
1004.51102975015	879.799987792969
1005.20697996727	878.400024414063
1005.90284226242	879.799987792969
1006.59861664337	878
1007.2943031179	881.200012207031
1007.98990169377	878.400024414063
1008.68541237876	881.799987792969
1009.38083518064	881.400024414063
1010.07617010719	877.599975585938
1010.77141716617	880.400024414063
1011.46657636536	878.400024414063
1012.16164771253	878.599975585938
1012.85663121546	878.799987792969
1013.5515268819	878.799987792969
1014.24633471963	881
1014.94105473642	881.599975585938
1015.63568694004	877.599975585938
1016.33023133826	881.599975585938
1017.02468793885	879.599975585938
1017.71905674957	880.400024414063
1018.41333777819	878.400024414063
1019.10753103249	880.599975585938
1019.80163652022	878.200012207031
1020.49565424916	882.200012207031
1021.18958422707	881.400024414063
1021.88342646171	881.799987792969
1022.57718096085	882.599975585938
1023.27084773227	880
1023.96442678371	883.400024414063
1024.65791812296	880
1025.35132175776	882.400024414063
1026.04463769589	880.799987792969
1026.73786594511	880.799987792969
1027.43100651318	881.400024414063
1028.12405940786	880.799987792969
1028.81702463692	884.200012207031
1029.50990220812	885
1030.20269212921	885.400024414063
1030.89539440798	883
1031.58800905216	886
1032.28053606952	884
1032.97297546784	883.799987792969
1033.66532725485	882
1034.35759143832	885.799987792969
1035.04976802602	883.599975585938
1035.7418570257	884.599975585938
1036.43385844511	883.799987792969
1037.12577229202	883.799987792969
1037.81759857419	884.400024414063
1038.50933729937	885
1039.20098847531	884
1039.89255210978	884
1040.58402821053	883.200012207031
1041.27541678532	881.799987792969
1041.96671784191	881.799987792969
1042.65793138804	879.400024414063
1043.34905743147	880
1044.04009597996	882.400024414063
1044.73104704125	882.799987792969
1045.42191062312	881.599975585938
1046.1126867333	881.400024414063
1046.80337537955	878.799987792969
1047.49397656962	879.799987792969
1048.18449031127	881
1048.87491661225	878.200012207031
1049.5652554803	881.200012207031
1050.25550692319	883.400024414063
1050.94567094865	880
1051.63574756444	880.200012207031
1052.32573677832	879.799987792969
1053.01563859803	879.599975585938
1053.70545303131	879
1054.39518008592	879.200012207031
1055.08481976961	877.400024414063
1055.77437209013	882.200012207031
1056.46383705522	881.799987792969
1057.15321467262	880.799987792969
1057.8425049501	879.799987792969
1058.53170789539	880.400024414063
1059.22082351624	878
1059.9098518204	878.400024414063
1060.59879281561	878.200012207031
1061.28764650962	881.599975585938
1061.97641291016	879.799987792969
1062.665092025	883
1063.35368386187	879.599975585938
1064.04218842851	878
1064.73060573268	880.599975585938
1065.4189357821	881
1066.10717858452	880.799987792969
1066.7953341477	879
1067.48340247936	880.799987792969
1068.17138358725	881.400024414063
1068.85927747912	881
1069.5470841627	881.400024414063
1070.23480364573	880.599975585938
1070.92243593595	882.799987792969
1071.60998104111	881.599975585938
1072.29743896894	879
1072.98480972718	882.799987792969
1073.67209332357	880.400024414063
1074.35928976585	882.799987792969
1075.04639906176	883.799987792969
1075.73342121903	882.599975585938
1076.42035624541	880.799987792969
1077.10720414862	882.200012207031
1077.79396493641	882.200012207031
1078.48063861651	883.200012207031
1079.16722519666	882
1079.85372468459	880
1080.54013708804	880.200012207031
1081.22646241474	880.200012207031
1081.91270067243	879.200012207031
1082.59885186884	879
1083.28491601171	878.599975585938
1083.97089310877	880.799987792969
1084.65678316774	879.200012207031
1085.34258619637	878
1086.02830220239	881.799987792969
1086.71393119352	878.799987792969
1087.39947317751	879.200012207031
1088.08492816207	880.599975585938
1088.77029615495	881.799987792969
1089.45557716387	879.599975585938
1090.14077119656	881.200012207031
1090.82587826075	880.400024414063
1091.51089836417	882.200012207031
1092.19583151456	884.200012207031
1092.88067771963	880.799987792969
1093.56543698712	877
1094.25010932475	879.200012207031
1094.93469474026	878.200012207031
1095.61919324137	877.400024414063
1096.3036048358	879.599975585938
1096.98792953129	880.200012207031
1097.67216733555	878.400024414063
1098.35631825632	880
1099.04038230132	878.599975585938
1099.72435947828	879
1100.40824979492	879.200012207031
1101.09205325895	877.400024414063
1101.77576987812	877.599975585938
1102.45939966014	879
1103.14294261273	879.400024414063
1103.82639874362	878.799987792969
1104.50976806054	882.400024414063
1105.19305057119	879.400024414063
1105.87624628331	879
1106.55935520461	881.200012207031
1107.24237734283	881
1107.92531270566	881.400024414063
1108.60816130085	879.200012207031
1109.2909231361	879.799987792969
1109.97359821914	881.799987792969
1110.65618655768	880.599975585938
1111.33868815946	882.400024414063
1112.02110303217	880.599975585938
1112.70343118355	881.599975585938
1113.3856726213	881.599975585938
1114.06782735316	881.799987792969
1114.74989538683	882.200012207031
1115.43187673002	884
1116.11377139047	883.799987792969
1116.79557937588	882.799987792969
1117.47730069397	883.599975585938
1118.15893535245	884
1118.84048335904	883.599975585938
1119.52194472146	883.599975585938
1120.20331944741	884.599975585938
1120.88460754462	883.799987792969
1121.56580902079	886.200012207031
1122.24692388364	882.200012207031
1122.92795214088	886
1123.60889380022	883.200012207031
1124.28974886938	883.200012207031
1124.97051735606	884.400024414063
1125.65119926799	885.799987792969
1126.33179461286	884.799987792969
1127.0123033984	885.200012207031
1127.6927256323	885
1128.37306132229	886.400024414063
1129.05331047606	884.599975585938
1129.73347310134	885.400024414063
1130.41354920582	886.799987792969
1131.09353879722	882.200012207031
1131.77344188324	887.799987792969
1132.45325847159	882.200012207031
1133.13298856999	883
1133.81263218612	883.400024414063
1134.49218932772	883.799987792969
1135.17166000247	882.400024414063
1135.85104421809	883.400024414063
1136.53034198227	884
1137.20955330274	885
1137.88867818718	883.799987792969
1138.56771664331	885.200012207031
1139.24666867883	884
1139.92553430144	886.200012207031
1140.60431351885	884.599975585938
1141.28300633876	884.400024414063
1141.96161276887	885.599975585938
1142.64013281689	883
1143.31856649051	883.599975585938
1143.99691379744	884
1144.67517474538	883.799987792969
1145.35334934203	881.400024414063
1146.03143759509	881.200012207031
1146.70943951226	883.799987792969
1147.38735510125	882.599975585938
1148.06518436974	884.200012207031
1148.74292732545	884.799987792969
1149.42058397606	888
1150.09815432928	885
1150.7756383928	884.200012207031
1151.45303617432	886.799987792969
1152.13034768155	886.200012207031
1152.80757292217	888
1153.48471190389	886.799987792969
1154.16176463439	887.599975585938
1154.83873112138	881.599975585938
1155.51561137255	886.799987792969
1156.1924053956	885.599975585938
1156.86911319822	881.599975585938
1157.5457347881	885.400024414063
1158.22227017294	883
1158.89871936044	884.200012207031
1159.57508235828	885.599975585938
1160.25135917416	885.599975585938
1160.92754981578	884.200012207031
1161.60365429081	880.799987792969
1162.27967260697	883.400024414063
1162.95560477193	883.400024414063
1163.63145079339	882
1164.30721067904	885.599975585938
1164.98288443657	883.799987792969
1165.65847207367	884.400024414063
1166.33397359803	881.200012207031
1167.00938901735	883.599975585938
1167.6847183393	883.799987792969
1168.35996157157	886
1169.03511872187	882.599975585938
1169.71018979787	883.599975585938
1170.38517480726	882
1171.06007375773	883.599975585938
1171.73488665696	882.200012207031
1172.40961351265	879.799987792969
1173.08425433247	881.599975585938
1173.75880912412	881
1174.43327789528	884.200012207031
1175.10766065364	881.599975585938
1175.78195740687	883
1176.45616816267	883
1177.13029292871	884.200012207031
1177.80433171269	883
1178.47828452229	883.799987792969
1179.15215136518	883.400024414063
1179.82593224905	883
1180.49962718159	884
1181.17323617047	883.400024414063
1181.84675922337	883
1182.52019634799	883.799987792969
1183.193547552	884.200012207031
1183.86681284307	882.599975585938
1184.53999222889	882
1185.21308571714	882.799987792969
1185.8860933155	881.599975585938
1186.55901503165	880
1187.23185087326	882.200012207031
1187.90460084802	882.799987792969
1188.5772649636	883
1189.24984322768	881.200012207031
1189.92233564794	880
1190.59474223206	882.599975585938
1191.2670629877	884
1191.93929792255	881.400024414063
1192.61144704428	882
1193.28351036058	881.799987792969
1193.9554878791	884.799987792969
1194.62737960754	884.799987792969
1195.29918555356	881
1195.97090572483	883.400024414063
1196.64254012903	885.599975585938
1197.31408877384	881.599975585938
1197.98555166693	882.599975585938
1198.65692881596	886.200012207031
1199.32822022862	882.599975585938
1199.99942591256	882.599975585938
1200.67054587548	886
1201.34158012503	882
1202.01252866889	882.599975585938
1202.68339151473	882.200012207031
1203.35416867021	882.599975585938
1204.02486014301	882.799987792969
1204.6954659408	883.400024414063
1205.36598607124	881.799987792969
1206.03642054201	884.799987792969
1206.70676936078	884
1207.3770325352	882.799987792969
1208.04721007295	886
1208.7173019817	884.400024414063
1209.38730826911	885
1210.05722894285	884
1210.72706401059	884.200012207031
1211.39681347999	885.400024414063
1212.06647735872	884.599975585938
1212.73605565444	884.400024414063
1213.40554837481	887.200012207031
1214.07495552751	884
1214.74427712019	884.799987792969
1215.41351316052	886.200012207031
1216.08266365617	884.200012207031
1216.75172861479	887.200012207031
1217.42070804405	886
1218.0896019516	887.599975585938
1218.75841034513	887
1219.42713323227	885.599975585938
1220.0957706207	886.599975585938
1220.76432251808	888
1221.43278893207	889.400024414063
1222.10116987032	885.400024414063
1222.7694653405	886.799987792969
1223.43767535026	887.799987792969
1224.10579990727	890.400024414063
1224.77383901918	890.200012207031
1225.44179269366	885.799987792969
1226.10966093835	888.599975585938
1226.77744376093	885.599975585938
1227.44514116904	885.799987792969
1228.11275317034	888.400024414063
1228.78027977249	886.599975585938
1229.44772098315	887.400024414063
1230.11507680996	887.400024414063
1230.7823472606	885
1231.44953234271	888.799987792969
1232.11663206394	888.400024414063
1232.78364643195	886.200012207031
1233.4505754544	887
1234.11741913894	888.200012207031
1234.78417749322	888
1235.45085052489	885.200012207031
1236.11743824162	885.599975585938
1236.78394065104	885.799987792969
1237.45035776082	887.200012207031
1238.1166895786	884.599975585938
1238.78293611204	886
1239.44909736878	884.599975585938
1240.11517335648	887.200012207031
1240.78116408279	885.799987792969
1241.44706955535	885.599975585938
1242.11288978182	885.599975585938
1242.77862476985	885.400024414063
1243.44427452708	883.599975585938
1244.10983906116	887.200012207031
1244.77531837974	891.599975585938
1245.44071249047	887
1246.106021401	887.400024414063
1246.77124511898	888
1247.43638365204	888.400024414063
1248.10143700783	886.799987792969
1248.76640519401	887
1249.43128821822	889
1250.0960860881	885.799987792969
1250.76079881129	889
1251.42542639545	886.200012207031
1252.08996884822	888
1252.75442617723	887.200012207031
1253.41879839014	887.400024414063
1254.08308549458	885.400024414063
1254.74728749821	887.599975585938
1255.41140440866	886.400024414063
1256.07543623357	887
1256.73938298059	885.200012207031
1257.40324465735	887
1258.0670212715	886.799987792969
1258.73071283068	887
1259.39431934253	886
1260.05784081468	885.799987792969
1260.72127725479	884.599975585938
1261.38462867049	884.599975585938
1262.0478950694	885.200012207031
1262.71107645919	888.599975585938
1263.37417284748	884.599975585938
1264.03718424191	884.200012207031
1264.70011065011	883.200012207031
1265.36295207974	882.599975585938
1266.02570853841	883.200012207031
1266.68838003378	882.599975585938
1267.35096657346	883.799987792969
1268.01346816511	883.400024414063
1268.67588481636	884
1269.33821653483	885
1270.00046332817	883.799987792969
1270.66262520401	885.400024414063
1271.32470216998	884.799987792969
1271.98669423372	885.799987792969
1272.64860140285	886.200012207031
1273.31042368503	886
1273.97216108786	884.799987792969
1274.633813619	886.200012207031
1275.29538128606	888.200012207031
1275.95686409669	887.400024414063
1276.6182620585	885.799987792969
1277.27957517914	887.599975585938
1277.94080346624	886
1278.60194692741	888
1279.2630055703	888.799987792969
1279.92397940253	887.599975585938
1280.58486843173	886.200012207031
1281.24567266552	885.400024414063
1281.90639211155	886.799987792969
1282.56702677743	884.200012207031
1283.2275766708	887.200012207031
1283.88804179927	885.799987792969
1284.54842217049	886.200012207031
1285.20871779206	887.799987792969
1285.86892867163	886.799987792969
1286.52905481681	889.799987792969
1287.18909623523	887.799987792969
1287.84905293452	891
1288.5089249223	887.200012207031
1289.16871220619	890.200012207031
1289.82841479383	889.799987792969
1290.48803269282	887.400024414063
1291.1475659108	886.200012207031
1291.80701445539	886.400024414063
1292.46637833421	886
1293.12565755489	885
1293.78485212504	885.200012207031
1294.44396205229	890
1295.10298734425	888.799987792969
1295.76192800856	887.400024414063
1296.42078405283	884.799987792969
1297.07955548467	887.200012207031
1297.73824231171	885.599975585938
1298.39684454158	889.200012207031
1299.05536218188	889.400024414063
1299.71379524023	887.799987792969
1300.37214372427	887.599975585938
1301.03040764159	885
1301.68858699983	889.799987792969
1302.34668180659	884
1303.0046920695	888.799987792969
1303.66261779617	889.200012207031
1304.32045899422	886.799987792969
1304.97821567126	888.799987792969
1305.63588783492	887.400024414063
1306.29347549279	889.200012207031
1306.95097865251	890.799987792969
1307.60839732168	886.400024414063
1308.26573150791	890
1308.92298121883	890.400024414063
1309.58014646204	888.799987792969
1310.23722724517	891.599975585938
1310.89422357581	888.799987792969
1311.55113546158	890.599975585938
1312.2079629101	889.400024414063
1312.86470592898	888.799987792969
1313.52136452582	889.200012207031
1314.17793870824	889
1314.83442848386	891.200012207031
1315.49083386027	891.200012207031
1316.14715484509	890.400024414063
1316.80339144594	891
1317.45954367041	892
1318.11561152611	891.799987792969
1318.77159502067	891.599975585938
1319.42749416168	892.200012207031
1320.08330895674	890.599975585938
1320.73903941348	889.799987792969
1321.3946855395	891.599975585938
1322.0502473424	891.599975585938
1322.70572482978	889.400024414063
1323.36111800926	891.799987792969
1324.01642688845	893.400024414063
1324.67165147494	892.799987792969
1325.32679177634	895.599975585938
1325.98184780025	892.400024414063
1326.63681955429	889
1327.29170704605	891.400024414063
1327.94651028314	892.799987792969
1328.60122927316	891
1329.25586402371	892.799987792969
1329.9104145424	889
1330.56488083683	892.200012207031
1331.2192629146	887.200012207031
1331.87356078331	890.200012207031
1332.52777445056	892.799987792969
1333.18190392395	890.799987792969
1333.83594921109	889.400024414063
1334.48991031958	890.599975585938
1335.143787257	891
1335.79758003097	889.599975585938
1336.45128864908	887.400024414063
1337.10491311893	889.799987792969
1337.75845344813	892
1338.41190964425	890.799987792969
1339.06528171491	891.599975585938
1339.71856966771	891.400024414063
1340.37177351023	889.200012207031
1341.02489325007	891.599975585938
1341.67792889484	890.400024414063
1342.33088045212	889.799987792969
1342.98374792952	892.400024414063
1343.63653133462	890.400024414063
1344.28923067503	890.400024414063
1344.94184595833	893
1345.59437719212	890.799987792969
1346.246824384	890.200012207031
1346.89918754155	893.599975585938
1347.55146667238	889.200012207031
1348.20366178407	892.799987792969
1348.85577288421	891.400024414063
1349.50779998041	892
1350.15974308024	891.400024414063
1350.8116021913	888.200012207031
1351.46337732119	890
1352.11506847748	889.200012207031
1352.76667566778	893.200012207031
1353.41819889967	890.799987792969
1354.06963818074	890.799987792969
1354.72099351858	890
1355.37226492079	893.400024414063
1356.02345239494	889.599975585938
1356.67455594862	889.799987792969
1357.32557558943	889.200012207031
1357.97651132496	892.400024414063
1358.62736316277	891.200012207031
1359.27813111048	891.799987792969
1359.92881517565	891.200012207031
1360.57941536589	894.200012207031
1361.22993168876	893.599975585938
1361.88036415186	893.400024414063
1362.53071276278	891.200012207031
1363.1809775291	891.599975585938
1363.8311584584	892.400024414063
1364.48125555826	891.799987792969
1365.13126883627	890.200012207031
1365.78119830001	889.599975585938
1366.43104395707	888.599975585938
1367.08080581503	890.799987792969
1367.73048388147	889.400024414063
1368.38007816397	892.799987792969
1369.02958867011	891.400024414063
1369.67901540748	892.799987792969
1370.32835838365	891
1370.9776176062	892.799987792969
1371.62679308273	891.200012207031
1372.27588482079	888.599975585938
1372.92489282798	890.400024414063
1373.57381711188	892.400024414063
1374.22265768006	891.200012207031
1374.87141454009	888.200012207031
1375.52008769957	891.200012207031
1376.16867716606	893.400024414063
1376.81718294715	895.599975585938
1377.4656050504	892.400024414063
1378.1139434834	896.200012207031
1378.76219825373	894.799987792969
1379.41036936895	893.400024414063
1380.05845683664	895.200012207031
1380.70646066439	895
1381.35438085976	893.799987792969
1382.00221743032	894
1382.64997038366	895.599975585938
1383.29763972735	898.400024414063
1383.94522546895	899.400024414063
1384.59272761605	895.200012207031
1385.24014617621	896
1385.88748115701	898.400024414063
1386.53473256602	897
1387.18190041081	896
1387.82898469895	895.200012207031
1388.47598543802	896.200012207031
1389.12290263558	894.599975585938
1389.7697362992	896
1390.41648643646	896.400024414063
1391.06315305492	894.599975585938
1391.70973616215	898.599975585938
1392.35623576573	896.200012207031
1393.00265187321	895.799987792969
1393.64898449217	898.400024414063
1394.29523363018	896.799987792969
1394.94139929481	900.400024414063
1395.58748149361	899
1396.23348023415	895.799987792969
1396.87939552402	896.200012207031
1397.52522737076	896
1398.17097578195	894.799987792969
1398.81664076514	894.799987792969
1399.46222232792	895.200012207031
1400.10772047783	894.599975585938
1400.75313522245	894.400024414063
1401.39846656934	893.799987792969
1402.04371452605	896.400024414063
1402.68887910016	896.400024414063
1403.33396029924	894.400024414063
1403.97895813083	894.799987792969
1404.6238726025	895
1405.26870372182	897.599975585938
1405.91345149634	894.200012207031
1406.55811593363	895
1407.20269704125	893.799987792969
1407.84719482676	893.599975585938
1408.49160929772	896
1409.13594046168	895.599975585938
1409.78018832622	894
1410.42435289887	895.200012207031
1411.06843418722	895.599975585938
1411.7124321988	895.799987792969
1412.3563469412	898
1413.00017842194	898.599975585938
1413.64392664861	897.200012207031
1414.28759162875	898.200012207031
1414.93117336992	897.400024414063
1415.57467187967	897.200012207031
1416.21808716557	894.400024414063
1416.86141923516	896.599975585938
1417.50466809601	894.599975585938
1418.14783375567	896
1418.79091622169	899.400024414063
1419.43391550162	902
1420.07683160303	899
1420.71966453346	900.599975585938
1421.36241430046	898.200012207031
1422.0050809116	903.400024414063
1422.64766437442	899.400024414063
1423.29016469647	900.799987792969
1423.93258188531	904
1424.57491594848	904.200012207031
1425.21716689354	906.400024414063
1425.85933472805	905.200012207031
1426.50141945954	902.799987792969
1427.14342109557	903.400024414063
1427.78533964369	903.599975585938
1428.42717511144	905.200012207031
1429.06892750639	907.799987792969
1429.71059683607	904
1430.35218310803	905.599975585938
1430.99368632983	904.599975585938
1431.635106509	906.400024414063
1432.2764436531	906.799987792969
1432.91769776967	905
1433.55886886627	904.799987792969
1434.19995695043	905.200012207031
1434.84096202969	906.200012207031
1435.48188411162	906
1436.12272320375	906
1436.76347931363	905.799987792969
1437.40415244879	905.400024414063
1438.0447426168	903.799987792969
1438.68524982518	907
1439.32567408148	906.599975585938
1439.96601539325	904.200012207031
1440.60627376803	903
1441.24644921336	904.599975585938
1441.88654173678	904.599975585938
1442.52655134583	903.599975585938
1443.16647804806	902.599975585938
1443.806321851	903.599975585938
1444.4460827622	903.599975585938
1445.0857607892	904.799987792969
1445.72535593953	904
1446.36486822074	902.400024414063
1447.00429764037	904.799987792969
1447.64364420595	904.400024414063
1448.28290792502	904.400024414063
1448.92208880512	901.599975585938
1449.56118685379	901.599975585938
1450.20020207857	904
1450.83913448699	903.599975585938
1451.47798408659	904.599975585938
1452.1167508849	904.400024414063
1452.75543488947	907
1453.39403610782	902.599975585938
1454.0325545475	902.599975585938
1454.67099021603	898.200012207031
1455.30934312097	901.599975585938
1455.94761326982	899.200012207031
1456.58580067014	900
1457.22390532945	900.799987792969
1457.86192725529	902.200012207031
1458.49986645519	898.200012207031
1459.13772293668	901.599975585938
1459.7754967073	898.599975585938
1460.41318777457	897.799987792969
1461.05079614604	895.599975585938
1461.68832182922	897.799987792969
1462.32576483166	897.599975585938
1462.96312516087	899.599975585938
1463.6004028244	895.599975585938
1464.23759782977	898.599975585938
1464.8747101845	898.400024414063
1465.51173989614	898.400024414063
1466.14868697221	896.599975585938
1466.78555142024	898.200012207031
1467.42233324774	897.799987792969
1468.05903246227	896.400024414063
1468.69564907133	894.400024414063
1469.33218308246	893.400024414063
1469.96863450317	895.400024414063
1470.60500334102	895.799987792969
1471.2412896035	897.799987792969
1471.87749329816	902
1472.51361443251	893.799987792969
1473.14965301409	894.799987792969
1473.78560905041	896.799987792969
1474.421482549	896.799987792969
1475.05727351739	894.599975585938
1475.69298196309	898.799987792969
1476.32860789364	895.200012207031
1476.96415131654	895
1477.59961223934	894.400024414063
1478.23499066954	894.400024414063
1478.87028661467	896
1479.50550008226	897.400024414063
1480.14063107981	894.599975585938
1480.77567961486	894.200012207031
1481.41064569492	894
1482.04552932752	892.400024414063
1482.68033052017	893.400024414063
1483.31504928039	896.799987792969
1483.9496856157	894.200012207031
1484.58423953363	894.200012207031
1485.21871104168	896.200012207031
1485.85310014738	897.200012207031
1486.48740685824	898
1487.12163118178	894.599975585938
1487.75577312553	894.400024414063
1488.38983269698	894.200012207031
1489.02380990367	891
1489.65770475311	895.400024414063
1490.29151725281	892.599975585938
1490.92524741029	894.200012207031
1491.55889523306	893.599975585938
1492.19246072863	891.400024414063
1492.82594390453	895
1493.45934476826	894.400024414063
1494.09266332734	893.400024414063
1494.72589958928	893.599975585938
1495.3590535616	897.599975585938
1495.99212525181	894.200012207031
1496.62511466741	894
1497.25802181592	892.400024414063
1497.89084670485	892.799987792969
1498.52358934172	892.200012207031
1499.15624973403	895.799987792969
1499.7888278893	894.599975585938
1500.42132381503	894.200012207031
1501.05373751873	894.599975585938
1501.68606900792	895.599975585938
1502.31831829009	893.400024414063
1502.95048537277	895.599975585938
1503.58257026346	892.200012207031
1504.21457296966	893.400024414063
1504.84649349889	893
1505.47833185864	894.200012207031
1506.11008805644	894
1506.74176209978	894.400024414063
1507.37335399617	893.599975585938
1508.00486375312	891
1508.63629137813	892.599975585938
1509.2676368787	891.599975585938
1509.89890026235	894.799987792969
1510.53008153658	892.599975585938
1511.16118070889	892.599975585938
1511.79219778677	891.599975585938
1512.42313277775	895.400024414063
1513.05398568932	891
1513.68475652898	892.200012207031
1514.31544530424	891
1514.9460520226	892.200012207031
1515.57657669155	890.400024414063
1516.20701931861	891.200012207031
1516.83737991127	891.799987792969
1517.46765847702	890
1518.09785502339	892
1518.72796955785	891.400024414063
1519.35800208792	892
1519.98795262109	893.799987792969
1520.61782116486	892.200012207031
1521.24760772673	891.200012207031
1521.87731231419	891
1522.50693493475	892.799987792969
1523.1364755959	893.400024414063
1523.76593430514	890.599975585938
1524.39531106997	890.200012207031
1525.02460589788	890.799987792969
1525.65381879637	889.799987792969
1526.28294977293	891.599975585938
1526.91199883507	888.599975585938
1527.54096599027	888.599975585938
1528.16985124603	886.799987792969
1528.79865460984	888.799987792969
1529.4273760892	888.599975585938
1530.05601569161	886.400024414063
1530.68457342455	886.200012207031
1531.31304929552	888.200012207031
1531.94144331201	888.799987792969
1532.56975548151	887.599975585938
1533.19798581152	889.599975585938
1533.82613430953	887.599975585938
1534.45420098302	885.200012207031
1535.08218583949	886.400024414063
1535.71008888643	888.200012207031
1536.33791013134	887
1536.96564958169	885.200012207031
1537.59330724498	884.200012207031
1538.22088312871	885.400024414063
1538.84837724034	884.799987792969
1539.47578958739	885.799987792969
1540.10312017733	886.599975585938
1540.73036901765	885.200012207031
1541.35753611584	887
1541.98462147939	885.200012207031
1542.61162511578	886
1543.2385470325	884.799987792969
1543.86538723704	886
1544.49214573688	884
1545.11882253951	884.799987792969
1545.74541765241	889.599975585938
1546.37193108306	887
1546.99836283896	888.599975585938
1547.62471292758	887
1548.25098135641	886.599975585938
1548.87716813294	885.799987792969
1549.50327326464	886.400024414063
1550.12929675899	884.599975585938
1550.75523862349	883.799987792969
1551.38109886561	884.599975585938
1552.00687749284	887.799987792969
1552.63257451264	884.799987792969
1553.25818993252	885.200012207031
1553.88372375994	886.400024414063
1554.50917600239	887.200012207031
1555.13454666734	886
1555.75983576228	885.400024414063
1556.38504329469	885.599975585938
1557.01016927204	883.599975585938
1557.63521370181	885.799987792969
1558.26017659149	883.200012207031
1558.88505794854	885.200012207031
1559.50985778045	886.799987792969
1560.13457609469	886.599975585938
1560.75921289874	883.799987792969
1561.38376820008	884.799987792969
1562.00824200618	882.200012207031
1562.63263432452	882.599975585938
1563.25694516257	885.200012207031
1563.88117452781	884.799987792969
1564.50532242772	884.599975585938
1565.12938886976	882.200012207031
1565.75337386141	885.200012207031
1566.37727741015	886.599975585938
1567.00109952345	885
1567.62484020878	884.200012207031
1568.24849947361	883
1568.87207732542	885.400024414063
1569.49557377168	882.799987792969
1570.11898881986	884.200012207031
1570.74232247743	884.799987792969
1571.36557475186	886.400024414063
1571.98874565062	886.599975585938
1572.61183518119	886.200012207031
1573.23484335103	887.200012207031
1573.85777016761	886.200012207031
1574.4806156384	886.400024414063
1575.10337977088	887.599975585938
1575.7260625725	886.799987792969
1576.34866405074	886.799987792969
1576.97118421306	887
1577.59362306694	887.599975585938
1578.21598061984	884.400024414063
1578.83825687922	887
1579.46045185255	887.200012207031
1580.08256554731	888
1580.70459797094	884.799987792969
1581.32654913093	887.599975585938
1581.94841903473	885.799987792969
1582.57020768981	884.599975585938
1583.19191510364	886.599975585938
1583.81354128367	886.200012207031
1584.43508623737	885
1585.05654997221	886.400024414063
1585.67793249564	886.799987792969
1586.29923381514	886.400024414063
1586.92045393815	885.799987792969
1587.54159287216	887.599975585938
1588.1626506246	888.799987792969
1588.78362720296	885.799987792969
1589.40452261468	888
1590.02533686724	884.599975585938
1590.64606996808	888
1591.26672192467	885.400024414063
1591.88729274447	885
1592.50778243493	885.599975585938
1593.12819100352	888.200012207031
1593.7485184577	885.799987792969
1594.36876480492	887
1594.98893005264	885.599975585938
1595.60901420832	887
1596.22901727941	883.799987792969
1596.84893927338	885
1597.46878019767	888.599975585938
1598.08854005975	885.599975585938
1598.70821886707	888.799987792969
1599.32781662708	888
1599.94733334725	886.400024414063
1600.56676903502	887.200012207031
1601.18612369785	887.200012207031
1601.8053973432	888
1602.42458997851	888.200012207031
1603.04370161124	885.200012207031
1603.66273224884	888.799987792969
1604.28168189878	888.200012207031
1604.90055056849	890.200012207031
1605.51933826543	887.400024414063
1606.13804499705	889
1606.75667077081	889.599975585938
1607.37521559415	887.799987792969
1607.99367947452	889
1608.61206241938	888.200012207031
1609.23036443618	892.200012207031
1609.84858553236	889
1610.46672571537	891.200012207031
1611.08478499267	893
1611.7027633717	895.799987792969
1612.3206608599	892.400024414063
1612.93847746473	893.799987792969
1613.55621319364	896
1614.17386805407	896.200012207031
1614.79144205347	895
1615.40893519928	895.599975585938
1616.02634749895	896.799987792969
1616.64367895993	896.200012207031
1617.26092958966	897.799987792969
1617.87809939559	898.599975585938
1618.49518838516	901.400024414063
1619.11219656582	902.599975585938
1619.729123945	901.599975585938
1620.34597053016	902
1620.96273632874	907.200012207031
1621.57942134818	905.799987792969
1622.19602559592	909.200012207031
1622.8125490794	906.400024414063
1623.42899180607	907.599975585938
1624.04535378337	907.599975585938
1624.66163501874	910.799987792969
1625.27783551963	909
1625.89395529346	906
1626.50999434768	908.599975585938
1627.12595268974	904.599975585938
1627.74183032707	902.599975585938
1628.3576272671	903
1628.97334351729	905.200012207031
1629.58897908506	898.200012207031
1630.20453397786	900.200012207031
1630.82000820313	897.799987792969
1631.43540176829	894
1632.05071468079	893.400024414063
1632.66594694807	890.799987792969
1633.28109857756	890.200012207031
1633.8961695767	890
1634.51115995292	887
1635.12606971366	886.799987792969
1635.74089886636	885.799987792969
1636.35564741844	885.599975585938
1636.97031537734	884.599975585938
1637.58490275051	883.599975585938
1638.19940954536	883
1638.81383576934	880.599975585938
1639.42818142987	880.799987792969
1640.0424465344	883
1640.65663109034	881.799987792969
1641.27073510515	881.799987792969
1641.88475858623	880.200012207031
1642.49870154104	878.599975585938
1643.11256397699	879.400024414063
1643.72634590152	877
1644.34004732206	877.599975585938
1644.95366824604	878.400024414063
1645.56720868089	877.400024414063
1646.18066863404	875.599975585938
1646.79404811291	877
1647.40734712494	877.400024414063
1648.02056567755	877.200012207031
1648.63370377817	876.200012207031
1649.24676143423	878.799987792969
1649.85973865316	877.599975585938
1650.47263544238	876.799987792969
1651.08545180932	878
1651.6981877614	873.799987792969
1652.31084330606	878
1652.92341845071	875.799987792969
1653.53591320278	874
1654.1483275697	875.400024414063
1654.7606615589	877
1655.37291517778	874
1655.98508843379	874.799987792969
1656.59718133434	876
1657.20919388685	874.799987792969
1657.82112609875	877.200012207031
1658.43297797747	875.799987792969
1659.04474953041	875.400024414063
1659.65644076501	876
1660.26805168869	875.599975585938
1660.87958230886	878.400024414063
1661.49103263294	876.200012207031
1662.10240266837	876
1662.71369242255	875.200012207031
1663.32490190291	874.200012207031
1663.93603111687	875.200012207031
1664.54708007184	874.200012207031
1665.15804877524	873.200012207031
1665.7689372345	874
1666.37974545703	874.799987792969
1666.99047345024	875.799987792969
1667.60112122156	875.200012207031
1668.2116887784	871.599975585938
1668.82217612818	873.400024414063
1669.43258327831	871.799987792969
1670.04291023622	873.799987792969
1670.65315700931	874
1671.263323605	872.400024414063
1671.8734100307	874.200012207031
1672.48341629384	871.599975585938
1673.09334240182	874.400024414063
1673.70318836206	874.799987792969
1674.31295418197	873.200012207031
1674.92263986896	872.799987792969
1675.53224543046	874.200012207031
1676.14177087386	871.400024414063
1676.75121620658	873.400024414063
1677.36058143604	874.200012207031
1677.96986656964	874.599975585938
1678.5790716148	873.400024414063
1679.18819657892	871.599975585938
1679.79724146943	871.599975585938
1680.40620629372	871.599975585938
1681.0150910592	875
1681.6238957733	874.599975585938
1682.23262044341	872.599975585938
1682.84126507694	874
1683.4498296813	871.200012207031
1684.0583142639	872
1684.66671883216	874.200012207031
1685.27504339346	873.200012207031
1685.88328795523	871.200012207031
1686.49145252487	872.400024414063
1687.09953710978	872.200012207031
1687.70754171737	871
1688.31546635505	872.599975585938
1688.92331103021	874.599975585938
1689.53107575028	872
1690.13876052265	871.599975585938
1690.74636535472	871
1691.3538902539	871
1691.96133522759	871.799987792969
1692.5687002832	871.200012207031
1693.17598542812	870.599975585938
1693.78319066977	870.799987792969
1694.39031601554	872
1694.99736147283	873
1695.60432704905	872.799987792969
1696.2112127516	874
1696.81801858788	874.400024414063
1697.42474456528	872.799987792969
1698.03139069121	873.400024414063
1698.63795697307	873.400024414063
1699.24444341826	873.799987792969
1699.85085003417	872.799987792969
1700.45717682821	873.599975585938
1701.06342380778	874.400024414063
1701.66959098026	872
1702.27567835307	871
1702.88168593359	870.799987792969
1703.48761372922	872.599975585938
1704.09346174737	870.200012207031
1704.69922999542	869.799987792969
1705.30491848077	869.799987792969
1705.91052721083	870.200012207031
1706.51605619297	871.799987792969
1707.12150543461	871
1707.72687494312	871.799987792969
1708.33216472592	868.799987792969
1708.93737479039	870.799987792969
1709.54250514392	869.599975585938
