634.977642221345	864.200012207031
635.719821695905	866
636.461909203392	867.200012207031
637.203904751776	865.799987792969
637.945808349023	866.200012207031
638.687620003102	865.799987792969
639.42933972198	865.799987792969
640.170967513616	865.200012207031
640.912503385981	866
641.653947347041	865.200012207031
642.395299404758	866.799987792969
643.13655956709	866.599975585938
643.877727842014	865.599975585938
644.61880423748	865.599975585938
645.359788761455	866.200012207031
646.100681421905	866.200012207031
646.841482226789	865.799987792969
647.582191184074	866.599975585938
648.322808301711	866
649.06333358767	867.599975585938
649.803767049909	866.599975585938
650.544108696385	865.799987792969
651.28435853506	865.799987792969
652.024516573894	865.599975585938
652.764582820849	867.799987792969
653.504557283875	866.400024414063
654.244439970937	866
654.984230889991	865.400024414063
655.723930048995	865.200012207031
656.463537455909	866.799987792969
657.203053118683	864.799987792969
657.942477045275	866.400024414063
658.681809243647	866
659.421049721747	865.799987792969
660.160198487535	866.799987792969
660.899255548962	866
661.638220913985	867
662.377094590559	867.799987792969
663.115876586631	865.400024414063
663.854566910165	868.400024414063
664.593165569107	867.200012207031
665.331672571406	868.400024414063
666.07008792502	868
666.808411637902	866.400024414063
667.546643717996	867.799987792969
668.284784173258	866.599975585938
669.022833011641	869.400024414063
669.760790241089	866.599975585938
670.498655869554	867.200012207031
671.236429904987	868
671.97411235534	867.599975585938
672.711703228551	866.799987792969
673.449202532577	868.599975585938
674.186610275364	867
674.923926464857	867.400024414063
675.661151109008	869.200012207031
676.398284215759	868.200012207031
677.135325793058	868
677.87227584885	868
678.609134391082	869.799987792969
679.345901427696	868.599975585938
680.082576966644	866.200012207031
680.819161015861	867.400024414063
681.555653583298	866.200012207031
682.292054676895	867.400024414063
683.028364304594	867.200012207031
683.764582474344	867.400024414063
684.500709194083	866.799987792969
685.236744471752	867.799987792969
685.972688315294	867.400024414063
686.708540732652	868.200012207031
687.444301731762	866.599975585938
688.179971320572	865
688.915549507013	867
689.651036299034	866.400024414063
690.386431704569	866.200012207031
691.121735731559	867
691.85694838794	868.200012207031
692.592069681652	867.200012207031
693.327099620632	866.599975585938
694.062038212821	865.200012207031
694.796885466149	866
695.531641388561	867.599975585938
696.266305987987	866.200012207031
697.000879272367	866.200012207031
697.735361249632	865.400024414063
698.469751927722	866.799987792969
699.204051314568	867.200012207031
699.938259418107	867.599975585938
700.672376246272	865.799987792969
701.406401806997	866.799987792969
702.140336108212	867.200012207031
702.874179157855	866.799987792969
703.607930963856	867
704.341591534147	865.599975585938
705.07516087666	866.200012207031
705.808638999324	865.799987792969
706.542025910073	865.599975585938
707.275321616841	866.599975585938
708.008526127549	866.200012207031
708.741639450132	865.799987792969
709.474661592521	864.599975585938
710.207592562641	866
710.940432368424	865.799987792969
711.673181017796	865.799987792969
712.405838518687	867
713.138404879025	868.400024414063
713.870880106731	866.599975585938
714.603264209738	866.400024414063
715.335557195971	864.599975585938
716.067759073357	866.200012207031
716.799869849816	866.400024414063
717.531889533281	866
718.263818131673	865.799987792969
718.995655652917	867
719.727402104934	867.200012207031
720.45905749565	866.599975585938
721.19062183299	866.599975585938
721.922095124877	866.799987792969
722.653477379231	866.400024414063
723.384768603973	868
724.11596880703	866.400024414063
724.847077996319	866.599975585938
725.578096179762	865.599975585938
726.309023365281	866.799987792969
727.039859560792	867.599975585938
727.770604774222	866.599975585938
728.501259013484	867.400024414063
729.231822286501	866.799987792969
729.962294601191	866.599975585938
730.692675965469	867.200012207031
731.42296638726	866
732.153165874472	866.400024414063
732.883274435032	867.200012207031
733.613292076851	866.799987792969
734.343218807843	864.799987792969
735.07305463593	866.200012207031
735.802799569028	864.799987792969
736.532453615048	868
737.262016781904	867
737.991489077517	866.599975585938
738.720870509794	867
739.450161086654	866.799987792969
740.179360816009	865.799987792969
740.908469705772	865.200012207031
741.637487763854	865
742.366414998168	866
743.095251416623	866.200012207031
743.823997027137	868
744.552651837618	863.799987792969
745.281215855978	867
746.009689090124	866.799987792969
746.738071547964	865.200012207031
747.466363237419	866
748.194564166384	865
748.92267434278	865.200012207031
749.650693774504	867.599975585938
750.378622469476	865.200012207031
751.106460435596	866
751.834207680771	866.200012207031
752.561864212909	866.400024414063
753.289430039919	868.200012207031
754.016905169707	867.400024414063
754.744289610175	867.400024414063
755.471583369231	865
756.198786454782	864
756.925898874728	867.200012207031
757.652920636979	865.599975585938
758.379851749433	866
759.106692219996	865.400024414063
759.833442056572	865.599975585938
760.560101267063	866.599975585938
761.28666985937	866.400024414063
762.0131478414	866.200012207031
762.739535221046	866.599975585938
763.465832006219	867.200012207031
764.192038204812	866.599975585938
764.918153824731	865.799987792969
765.644178873872	866.599975585938
766.370113360138	867.799987792969
767.095957291425	867.200012207031
767.821710675635	867.599975585938
768.547373520665	867.200012207031
769.272945834415	867.799987792969
769.998427624781	866.799987792969
770.723818899658	868.400024414063
771.449119666949	866.799987792969
772.174329934546	869
772.899449710347	869
773.624479002248	868.799987792969
774.349417818145	868.599975585938
775.074266165934	868.599975585938
775.799024053505	866.799987792969
776.523691488757	867.400024414063
777.248268479582	867
777.972755033877	867
778.69715115953	868
779.421456864441	867.400024414063
780.145672156493	866.599975585938
780.869797043587	867.799987792969
781.593831533611	867.599975585938
782.317775634457	867.200012207031
783.041629354012	866.400024414063
783.765392700174	868
784.489065680828	864.400024414063
785.212648303866	866.799987792969
785.936140577177	866.799987792969
786.659542508652	866.400024414063
787.382854106174	866.799987792969
788.106075377639	867.599975585938
788.829206330928	867.599975585938
789.552246973933	867.200012207031
790.275197314542	865.400024414063
790.998057360638	867.200012207031
791.720827120108	868.200012207031
792.443506600841	866.599975585938
793.166095810722	867
793.888594757635	866.400024414063
794.611003449465	866.799987792969
795.333321894098	867.799987792969
796.055550099417	867
796.777688073308	866.799987792969
797.499735823654	869
798.221693358334	867.599975585938
798.943560685235	868
799.665337812239	869.799987792969
800.387024747226	868.799987792969
801.108621498075	867.599975585938
801.830128072674	867.400024414063
802.551544478902	867.200012207031
803.272870724636	867.599975585938
803.994106817761	868.799987792969
804.715252766148	867
805.436308577687	865.599975585938
806.157274260251	866
806.878149821721	867.599975585938
807.598935269973	867.599975585938
808.319630612886	868
809.040235858336	867.799987792969
809.760751014202	867.599975585938
810.481176088361	867.400024414063
811.201511088685	867
811.921756023059	867.200012207031
812.641910899347	866.799987792969
813.361975725432	865.599975585938
814.081950509188	866
814.801835258489	867
815.521629981206	868
816.241334685218	866.400024414063
816.960949378392	867.400024414063
817.680474068606	865.599975585938
818.399908763731	867
819.11925347164	867.200012207031
819.838508200202	866.200012207031
820.55767295729	866.200012207031
821.276747750778	866.799987792969
821.995732588531	867
822.714627478425	866.799987792969
823.433432428327	866.400024414063
824.152147446105	867.599975585938
824.870772539632	866.799987792969
825.589307716775	867.799987792969
826.307752985404	868.799987792969
827.026108353378	869
827.744373828579	868
828.462549418867	867
829.180635132107	866
829.898630976168	866.200012207031
830.616536958915	867.599975585938
831.334353088218	867.200012207031
832.052079371938	868.200012207031
832.769715817942	868.400024414063
833.487262434092	866
834.204719228255	867.400024414063
834.922086208293	866.799987792969
835.639363382073	866
836.356550757456	867.400024414063
837.073648342304	866.400024414063
837.790656144484	866.799987792969
838.507574171847	867
839.22440243227	867
839.941140933601	866.599975585938
840.657789683706	867.599975585938
841.374348690448	866.599975585938
842.090817961686	866.400024414063
842.807197505276	867.200012207031
843.523487329083	865.799987792969
844.23968744096	866
844.955797848771	866.400024414063
845.671818560374	867.400024414063
846.387749583622	867
847.103590926378	867.400024414063
847.819342596497	865.400024414063
848.535004601833	867.200012207031
849.25057695025	867.599975585938
849.966059649598	866.200012207031
850.681452707735	865.400024414063
851.396756132513	867.400024414063
852.111969931789	867.599975585938
852.827094113419	867.400024414063
853.542128685257	868
854.257073655158	868.599975585938
854.971929030969	867.599975585938
855.686694820551	867
856.40137103175	868.200012207031
857.115957672423	866.599975585938
857.830454750423	869.200012207031
858.544862273597	868.400024414063
859.259180249797	867.599975585938
859.97340868688	868.799987792969
860.687547592688	868.200012207031
861.401596975075	867.799987792969
862.115556841891	867
862.829427200985	865
863.543208060205	868.599975585938
864.256899427402	868.599975585938
864.970501310423	868
865.684013717114	867.400024414063
866.397436655325	868.200012207031
867.110770132901	867.400024414063
867.824014157691	867.400024414063
868.537168737542	867.400024414063
869.250233880299	868.400024414063
869.963209593803	868
870.676095885902	867.599975585938
871.388892764445	868.400024414063
872.101600237276	868
872.814218312233	868.799987792969
873.526746997165	867.599975585938
874.239186299914	868.200012207031
874.951536228323	869
875.663796790231	869.200012207031
876.375967993487	869.400024414063
877.088049845928	868.799987792969
877.8000423554	866.799987792969
878.511945529739	867.400024414063
879.22375937679	868.400024414063
879.935483904388	868.400024414063
880.64711912038	867.200012207031
881.358665032604	868.200012207031
882.070121648892	869.799987792969
882.78148897709	869
883.492767025039	868.400024414063
884.203955800571	868
884.915055311525	869.400024414063
885.626065565741	867.599975585938
886.336986571053	868.200012207031
887.047818335298	867.599975585938
887.758560866315	868.200012207031
888.469214171937	870.400024414063
889.179778260005	869.400024414063
889.890253138347	869.400024414063
890.600638814803	870.200012207031
891.310935297204	868.400024414063
892.021142593385	870
892.731260711183	869.799987792969
893.441289658429	867.799987792969
894.15122944295	869.400024414063
894.861080072591	869.400024414063
895.570841555173	870.799987792969
896.280513898534	868.599975585938
896.990097110503	870.599975585938
897.699591198913	869.799987792969
898.408996171595	869.799987792969
899.118312036375	870
899.827538801089	870.400024414063
900.536676473561	870.799987792969
901.245725061628	869.799987792969
901.954684573109	868.400024414063
902.663555015838	870.200012207031
903.372336397644	870.599975585938
904.081028726351	870
904.789632009793	868.200012207031
905.49814625579	870.599975585938
906.20657147217	872.400024414063
906.914907666765	869.599975585938
907.623154847391	866.799987792969
908.331313021885	868.799987792969
909.039382198064	868.799987792969
909.747362383754	868.400024414063
910.455253586782	868.599975585938
911.163055814972	869.200012207031
911.870769076143	869.599975585938
912.578393378126	867
913.285928728738	867.799987792969
913.993375135802	868.400024414063
914.700732607145	868.200012207031
915.408001150579	869.200012207031
916.115180773937	869.400024414063
916.822271485037	867.799987792969
917.529273291693	869.400024414063
918.236186201733	867.400024414063
918.943010222971	868.599975585938
919.649745363234	866.599975585938
920.356391630333	868.200012207031
921.062949032096	869.200012207031
921.769417576333	868.200012207031
922.475797270864	868.400024414063
923.182088123512	865.400024414063
923.888290142089	867.799987792969
924.594403334414	866.400024414063
925.300427708304	866.400024414063
926.006363271572	867.799987792969
926.712210032039	867.400024414063
927.417967997522	868.599975585938
928.123637175827	866.799987792969
928.829217574776	866.400024414063
929.534709202184	867
930.240112065859	867.599975585938
930.945426173621	867.400024414063
931.650651533283	866
932.355788152653	868.400024414063
933.060836039547	866.599975585938
933.765795201776	867.400024414063
934.470665647153	867.799987792969
935.175447383492	866.599975585938
935.880140418599	866.599975585938
936.584744760286	867.200012207031
937.289260416366	864.599975585938
937.993687394647	868.400024414063
938.698025702939	866.400024414063
939.402275349051	868.599975585938
940.106436340793	868.599975585938
940.810508685976	870.200012207031
941.5144923924	869
942.21838746788	867.799987792969
942.922193920223	867.400024414063
943.625911757231	869.200012207031
944.329540986716	867
945.033081616484	867.599975585938
945.736533654334	867.400024414063
946.439897108083	867.799987792969
947.143171985529	865.599975585938
947.846358294477	868.200012207031
948.549456042732	867.400024414063
949.2524652381	868
949.955385888382	867.400024414063
950.658218001384	867.400024414063
951.360961584907	867.799987792969
952.063616646755	869
952.766183194733	869.400024414063
953.468661236636	867.200012207031
954.171050780271	867.799987792969
954.873351833437	866.200012207031
955.575564403935	866.799987792969
956.277688499565	865.400024414063
956.97972412813	867.200012207031
957.681671297424	868.200012207031
958.383530015255	868.799987792969
959.085300289414	867.599975585938
959.786982127703	869
960.488575537918	867.799987792969
961.190080527859	866.599975585938
961.891497105327	867.200012207031
962.592825278111	866.599975585938
963.294065054012	867.200012207031
963.995216440829	867.200012207031
964.696279446353	868.400024414063
965.397254078383	867
966.098140344714	868
966.798938253139	867.400024414063
967.499647811456	868
968.200269027458	868
968.900801908937	866.599975585938
969.601246463685	866.599975585938
970.3016026995	866.400024414063
971.001870624169	868.599975585938
971.702050245491	867.799987792969
972.402141571249	866
973.102144609245	865.799987792969
973.802059367267	867.200012207031
974.501885853103	866.400024414063
975.201624074541	867.799987792969
975.901274039379	866.200012207031
976.600835755399	868.200012207031
977.3003092304	867.400024414063
977.999694472158	865.400024414063
978.698991488473	866.400024414063
979.39820028713	865.200012207031
980.097320875915	867.400024414063
980.796353262618	865.799987792969
981.495297455024	866
982.194153460919	869.400024414063
982.892921288093	865.599975585938
983.591600944331	866.400024414063
984.290192437419	866.599975585938
984.98869577514	868.400024414063
985.687110965282	866.599975585938
986.385438015629	866.599975585938
987.083676933961	866
987.781827728069	867
988.479890405732	866.599975585938
989.177864974732	865.200012207031
989.875751442857	865.400024414063
990.573549817888	866.599975585938
991.271260107602	867.400024414063
991.968882319786	867.200012207031
992.666416462217	865.599975585938
993.363862542681	868
994.061220568959	864.400024414063
994.758490548823	865.200012207031
995.455672490061	866.200012207031
996.152766400451	865.200012207031
996.849772287773	866.799987792969
997.5466901598	865.799987792969
998.243520024317	866.400024414063
998.940261889097	867.400024414063
999.636915761923	865.799987792969
1000.33348165057	866.200012207031
1001.02995956281	865.799987792969
1001.72634950643	864.799987792969
1002.42265148919	865.599975585938
1003.11886551889	866.799987792969
1003.81499160328	867.799987792969
1004.51102975015	866.599975585938
1005.20697996727	866.200012207031
1005.90284226242	867
1006.59861664337	866.400024414063
1007.2943031179	867.400024414063
1007.98990169377	867.200012207031
1008.68541237876	867
1009.38083518064	867.400024414063
1010.07617010719	867.400024414063
1010.77141716617	866.599975585938
1011.46657636536	864.799987792969
1012.16164771253	867.400024414063
1012.85663121546	866.599975585938
1013.5515268819	866.200012207031
1014.24633471963	867.200012207031
1014.94105473642	867.200012207031
1015.63568694004	866.400024414063
1016.33023133826	866.200012207031
1017.02468793885	867.200012207031
1017.71905674957	867.200012207031
1018.41333777819	867.799987792969
1019.10753103249	867
1019.80163652022	867.200012207031
1020.49565424916	866.599975585938
1021.18958422707	869.200012207031
1021.88342646171	869.400024414063
1022.57718096085	867.400024414063
1023.27084773227	868.799987792969
1023.96442678371	868.400024414063
1024.65791812296	867.799987792969
1025.35132175776	866.799987792969
1026.04463769589	867.400024414063
1026.73786594511	868.400024414063
1027.43100651318	869.200012207031
1028.12405940786	868.400024414063
1028.81702463692	869.400024414063
1029.50990220812	869.400024414063
1030.20269212921	870
1030.89539440798	870.400024414063
1031.58800905216	868.599975585938
1032.28053606952	870.400024414063
1032.97297546784	869.200012207031
1033.66532725485	869.400024414063
1034.35759143832	871.200012207031
1035.04976802602	872
1035.7418570257	869
1036.43385844511	869.599975585938
1037.12577229202	872.200012207031
1037.81759857419	868.799987792969
1038.50933729937	869.200012207031
1039.20098847531	870.200012207031
1039.89255210978	871.799987792969
1040.58402821053	871
1041.27541678532	870
1041.96671784191	869
1042.65793138804	870.200012207031
1043.34905743147	868.799987792969
1044.04009597996	868
1044.73104704125	867.400024414063
1045.42191062312	868.400024414063
1046.1126867333	869
1046.80337537955	869.799987792969
1047.49397656962	867.599975585938
1048.18449031127	867.799987792969
1048.87491661225	868.599975585938
1049.5652554803	868.799987792969
1050.25550692319	868.400024414063
1050.94567094865	868
1051.63574756444	866.400024414063
1052.32573677832	867.400024414063
1053.01563859803	867.799987792969
1053.70545303131	867
1054.39518008592	869.200012207031
1055.08481976961	869.400024414063
1055.77437209013	868.400024414063
1056.46383705522	869.400024414063
1057.15321467262	867.799987792969
1057.8425049501	869.200012207031
1058.53170789539	867.799987792969
1059.22082351624	868.599975585938
1059.9098518204	868.200012207031
1060.59879281561	868
1061.28764650962	867.599975585938
1061.97641291016	867.799987792969
1062.665092025	867.400024414063
1063.35368386187	867.799987792969
1064.04218842851	869.400024414063
1064.73060573268	868.400024414063
1065.4189357821	869
1066.10717858452	867.799987792969
1066.7953341477	867.799987792969
1067.48340247936	868.400024414063
1068.17138358725	867.799987792969
1068.85927747912	869.200012207031
1069.5470841627	869.599975585938
1070.23480364573	869.799987792969
1070.92243593595	869.400024414063
1071.60998104111	869.200012207031
1072.29743896894	869.200012207031
1072.98480972718	869.200012207031
1073.67209332357	867.799987792969
1074.35928976585	868.599975585938
1075.04639906176	868.799987792969
1075.73342121903	867.799987792969
1076.42035624541	867.599975585938
1077.10720414862	867
1077.79396493641	868.599975585938
1078.48063861651	868.799987792969
1079.16722519666	869
1079.85372468459	867.599975585938
1080.54013708804	867
1081.22646241474	867.400024414063
1081.91270067243	868.200012207031
1082.59885186884	865.400024414063
1083.28491601171	867.200012207031
1083.97089310877	868
1084.65678316774	866.200012207031
1085.34258619637	866.400024414063
1086.02830220239	869
1086.71393119352	867.400024414063
1087.39947317751	867.400024414063
1088.08492816207	866.799987792969
1088.77029615495	868.400024414063
1089.45557716387	866.599975585938
1090.14077119656	865.200012207031
1090.82587826075	866.200012207031
1091.51089836417	868.200012207031
1092.19583151456	866.400024414063
1092.88067771963	866.400024414063
1093.56543698712	866
1094.25010932475	866.799987792969
1094.93469474026	865.599975585938
1095.61919324137	866.799987792969
1096.3036048358	867.599975585938
1096.98792953129	866.799987792969
1097.67216733555	866.200012207031
1098.35631825632	867.599975585938
1099.04038230132	865.200012207031
1099.72435947828	866.599975585938
1100.40824979492	867
1101.09205325895	867.200012207031
1101.77576987812	867
1102.45939966014	866.599975585938
1103.14294261273	866.599975585938
1103.82639874362	866
1104.50976806054	866.400024414063
1105.19305057119	867.200012207031
1105.87624628331	867.200012207031
1106.55935520461	868.200012207031
1107.24237734283	868
1107.92531270566	867.200012207031
1108.60816130085	869.200012207031
1109.2909231361	868.599975585938
1109.97359821914	868.200012207031
1110.65618655768	867.400024414063
1111.33868815946	869.400024414063
1112.02110303217	868.200012207031
1112.70343118355	868
1113.3856726213	867.200012207031
1114.06782735316	866.200012207031
1114.74989538683	868.200012207031
1115.43187673002	868.799987792969
1116.11377139047	869.400024414063
1116.79557937588	867.799987792969
1117.47730069397	870
1118.15893535245	867.599975585938
1118.84048335904	867.599975585938
1119.52194472146	869
1120.20331944741	867.599975585938
1120.88460754462	868.200012207031
1121.56580902079	870.400024414063
1122.24692388364	871.200012207031
1122.92795214088	870
1123.60889380022	869.200012207031
1124.28974886938	870.200012207031
1124.97051735606	871
1125.65119926799	868.200012207031
1126.33179461286	870.799987792969
1127.0123033984	871.599975585938
1127.6927256323	871.799987792969
1128.37306132229	870
1129.05331047606	870.200012207031
1129.73347310134	870.200012207031
1130.41354920582	870.599975585938
1131.09353879722	870.200012207031
1131.77344188324	868.599975585938
1132.45325847159	869.400024414063
1133.13298856999	870.799987792969
1133.81263218612	870
1134.49218932772	868
1135.17166000247	868.200012207031
1135.85104421809	869.799987792969
1136.53034198227	870
1137.20955330274	869.599975585938
1137.88867818718	870
1138.56771664331	868.599975585938
1139.24666867883	868.599975585938
1139.92553430144	867.200012207031
1140.60431351885	869.799987792969
1141.28300633876	869.799987792969
1141.96161276887	870
1142.64013281689	869.400024414063
1143.31856649051	867.599975585938
1143.99691379744	870.799987792969
1144.67517474538	870.400024414063
1145.35334934203	870.799987792969
1146.03143759509	870.400024414063
1146.70943951226	869.799987792969
1147.38735510125	870.799987792969
1148.06518436974	869.799987792969
1148.74292732545	869
1149.42058397606	869
1150.09815432928	871
1150.7756383928	870.599975585938
1151.45303617432	871.200012207031
1152.13034768155	868.599975585938
1152.80757292217	872.400024414063
1153.48471190389	873
1154.16176463439	871.200012207031
1154.83873112138	870.200012207031
1155.51561137255	871.200012207031
1156.1924053956	869.400024414063
1156.86911319822	872
1157.5457347881	871.400024414063
1158.22227017294	869.599975585938
1158.89871936044	870.200012207031
1159.57508235828	869.400024414063
1160.25135917416	871
1160.92754981578	869.799987792969
1161.60365429081	869.599975585938
1162.27967260697	869.200012207031
1162.95560477193	870
1163.63145079339	870.200012207031
1164.30721067904	868
1164.98288443657	868
1165.65847207367	868.599975585938
1166.33397359803	869.200012207031
1167.00938901735	868.799987792969
1167.6847183393	869
1168.35996157157	869
1169.03511872187	868.200012207031
1169.71018979787	868.400024414063
1170.38517480726	869.400024414063
1171.06007375773	869.400024414063
1171.73488665696	868.200012207031
1172.40961351265	869
1173.08425433247	868.200012207031
1173.75880912412	870.599975585938
1174.43327789528	869.200012207031
1175.10766065364	869
1175.78195740687	869.799987792969
1176.45616816267	869.599975585938
1177.13029292871	869.400024414063
1177.80433171269	870.200012207031
1178.47828452229	870.200012207031
1179.15215136518	870.200012207031
1179.82593224905	868.799987792969
1180.49962718159	869
1181.17323617047	870
1181.84675922337	869
1182.52019634799	868.400024414063
1183.193547552	868.400024414063
1183.86681284307	868.400024414063
1184.53999222889	868
1185.21308571714	866.799987792969
1185.8860933155	867.599975585938
1186.55901503165	869.200012207031
1187.23185087326	867.599975585938
1187.90460084802	866.599975585938
1188.5772649636	867.200012207031
1189.24984322768	869.799987792969
1189.92233564794	869.599975585938
1190.59474223206	867.599975585938
1191.2670629877	867.400024414063
1191.93929792255	867.400024414063
1192.61144704428	867.400024414063
1193.28351036058	867.799987792969
1193.9554878791	868
1194.62737960754	869.400024414063
1195.29918555356	867
1195.97090572483	869.799987792969
1196.64254012903	868.599975585938
1197.31408877384	867.799987792969
1197.98555166693	868.599975585938
1198.65692881596	869.200012207031
1199.32822022862	869.200012207031
1199.99942591256	870.200012207031
1200.67054587548	869.200012207031
1201.34158012503	869.599975585938
1202.01252866889	868
1202.68339151473	870
1203.35416867021	867
1204.02486014301	867.599975585938
1204.6954659408	871
1205.36598607124	869.599975585938
1206.03642054201	869.400024414063
1206.70676936078	871
1207.3770325352	869.799987792969
1208.04721007295	868.599975585938
1208.7173019817	869.400024414063
1209.38730826911	869.599975585938
1210.05722894285	869.599975585938
1210.72706401059	869.400024414063
1211.39681347999	871
1212.06647735872	869
1212.73605565444	868.200012207031
1213.40554837481	869.200012207031
1214.07495552751	868.200012207031
1214.74427712019	870.799987792969
1215.41351316052	869.599975585938
1216.08266365617	870.200012207031
1216.75172861479	869.400024414063
1217.42070804405	869.599975585938
1218.0896019516	867.799987792969
1218.75841034513	868.200012207031
1219.42713323227	869.200012207031
1220.0957706207	869.799987792969
1220.76432251808	871
1221.43278893207	869.799987792969
1222.10116987032	870.599975585938
1222.7694653405	870.400024414063
1223.43767535026	871.599975585938
1224.10579990727	870
1224.77383901918	870.599975585938
1225.44179269366	870.200012207031
1226.10966093835	869.599975585938
1226.77744376093	871.200012207031
1227.44514116904	870.200012207031
1228.11275317034	870.200012207031
1228.78027977249	871.799987792969
1229.44772098315	871.200012207031
1230.11507680996	870
1230.7823472606	871.799987792969
1231.44953234271	870.400024414063
1232.11663206394	871
1232.78364643195	869
1233.4505754544	871.400024414063
1234.11741913894	871.599975585938
1234.78417749322	869.799987792969
1235.45085052489	871
1236.11743824162	869.599975585938
1236.78394065104	871
1237.45035776082	870
1238.1166895786	869.799987792969
1238.78293611204	868.599975585938
1239.44909736878	869.400024414063
1240.11517335648	869.400024414063
1240.78116408279	870.400024414063
1241.44706955535	870.200012207031
1242.11288978182	869.400024414063
1242.77862476985	870.799987792969
1243.44427452708	870.200012207031
1244.10983906116	870.400024414063
1244.77531837974	872.400024414063
1245.44071249047	870.799987792969
1246.106021401	871.599975585938
1246.77124511898	870.200012207031
1247.43638365204	870
1248.10143700783	871.200012207031
1248.76640519401	871
1249.43128821822	870
1250.0960860881	871
1250.76079881129	869.799987792969
1251.42542639545	869.599975585938
1252.08996884822	870
1252.75442617723	870.400024414063
1253.41879839014	871.400024414063
1254.08308549458	869.799987792969
1254.74728749821	873
1255.41140440866	869.599975585938
1256.07543623357	868.599975585938
1256.73938298059	869.400024414063
1257.40324465735	867.799987792969
1258.0670212715	871
1258.73071283068	869.200012207031
1259.39431934253	868.599975585938
1260.05784081468	869
1260.72127725479	868
1261.38462867049	866.799987792969
1262.0478950694	869.200012207031
1262.71107645919	868
1263.37417284748	869.599975585938
1264.03718424191	869.400024414063
1264.70011065011	869.799987792969
1265.36295207974	869.799987792969
1266.02570853841	869.799987792969
1266.68838003378	869
1267.35096657346	867.599975585938
1268.01346816511	869
1268.67588481636	870.200012207031
1269.33821653483	867.400024414063
1270.00046332817	868
1270.66262520401	867.799987792969
1271.32470216998	867.799987792969
1271.98669423372	870.200012207031
1272.64860140285	870.599975585938
1273.31042368503	870
1273.97216108786	870.400024414063
1274.633813619	869.599975585938
1275.29538128606	869.599975585938
1275.95686409669	870.799987792969
1276.6182620585	870.400024414063
1277.27957517914	870.200012207031
1277.94080346624	868.799987792969
1278.60194692741	868.400024414063
1279.2630055703	869.799987792969
1279.92397940253	872.400024414063
1280.58486843173	870.200012207031
1281.24567266552	869.400024414063
1281.90639211155	869.599975585938
1282.56702677743	869.400024414063
1283.2275766708	869.799987792969
1283.88804179927	870.799987792969
1284.54842217049	868.799987792969
1285.20871779206	868.599975585938
1285.86892867163	870.599975585938
1286.52905481681	870.400024414063
1287.18909623523	869.400024414063
1287.84905293452	870.799987792969
1288.5089249223	870.200012207031
1289.16871220619	871
1289.82841479383	869.799987792969
1290.48803269282	869.400024414063
1291.1475659108	870
1291.80701445539	872
1292.46637833421	871.799987792969
1293.12565755489	870.799987792969
1293.78485212504	870.599975585938
1294.44396205229	872.599975585938
1295.10298734425	871.400024414063
1295.76192800856	871
1296.42078405283	871.200012207031
1297.07955548467	870.200012207031
1297.73824231171	870.799987792969
1298.39684454158	872.200012207031
1299.05536218188	872.400024414063
1299.71379524023	871.400024414063
1300.37214372427	870.599975585938
1301.03040764159	871.599975585938
1301.68858699983	871.599975585938
1302.34668180659	871
1303.0046920695	872
1303.66261779617	872.200012207031
1304.32045899422	873.400024414063
1304.97821567126	873
1305.63588783492	871.200012207031
1306.29347549279	871.799987792969
1306.95097865251	872
1307.60839732168	871.400024414063
1308.26573150791	870.799987792969
1308.92298121883	872
1309.58014646204	870.599975585938
1310.23722724517	872.799987792969
1310.89422357581	871.400024414063
1311.55113546158	871.400024414063
1312.2079629101	873.200012207031
1312.86470592898	872.200012207031
1313.52136452582	873
1314.17793870824	872
1314.83442848386	872.599975585938
1315.49083386027	873.400024414063
1316.14715484509	872
1316.80339144594	870.200012207031
1317.45954367041	874
1318.11561152611	871.799987792969
1318.77159502067	873.599975585938
1319.42749416168	871.599975585938
1320.08330895674	872.599975585938
1320.73903941348	872.599975585938
1321.3946855395	871.599975585938
1322.0502473424	873.599975585938
1322.70572482978	873.200012207031
1323.36111800926	874
1324.01642688845	873.400024414063
1324.67165147494	870.799987792969
1325.32679177634	874.200012207031
1325.98184780025	871.200012207031
1326.63681955429	871.200012207031
1327.29170704605	874.400024414063
1327.94651028314	872.599975585938
1328.60122927316	872.400024414063
1329.25586402371	872.400024414063
1329.9104145424	873.400024414063
1330.56488083683	873.400024414063
1331.2192629146	872.799987792969
1331.87356078331	872
1332.52777445056	874.599975585938
1333.18190392395	872.400024414063
1333.83594921109	873
1334.48991031958	873.200012207031
1335.143787257	872.599975585938
1335.79758003097	874.200012207031
1336.45128864908	874
1337.10491311893	872.799987792969
1337.75845344813	871.799987792969
1338.41190964425	873
1339.06528171491	870.599975585938
1339.71856966771	872.200012207031
1340.37177351023	871.200012207031
1341.02489325007	871
1341.67792889484	872.599975585938
1342.33088045212	871.799987792969
1342.98374792952	871.599975585938
1343.63653133462	870.799987792969
1344.28923067503	872.400024414063
1344.94184595833	872.799987792969
1345.59437719212	872.400024414063
1346.246824384	873
1346.89918754155	873.400024414063
1347.55146667238	870.799987792969
1348.20366178407	871.200012207031
1348.85577288421	873.799987792969
1349.50779998041	873.200012207031
1350.15974308024	875.400024414063
1350.8116021913	873.200012207031
1351.46337732119	872.799987792969
1352.11506847748	871
1352.76667566778	870.799987792969
1353.41819889967	872.599975585938
1354.06963818074	872.400024414063
1354.72099351858	872.599975585938
1355.37226492079	872.200012207031
1356.02345239494	872
1356.67455594862	873.200012207031
1357.32557558943	873.799987792969
1357.97651132496	870.799987792969
1358.62736316277	875
1359.27813111048	873
1359.92881517565	872.400024414063
1360.57941536589	872
1361.22993168876	873.200012207031
1361.88036415186	873.400024414063
1362.53071276278	872.599975585938
1363.1809775291	872.799987792969
1363.8311584584	874.200012207031
1364.48125555826	873
1365.13126883627	871.599975585938
1365.78119830001	871.799987792969
1366.43104395707	871.200012207031
1367.08080581503	872.400024414063
1367.73048388147	873.599975585938
1368.38007816397	874.799987792969
1369.02958867011	872.599975585938
1369.67901540748	873.799987792969
1370.32835838365	872
1370.9776176062	871.400024414063
1371.62679308273	871
1372.27588482079	872.599975585938
1372.92489282798	872.599975585938
1373.57381711188	872.200012207031
1374.22265768006	871.599975585938
1374.87141454009	873
1375.52008769957	872
1376.16867716606	875.799987792969
1376.81718294715	874.799987792969
1377.4656050504	873.799987792969
1378.1139434834	872.599975585938
1378.76219825373	874
1379.41036936895	873
1380.05845683664	872.599975585938
1380.70646066439	876.200012207031
1381.35438085976	873.400024414063
1382.00221743032	873.599975585938
1382.64997038366	874.599975585938
1383.29763972735	872
1383.94522546895	874
1384.59272761605	874.599975585938
1385.24014617621	874.400024414063
1385.88748115701	875.400024414063
1386.53473256602	876.799987792969
1387.18190041081	877.200012207031
1387.82898469895	875.599975585938
1388.47598543802	873.599975585938
1389.12290263558	876.400024414063
1389.7697362992	875.200012207031
1390.41648643646	876.400024414063
1391.06315305492	877.200012207031
1391.70973616215	874.200012207031
1392.35623576573	877.400024414063
1393.00265187321	875.400024414063
1393.64898449217	876
1394.29523363018	874.799987792969
1394.94139929481	875.599975585938
1395.58748149361	877.599975585938
1396.23348023415	877.799987792969
1396.87939552402	876
1397.52522737076	877.400024414063
1398.17097578195	874.200012207031
1398.81664076514	876.799987792969
1399.46222232792	872.200012207031
1400.10772047783	874.599975585938
1400.75313522245	871.200012207031
1401.39846656934	873.400024414063
1402.04371452605	874
1402.68887910016	874.799987792969
1403.33396029924	874.400024414063
1403.97895813083	875.599975585938
1404.6238726025	874.400024414063
1405.26870372182	874.400024414063
1405.91345149634	876
1406.55811593363	873.200012207031
1407.20269704125	876
1407.84719482676	874.200012207031
1408.49160929772	875.400024414063
1409.13594046168	874.599975585938
1409.78018832622	875.200012207031
1410.42435289887	875.799987792969
1411.06843418722	874.400024414063
1411.7124321988	875.400024414063
1412.3563469412	874.799987792969
1413.00017842194	875.400024414063
1413.64392664861	875.200012207031
1414.28759162875	875.599975585938
1414.93117336992	876.599975585938
1415.57467187967	876.200012207031
1416.21808716557	877.599975585938
1416.86141923516	875.599975585938
1417.50466809601	877.400024414063
1418.14783375567	876.599975585938
1418.79091622169	877.400024414063
1419.43391550162	876.599975585938
1420.07683160303	876.799987792969
1420.71966453346	876.200012207031
1421.36241430046	879
1422.0050809116	877.200012207031
1422.64766437442	879.799987792969
1423.29016469647	879.400024414063
1423.93258188531	879.200012207031
1424.57491594848	880.200012207031
1425.21716689354	877.599975585938
1425.85933472805	880.200012207031
1426.50141945954	880.400024414063
1427.14342109557	880.799987792969
1427.78533964369	878.599975585938
1428.42717511144	880.799987792969
1429.06892750639	878.799987792969
1429.71059683607	880.200012207031
1430.35218310803	878.599975585938
1430.99368632983	878.599975585938
1431.635106509	878.799987792969
1432.2764436531	879.400024414063
1432.91769776967	878.799987792969
1433.55886886627	878
1434.19995695043	880.599975585938
1434.84096202969	880.599975585938
1435.48188411162	879.599975585938
1436.12272320375	880.799987792969
1436.76347931363	880
1437.40415244879	880.200012207031
1438.0447426168	881.400024414063
1438.68524982518	881.200012207031
1439.32567408148	878.799987792969
1439.96601539325	878.799987792969
1440.60627376803	880.799987792969
1441.24644921336	881
1441.88654173678	878.799987792969
1442.52655134583	880.200012207031
1443.16647804806	879.599975585938
1443.806321851	879.200012207031
1444.4460827622	878.200012207031
1445.0857607892	880.400024414063
1445.72535593953	880.599975585938
1446.36486822074	878.400024414063
1447.00429764037	878.799987792969
1447.64364420595	878.400024414063
1448.28290792502	879.599975585938
1448.92208880512	880.200012207031
1449.56118685379	881
1450.20020207857	878.799987792969
1450.83913448699	878.400024414063
1451.47798408659	877.799987792969
1452.1167508849	878.200012207031
1452.75543488947	879.200012207031
1453.39403610782	876.599975585938
1454.0325545475	879.200012207031
1454.67099021603	877.799987792969
1455.30934312097	878.200012207031
1455.94761326982	877.200012207031
1456.58580067014	876.599975585938
1457.22390532945	876.799987792969
1457.86192725529	879.599975585938
1458.49986645519	876.400024414063
1459.13772293668	879.400024414063
1459.7754967073	877
1460.41318777457	876.599975585938
1461.05079614604	877.799987792969
1461.68832182922	875
1462.32576483166	874.599975585938
1462.96312516087	876
1463.6004028244	878
1464.23759782977	877.799987792969
1464.8747101845	875
1465.51173989614	873.200012207031
1466.14868697221	877.799987792969
1466.78555142024	874.599975585938
1467.42233324774	876
1468.05903246227	874
1468.69564907133	874
1469.33218308246	874
1469.96863450317	874.599975585938
1470.60500334102	875.400024414063
1471.2412896035	875.599975585938
1471.87749329816	876
1472.51361443251	875.200012207031
1473.14965301409	874
1473.78560905041	875.799987792969
1474.421482549	875.799987792969
1475.05727351739	876
1475.69298196309	876.400024414063
1476.32860789364	875
1476.96415131654	874.599975585938
1477.59961223934	874.400024414063
1478.23499066954	875.599975585938
1478.87028661467	874.599975585938
1479.50550008226	875.400024414063
1480.14063107981	875
1480.77567961486	873.599975585938
1481.41064569492	874.200012207031
1482.04552932752	874.799987792969
1482.68033052017	876.599975585938
1483.31504928039	873.599975585938
1483.9496856157	873.799987792969
1484.58423953363	874.599975585938
1485.21871104168	875.799987792969
1485.85310014738	875.599975585938
1486.48740685824	875.599975585938
1487.12163118178	873.400024414063
1487.75577312553	874.599975585938
1488.38983269698	874.599975585938
1489.02380990367	876
1489.65770475311	873.200012207031
1490.29151725281	875.799987792969
1490.92524741029	876.599975585938
1491.55889523306	874.799987792969
1492.19246072863	874.400024414063
1492.82594390453	875.799987792969
1493.45934476826	874.200012207031
1494.09266332734	875.400024414063
1494.72589958928	875.599975585938
1495.3590535616	872.400024414063
1495.99212525181	875
1496.62511466741	874.599975585938
1497.25802181592	874.400024414063
1497.89084670485	872.799987792969
1498.52358934172	874.799987792969
1499.15624973403	875.799987792969
1499.7888278893	873.400024414063
1500.42132381503	874.400024414063
1501.05373751873	874.799987792969
1501.68606900792	871.200012207031
1502.31831829009	875.200012207031
1502.95048537277	873.599975585938
1503.58257026346	874.599975585938
1504.21457296966	873.400024414063
1504.84649349889	874
1505.47833185864	872.799987792969
1506.11008805644	872.799987792969
1506.74176209978	873
1507.37335399617	874.599975585938
1508.00486375312	873.599975585938
1508.63629137813	875.599975585938
1509.2676368787	872.400024414063
1509.89890026235	873
1510.53008153658	873.400024414063
1511.16118070889	872
1511.79219778677	873
1512.42313277775	874
1513.05398568932	871.799987792969
1513.68475652898	872.799987792969
1514.31544530424	871.799987792969
1514.9460520226	872.599975585938
1515.57657669155	871.799987792969
1516.20701931861	873.599975585938
1516.83737991127	871.799987792969
1517.46765847702	873.799987792969
1518.09785502339	872.400024414063
1518.72796955785	873.200012207031
1519.35800208792	872.599975585938
1519.98795262109	871.200012207031
1520.61782116486	872.799987792969
1521.24760772673	873.599975585938
1521.87731231419	871.400024414063
1522.50693493475	871.599975585938
1523.1364755959	872.599975585938
1523.76593430514	872.400024414063
1524.39531106997	871.400024414063
1525.02460589788	871.799987792969
1525.65381879637	869.799987792969
1526.28294977293	871.599975585938
1526.91199883507	869.400024414063
1527.54096599027	870.200012207031
1528.16985124603	871
1528.79865460984	870.599975585938
1529.4273760892	870.400024414063
1530.05601569161	870.200012207031
1530.68457342455	871
1531.31304929552	868.799987792969
1531.94144331201	870.200012207031
1532.56975548151	869.799987792969
1533.19798581152	869.799987792969
1533.82613430953	868.799987792969
1534.45420098302	869.200012207031
1535.08218583949	869.400024414063
1535.71008888643	870.400024414063
1536.33791013134	871
1536.96564958169	868.799987792969
1537.59330724498	869.599975585938
1538.22088312871	868.599975585938
1538.84837724034	867.799987792969
1539.47578958739	869.799987792969
1540.10312017733	869.200012207031
1540.73036901765	870.400024414063
1541.35753611584	869.799987792969
1541.98462147939	869.400024414063
1542.61162511578	868.599975585938
1543.2385470325	869.799987792969
1543.86538723704	869.400024414063
1544.49214573688	870.400024414063
1545.11882253951	869.200012207031
1545.74541765241	871.200012207031
1546.37193108306	871.200012207031
1546.99836283896	868.799987792969
1547.62471292758	868
1548.25098135641	870.400024414063
1548.87716813294	869.200012207031
1549.50327326464	868.599975585938
1550.12929675899	868.599975585938
1550.75523862349	869.400024414063
1551.38109886561	870.599975585938
1552.00687749284	867.799987792969
1552.63257451264	868.599975585938
1553.25818993252	868.599975585938
1553.88372375994	868.400024414063
1554.50917600239	869.599975585938
1555.13454666734	869
1555.75983576228	870.400024414063
1556.38504329469	868.200012207031
1557.01016927204	870.200012207031
1557.63521370181	870
1558.26017659149	869
1558.88505794854	868.799987792969
1559.50985778045	868.200012207031
1560.13457609469	869.200012207031
1560.75921289874	867.200012207031
1561.38376820008	870
1562.00824200618	869.599975585938
1562.63263432452	869.200012207031
1563.25694516257	868.200012207031
1563.88117452781	869.200012207031
1564.50532242772	868
1565.12938886976	868.599975585938
1565.75337386141	869
1566.37727741015	868.400024414063
1567.00109952345	869.599975585938
1567.62484020878	870.799987792969
1568.24849947361	868
1568.87207732542	867.400024414063
1569.49557377168	869.799987792969
1570.11898881986	868.599975585938
1570.74232247743	870.200012207031
1571.36557475186	868
1571.98874565062	868
1572.61183518119	867.400024414063
1573.23484335103	869
1573.85777016761	871
1574.4806156384	870.599975585938
1575.10337977088	867.599975585938
1575.7260625725	867.799987792969
1576.34866405074	867.799987792969
1576.97118421306	869.799987792969
1577.59362306694	866.799987792969
1578.21598061984	868.799987792969
1578.83825687922	869.400024414063
1579.46045185255	869.400024414063
1580.08256554731	869
1580.70459797094	870.200012207031
1581.32654913093	868.599975585938
1581.94841903473	869.200012207031
1582.57020768981	870.200012207031
1583.19191510364	869
1583.81354128367	869.200012207031
1584.43508623737	868.400024414063
1585.05654997221	868.799987792969
1585.67793249564	870.599975585938
1586.29923381514	869
1586.92045393815	868
1587.54159287216	869.200012207031
1588.1626506246	871.400024414063
1588.78362720296	870
1589.40452261468	868.799987792969
1590.02533686724	870.599975585938
1590.64606996808	871.200012207031
1591.26672192467	873.400024414063
1591.88729274447	869.799987792969
1592.50778243493	870.400024414063
1593.12819100352	870.799987792969
1593.7485184577	871
1594.36876480492	870
1594.98893005264	869.200012207031
1595.60901420832	869.799987792969
1596.22901727941	869.799987792969
1596.84893927338	868.799987792969
1597.46878019767	870.200012207031
1598.08854005975	870.599975585938
1598.70821886707	871.200012207031
1599.32781662708	872.400024414063
1599.94733334725	868
1600.56676903502	870.599975585938
1601.18612369785	869.799987792969
1601.8053973432	871.799987792969
1602.42458997851	871.799987792969
1603.04370161124	871
1603.66273224884	870.799987792969
1604.28168189878	872.599975585938
1604.90055056849	871.799987792969
1605.51933826543	873.200012207031
1606.13804499705	871.799987792969
1606.75667077081	869.599975585938
1607.37521559415	871.599975585938
1607.99367947452	872
1608.61206241938	872.400024414063
1609.23036443618	872.599975585938
1609.84858553236	873.400024414063
1610.46672571537	873.799987792969
1611.08478499267	873.599975585938
1611.7027633717	872.200012207031
1612.3206608599	873.400024414063
1612.93847746473	875
1613.55621319364	876.400024414063
1614.17386805407	875.400024414063
1614.79144205347	876.200012207031
1615.40893519928	876.799987792969
1616.02634749895	876.799987792969
1616.64367895993	877.200012207031
1617.26092958966	876.200012207031
1617.87809939559	876.799987792969
1618.49518838516	878.799987792969
1619.11219656582	879.799987792969
1619.729123945	878
1620.34597053016	881.200012207031
1620.96273632874	880.200012207031
1621.57942134818	882.599975585938
1622.19602559592	880.400024414063
1622.8125490794	884.400024414063
1623.42899180607	883.400024414063
1624.04535378337	883.799987792969
1624.66163501874	882.599975585938
1625.27783551963	883
1625.89395529346	881.599975585938
1626.50999434768	881.400024414063
1627.12595268974	881.599975585938
1627.74183032707	880
1628.3576272671	879
1628.97334351729	875.799987792969
1629.58897908506	877.799987792969
1630.20453397786	877.599975585938
1630.82000820313	877.599975585938
1631.43540176829	877
1632.05071468079	874.400024414063
1632.66594694807	873.200012207031
1633.28109857756	872.799987792969
1633.8961695767	872.400024414063
1634.51115995292	870.599975585938
1635.12606971366	870.400024414063
1635.74089886636	867.799987792969
1636.35564741844	869.400024414063
1636.97031537734	869.799987792969
1637.58490275051	867.599975585938
1638.19940954536	866.799987792969
1638.81383576934	868.799987792969
1639.42818142987	868
1640.0424465344	867.799987792969
1640.65663109034	868.400024414063
1641.27073510515	868.599975585938
1641.88475858623	867.200012207031
1642.49870154104	866.799987792969
1643.11256397699	866.799987792969
1643.72634590152	867.599975585938
1644.34004732206	865.599975585938
1644.95366824604	866.400024414063
1645.56720868089	867
1646.18066863404	864.599975585938
1646.79404811291	866
1647.40734712494	866.599975585938
1648.02056567755	865.400024414063
1648.63370377817	865
1649.24676143423	865.599975585938
1649.85973865316	866.400024414063
1650.47263544238	866.599975585938
1651.08545180932	864
1651.6981877614	864
1652.31084330606	865.599975585938
1652.92341845071	865.599975585938
1653.53591320278	864.599975585938
1654.1483275697	865.400024414063
1654.7606615589	865.799987792969
1655.37291517778	864.799987792969
1655.98508843379	866.200012207031
1656.59718133434	864.400024414063
1657.20919388685	865.599975585938
1657.82112609875	867.200012207031
1658.43297797747	865.799987792969
1659.04474953041	864.799987792969
1659.65644076501	865.599975585938
1660.26805168869	865
1660.87958230886	864.599975585938
1661.49103263294	863.799987792969
1662.10240266837	866.599975585938
1662.71369242255	865.200012207031
1663.32490190291	866.400024414063
1663.93603111687	864.200012207031
1664.54708007184	865.400024414063
1665.15804877524	864.799987792969
1665.7689372345	864
1666.37974545703	864.400024414063
1666.99047345024	864
1667.60112122156	864.599975585938
1668.2116887784	865.200012207031
1668.82217612818	866
1669.43258327831	864
1670.04291023622	864
1670.65315700931	864.400024414063
1671.263323605	864.799987792969
1671.8734100307	863
1672.48341629384	864.599975585938
1673.09334240182	864.599975585938
1673.70318836206	863.400024414063
1674.31295418197	864.799987792969
1674.92263986896	865
1675.53224543046	865.200012207031
1676.14177087386	863.799987792969
1676.75121620658	863.799987792969
1677.36058143604	863.799987792969
1677.96986656964	863.599975585938
1678.5790716148	862.400024414063
1679.18819657892	864.200012207031
1679.79724146943	864.599975585938
1680.40620629372	864.200012207031
1681.0150910592	863.799987792969
1681.6238957733	863.400024414063
1682.23262044341	863.400024414063
1682.84126507694	863
1683.4498296813	865
1684.0583142639	865.200012207031
1684.66671883216	864.400024414063
1685.27504339346	864.200012207031
1685.88328795523	863.799987792969
1686.49145252487	862
1687.09953710978	863
1687.70754171737	864.799987792969
1688.31546635505	864.400024414063
1688.92331103021	863.799987792969
1689.53107575028	865.200012207031
1690.13876052265	863.200012207031
1690.74636535472	862.200012207031
1691.3538902539	862.799987792969
1691.96133522759	863.400024414063
1692.5687002832	864
1693.17598542812	863.400024414063
1693.78319066977	862
1694.39031601554	863.799987792969
1694.99736147283	863.599975585938
1695.60432704905	863.599975585938
1696.2112127516	862.799987792969
1696.81801858788	864.200012207031
1697.42474456528	863
1698.03139069121	863.799987792969
1698.63795697307	863.200012207031
1699.24444341826	864
1699.85085003417	863
1700.45717682821	863.400024414063
1701.06342380778	865
1701.66959098026	864
1702.27567835307	862.799987792969
1702.88168593359	863.400024414063
1703.48761372922	862.400024414063
1704.09346174737	862.799987792969
1704.69922999542	863.799987792969
1705.30491848077	863.599975585938
1705.91052721083	863.400024414063
1706.51605619297	864
1707.12150543461	863.400024414063
1707.72687494312	862.599975585938
1708.33216472592	863.400024414063
1708.93737479039	861.400024414063
1709.54250514392	863.599975585938
