634.948122577771	1201.59997558594
635.690341530823	1214.59997558594
636.43246851086	1214.59997558594
637.174503525845	1218.40002441406
637.916446583745	1223.80004882813
638.658297692538	1222
639.400056860179	1211
640.141724094637	1208.59997558594
640.883299403885	1200.80004882813
641.62478279588	1193
642.366174278594	1190.80004882813
643.107473859989	1208.40002441406
643.848681548029	1196.40002441406
644.589797350679	1206.19995117188
645.330821275901	1203.40002441406
646.071753331665	1195.40002441406
646.812593525922	1187.80004882813
647.553341866646	1184
648.293998361798	1184
649.03456301933	1188.80004882813
649.775035847216	1202
650.515416853409	1205.59997558594
651.255706045874	1201.80004882813
651.995903432568	1195.40002441406
652.736009021453	1198.59997558594
653.476022820486	1202.59997558594
654.215944837629	1192.59997558594
654.955775080842	1198
655.695513558081	1199.40002441406
656.435160277301	1216.59997558594
657.174715246465	1217.59997558594
657.914178473527	1213.19995117188
658.653549966449	1212.19995117188
659.392829733176	1216.19995117188
660.132017781678	1220.80004882813
660.871114119901	1225.59997558594
661.610118755803	1229.59997558594
662.349031697343	1220.40002441406
663.087852952468	1218.40002441406
663.826582529139	1217.80004882813
664.565220435305	1218
665.30376667892	1214.59997558594
666.04222126794	1212.59997558594
666.780584210316	1214.40002441406
667.518855514	1219.80004882813
668.25703518694	1222.19995117188
668.995123237096	1229.40002441406
669.733119672413	1226.80004882813
670.471024500842	1228.80004882813
671.208837730333	1231.59997558594
671.946559368839	1235.19995117188
672.684189424308	1230.19995117188
673.421727904689	1244
674.159174817929	1243.19995117188
674.896530171977	1244.80004882813
675.633793974786	1232.19995117188
676.370966234295	1234.80004882813
677.108046958461	1227.40002441406
677.845036155219	1247.40002441406
678.581933832528	1256
679.318739998323	1251.80004882813
680.055454660558	1236
680.792077827172	1248.59997558594
681.528609506116	1235.80004882813
682.265049705331	1229.19995117188
683.001398432759	1214.80004882813
683.737655696349	1225
684.47382150404	1221.80004882813
685.20989586378	1214.40002441406
685.945878783503	1235.59997558594
686.68177027116	1235.59997558594
687.417570334688	1230.19995117188
688.153278982032	1236.80004882813
688.888896221129	1222
689.624422059921	1233.19995117188
690.359856506349	1240.40002441406
691.095199568354	1234.40002441406
691.830451253874	1238
692.565611570844	1237.80004882813
693.300680527212	1246.80004882813
694.03565813091	1247.40002441406
694.770544389877	1232.80004882813
695.505339312053	1236.59997558594
696.240042905372	1214.80004882813
696.974655177772	1215.80004882813
697.70917613719	1223.19995117188
698.443605791561	1234.40002441406
699.177944148826	1234.80004882813
699.912191216909	1236.40002441406
700.646347003755	1226.19995117188
701.380411517295	1237
702.114384765465	1232
702.848266756195	1239.40002441406
703.582057497421	1232.59997558594
704.315756997074	1237
705.049365263089	1242.59997558594
705.782882303399	1230
706.516308125936	1234.40002441406
707.249642738626	1230.80004882813
707.982886149403	1223.19995117188
708.716038366204	1226
709.449099396949	1224.19995117188
710.182069249577	1220.80004882813
710.914947932009	1235.59997558594
711.647735452181	1241
712.380431818022	1238.19995117188
713.113037037454	1230.40002441406
713.845551118411	1234
714.577974068818	1237.19995117188
715.310305896604	1234.80004882813
716.042546609694	1231.59997558594
716.774696216013	1236.19995117188
717.506754723493	1238.59997558594
718.238722140053	1233.80004882813
718.970598473624	1244.19995117188
719.702383732127	1241.19995117188
720.43407792349	1248
721.165681055634	1238
721.897193136486	1250.40002441406
722.628614173966	1240.40002441406
723.359944175997	1253.19995117188
724.091183150505	1245.19995117188
724.822331105412	1252.80004882813
725.553388048638	1251.40002441406
726.284353988106	1248.19995117188
727.015228931734	1248.40002441406
727.746012887449	1239.80004882813
728.476705863162	1243.59997558594
729.207307866803	1223.19995117188
729.937818906289	1229.40002441406
730.668238989535	1219.40002441406
731.398568124459	1213.59997558594
732.128806318986	1227.19995117188
732.858953581034	1232.59997558594
733.589009918514	1237.40002441406
734.318975339348	1244.40002441406
735.048849851452	1236.40002441406
735.778633462744	1249.80004882813
736.508326181137	1260.40002441406
737.237928014549	1248
737.967438970897	1240.80004882813
738.696859058095	1240
739.426188284054	1249
740.155426656692	1249.19995117188
740.884574183922	1245.59997558594
741.613630873659	1241.59997558594
742.342596733815	1247.80004882813
743.071471772302	1248.80004882813
743.800255997034	1257.59997558594
744.528949415921	1246
745.257552036877	1239.19995117188
745.986063867811	1230.59997558594
746.714484916638	1230.59997558594
747.442815191261	1227.40002441406
748.171054699597	1222
748.899203449554	1233.19995117188
749.627261449039	1242.80004882813
750.355228705966	1244.59997558594
751.083105228239	1256.80004882813
751.810891023765	1246.40002441406
752.538586100459	1246.40002441406
753.266190466218	1236.80004882813
753.99370412896	1236.59997558594
754.721127096582	1232.19995117188
755.448459377	1234.19995117188
756.175700978114	1242
756.902851907828	1237
757.629912174055	1239.19995117188
758.356881784688	1253.59997558594
759.083760747639	1252
759.810549070817	1267.40002441406
760.537246762113	1255.59997558594
761.263853829442	1251.19995117188
761.990370280698	1259.59997558594
762.716796123791	1251.40002441406
763.443131366618	1262.80004882813
764.169376017082	1274.59997558594
764.895530083085	1270.80004882813
765.621593572527	1271.80004882813
766.347566493312	1267
767.073448853336	1270.40002441406
767.799240660502	1273.80004882813
768.524941922707	1281
769.250552647854	1298
769.976072843836	1295.40002441406
770.701502518551	1296.59997558594
771.426841679905	1308.40002441406
772.152090335793	1312.80004882813
772.877248494107	1319.19995117188
773.602316162747	1325.80004882813
774.327293349609	1317
775.052180062592	1314.19995117188
775.776976309589	1299.19995117188
776.501682098496	1290
777.226297437206	1282.19995117188
777.950822333616	1264.59997558594
778.675256795621	1262
779.399600831111	1263.40002441406
780.123854447983	1261.40002441406
780.84801765413	1268.19995117188
781.572090457441	1274.40002441406
782.296072865811	1266.59997558594
783.019964887131	1249
783.743766529297	1244.19995117188
784.467477800194	1242.59997558594
785.191098707719	1245.59997558594
785.914629259756	1240.59997558594
786.638069464194	1246.19995117188
787.361419328932	1248.40002441406
788.084678861852	1239.59997558594
788.807848070845	1239.80004882813
789.530926963798	1245.59997558594
790.253915548602	1261.59997558594
790.976813833144	1251
791.699621825307	1250.80004882813
792.422339532986	1250.59997558594
793.144966964061	1240
793.86750412642	1251
794.589951027946	1248
795.312307676536	1248.40002441406
796.03457408006	1251
796.756750246417	1251.19995117188
797.478836183477	1248.19995117188
798.200831899137	1244.59997558594
798.92273740127	1241
799.644552697769	1240.40002441406
800.36627779651	1242.59997558594
801.087912705374	1242.59997558594
801.809457432251	1245
802.530911985017	1246.80004882813
803.252276371558	1248.40002441406
803.973550599748	1261.80004882813
804.694734677472	1255.80004882813
805.415828612611	1258.80004882813
806.136832413045	1259.59997558594
806.857746086646	1253.80004882813
807.578569641305	1257.59997558594
808.299303084892	1249.40002441406
809.019946425289	1243
809.740499670372	1241
810.460962828022	1247.40002441406
811.181335906114	1243
811.901618912524	1243.40002441406
812.621811855131	1246
813.341914741809	1254.40002441406
814.061927580433	1246.59997558594
814.781850378881	1239.80004882813
815.501683145025	1249.59997558594
816.221425886743	1245.80004882813
816.941078611903	1260.59997558594
817.660641328387	1245.19995117188
818.380114044065	1243.59997558594
819.099496766808	1248.59997558594
819.818789504492	1244.80004882813
820.53799226499	1241.40002441406
821.257105056168	1253.19995117188
821.976127885904	1247.59997558594
822.695060762064	1244.80004882813
823.413903692525	1248.19995117188
824.132656685151	1245.19995117188
824.851319747817	1242.80004882813
825.569892888388	1227
826.288376114739	1231.59997558594
827.006769434737	1228.80004882813
827.725072856249	1224.80004882813
828.443286387142	1229.40002441406
829.161410035285	1234.80004882813
829.87944380855	1245.80004882813
830.597387714798	1261.19995117188
831.315241761898	1248
832.033005957715	1241.80004882813
832.750680310119	1252
833.468264826969	1247
834.18575951614	1256.80004882813
834.903164385486	1251.40002441406
835.620479442878	1259.40002441406
836.337704696181	1258.19995117188
837.054840153255	1268.40002441406
837.771885821962	1263.19995117188
838.488841710172	1268.19995117188
839.20570782574	1255.19995117188
839.922484176531	1254
840.639170770409	1260.80004882813
841.355767615231	1257.59997558594
842.072274718864	1247.40002441406
842.788692089164	1248.19995117188
843.505019733993	1246.40002441406
844.221257661209	1243.19995117188
844.937405878676	1233.19995117188
845.65346439425	1244.59997558594
846.369433215789	1243.40002441406
847.085312351156	1243
847.801101808205	1231.59997558594
848.516801594793	1233.19995117188
849.232411718781	1232.59997558594
849.947932188021	1234.19995117188
850.663363010376	1238.59997558594
851.378704193698	1235
852.093955745842	1253.19995117188
852.809117674669	1241
853.524189988028	1243.40002441406
854.239172693778	1239.80004882813
854.954065799768	1233.80004882813
855.668869313857	1249
856.383583243899	1245
857.098207597743	1245
857.812742383246	1245.80004882813
858.527187608255	1245.19995117188
859.241543280628	1234
859.955809408218	1235.19995117188
860.669985998868	1230.59997558594
861.384073060437	1230.59997558594
862.098070600772	1218
862.811978627724	1221.80004882813
863.52579714914	1226.59997558594
864.239526172873	1234.59997558594
864.953165706776	1242.59997558594
865.666715758687	1240
866.380176336464	1234.80004882813
867.093547447951	1244
867.806829100996	1245
868.520021303444	1251.59997558594
869.233124063149	1239.19995117188
869.94613738795	1242
870.659061285693	1243.59997558594
871.37189576423	1243.19995117188
872.084640831403	1243.59997558594
872.797296495057	1250.40002441406
873.509862763039	1243
874.22233964319	1246.40002441406
874.934727143353	1236.40002441406
875.647025271374	1235.80004882813
876.359234035097	1242.59997558594
877.071353442361	1242.80004882813
877.783383501015	1244
878.495324218895	1251
879.207175603844	1248.80004882813
879.918937663705	1239.19995117188
880.630610406318	1240.80004882813
881.342193839524	1230.80004882813
882.053687971161	1234.19995117188
882.765092809069	1222
883.476408361091	1238.59997558594
884.187634635066	1232.40002441406
884.898771638828	1238.19995117188
885.609819380221	1233.19995117188
886.320777867076	1231.19995117188
887.031647107236	1232.80004882813
887.742427108536	1228.59997558594
888.453117878816	1228
889.16371942591	1243.19995117188
889.874231757652	1243.40002441406
890.584654881883	1229.40002441406
891.294988806434	1227
892.005233539141	1236.80004882813
892.715389087837	1241.19995117188
893.42545546036	1239.40002441406
894.135432664543	1245.59997558594
894.845320708216	1255.19995117188
895.555119599216	1235.80004882813
896.264829345375	1238.19995117188
896.974449954526	1227.80004882813
897.683981434496	1225.19995117188
898.393423793125	1228.40002441406
899.102777038235	1233
899.812041177664	1236.80004882813
900.521216219239	1248.40002441406
901.230302170793	1265.59997558594
901.939299040155	1260.19995117188
902.64820683515	1256
903.357025563612	1249.59997558594
904.065755233368	1242.19995117188
904.774395852247	1244.59997558594
905.482947428076	1238.80004882813
906.191409968682	1243.19995117188
906.899783481897	1255.80004882813
907.608067975538	1245.40002441406
908.316263457443	1248.40002441406
909.02436993543	1239.80004882813
909.732387417327	1246
910.440315910959	1240.40002441406
911.148155424154	1232.19995117188
911.855905964731	1236.40002441406
912.563567540521	1240.19995117188
913.271140159339	1242
913.978623829017	1237.80004882813
914.686018557374	1232.59997558594
915.393324352237	1242.59997558594
916.100541221421	1238.80004882813
916.807669172752	1251
917.514708214054	1254.59997558594
918.221658353142	1267.59997558594
918.928519597843	1254.59997558594
919.635291955976	1254
920.341975435358	1257
921.048570043813	1241.80004882813
921.75507578916	1256.80004882813
922.461492679212	1260.40002441406
923.167820721795	1261.80004882813
923.874059924726	1252.19995117188
924.58021029582	1248
925.286271842893	1240.40002441406
925.992244573769	1246.59997558594
926.698128496262	1249.59997558594
927.403923618184	1254.19995117188
928.109629947355	1261
928.815247491593	1263.19995117188
929.520776258708	1258.80004882813
930.226216256519	1249
930.931567492841	1252.40002441406
931.636829975482	1256.19995117188
932.342003712263	1252.19995117188
933.047088710995	1249.40002441406
933.752084979491	1252.80004882813
934.456992525564	1250.80004882813
935.161811357024	1252.59997558594
935.866541481688	1264.19995117188
936.571182907363	1254.80004882813
937.275735641861	1257.19995117188
937.980199692995	1263.59997558594
938.684575068572	1260.80004882813
939.388861776411	1275.59997558594
940.093059824311	1267
940.797169220085	1254.80004882813
941.501189971544	1248.80004882813
942.205122086495	1254.80004882813
942.908965572751	1242.40002441406
943.612720438111	1243.59997558594
944.316386690391	1254.80004882813
945.019964337391	1245.80004882813
945.723453386924	1247.40002441406
946.426853846795	1247.80004882813
947.130165724808	1238.19995117188
947.83338902877	1236.80004882813
948.536523766488	1239.40002441406
949.239569945764	1233
949.942527574402	1241.40002441406
950.64539666021	1244.80004882813
951.348177210993	1238
952.050869234548	1229.80004882813
952.753472738683	1229.40002441406
953.455987731199	1231.80004882813
954.158414219898	1227.19995117188
954.860752212587	1230.40002441406
955.563001717061	1238.19995117188
956.265162741124	1251.40002441406
956.967235292576	1243.40002441406
957.669219379224	1241.80004882813
958.371115008857	1237.80004882813
959.072922189283	1248.80004882813
959.774640928301	1262
960.476271233708	1253.40002441406
961.177813113301	1251
961.879266574882	1252.40002441406
962.580631626248	1250.59997558594
963.281908275194	1243.40002441406
963.98309652952	1244.80004882813
964.684196397022	1243.59997558594
965.3852078855	1228.40002441406
966.086131002745	1240.59997558594
966.786965756555	1230.19995117188
967.487712154726	1234.80004882813
968.188370205055	1239.19995117188
968.888939915331	1239.40002441406
969.589421293352	1243
970.289814346909	1249.40002441406
970.990119083801	1245.19995117188
971.690335511819	1242.59997558594
972.39046363875	1250.80004882813
973.090503472398	1252
973.790455020545	1246.59997558594
974.490318290987	1237.19995117188
975.190093291516	1236.19995117188
975.889780029923	1239.80004882813
976.589378513998	1244.59997558594
977.288888751527	1241.19995117188
977.988310750308	1250.59997558594
978.687644518122	1246.19995117188
979.386890062767	1234.59997558594
980.086047392025	1231.19995117188
980.785116513689	1229.59997558594
981.484097435542	1221.59997558594
982.182990165377	1226.59997558594
982.88179471098	1217.40002441406
983.580511080137	1222.40002441406
984.279139280632	1227.59997558594
984.977679320253	1227.59997558594
985.67613120679	1235.59997558594
986.374494948027	1233
987.072770551745	1239.59997558594
987.770958025731	1227.80004882813
988.469057377772	1235
989.167068615649	1233
989.864991747145	1237.59997558594
990.562826780047	1240.19995117188
991.260573722134	1243.40002441406
991.958232581195	1237.19995117188
992.655803365003	1229.19995117188
993.353286081346	1230
994.050680738006	1228.40002441406
994.74798734276	1244.19995117188
995.44520590339	1243.80004882813
996.142336427681	1240.19995117188
996.839378923407	1238
997.536333398348	1236
998.233199860289	1238
998.929978317004	1249
999.626668776274	1247.19995117188
1000.32327124587	1244.59997558594
1001.01978573359	1247.80004882813
1001.71621224718	1239
1002.41255079445	1243.40002441406
1003.10880138315	1242.80004882813
1003.80496402107	1242.19995117188
1004.50103871599	1234.80004882813
1005.19702547567	1247.80004882813
1005.8929243079	1248.80004882813
1006.58873522045	1247.59997558594
1007.2844582211	1250.59997558594
1007.98009331761	1253.40002441406
1008.67564051776	1257
1009.37109982933	1250.80004882813
1010.06647126009	1249.80004882813
1010.7617548178	1240.80004882813
1011.45695051026	1248
1012.15205834522	1254.59997558594
1012.84707833045	1242.80004882813
1013.54201047373	1243
1014.23685478284	1258.80004882813
1014.93161126553	1252.80004882813
1015.62627992959	1249.59997558594
1016.32086078277	1253.19995117188
1017.01535383285	1250.59997558594
1017.70975908761	1246
1018.40407655479	1243.19995117188
1019.09830624219	1253.80004882813
1019.79244815755	1257.19995117188
1020.48650230866	1260.19995117188
1021.18046870328	1259.80004882813
1021.87434734917	1258
1022.56813825411	1259
1023.26184142584	1254.19995117188
1023.95545687216	1249.59997558594
1024.64898460082	1253.40002441406
1025.34242461957	1250.80004882813
1026.0357769362	1238.59997558594
1026.72904155846	1240.59997558594
1027.42221849412	1240.80004882813
1028.11530775094	1236
1028.80830933668	1236.59997558594
1029.50122325911	1232.40002441406
1030.19404952599	1245.19995117188
1030.88678814508	1250
1031.57943912414	1239.19995117188
1032.27200247093	1238.19995117188
1032.96447819323	1230.80004882813
1033.65686629878	1228.19995117188
1034.34916679534	1231
1035.04137969068	1228.40002441406
1035.73350499256	1230.19995117188
1036.42554270874	1245.80004882813
1037.11749284697	1241
1037.80935541501	1254.80004882813
1038.50113042062	1250.80004882813
1039.19281787156	1254.80004882813
1039.88441777559	1252.19995117188
1040.57593014046	1252.19995117188
1041.26735497393	1240
1041.95869228376	1233.40002441406
1042.6499420777	1232.59997558594
1043.3411043635	1235
1044.03217914893	1236
1044.72316644174	1244
1045.41406624968	1244
1046.1048785805	1248.19995117188
1046.79560344197	1240.19995117188
1047.48624084182	1236.40002441406
1048.17679078783	1240.40002441406
1048.86725328774	1234.40002441406
1049.55762834929	1233.19995117188
1050.24791598025	1236.40002441406
1050.93811618837	1238.19995117188
1051.62822898139	1244.59997558594
1052.31825436707	1239.80004882813
1053.00819235315	1240.19995117188
1053.6980429474	1242.40002441406
1054.38780615755	1236.19995117188
1055.07748199136	1228.59997558594
1055.76707045658	1234.19995117188
1056.45657156095	1226.59997558594
1057.14598531222	1227.59997558594
1057.83531171814	1218.19995117188
1058.52455078646	1223
1059.21370252494	1216.59997558594
1059.90276694129	1220.40002441406
1060.5917440433	1221.80004882813
1061.28063383868	1216.59997558594
1061.9694363352	1216.59997558594
1062.65815154059	1214.40002441406
1063.34677946261	1225.19995117188
1064.03532010899	1233.80004882813
1064.72377348748	1237.59997558594
1065.41213960583	1234.59997558594
1066.10041847177	1241.59997558594
1066.78861009306	1236.40002441406
1067.47671447743	1232.19995117188
1068.16473163263	1237
1068.85266156639	1231.19995117188
1069.54050428647	1217.40002441406
1070.2282598006	1223
1070.91592811652	1222.80004882813
1071.60350924198	1235
1072.29100318471	1234
1072.97840995245	1241.59997558594
1073.66572955295	1249
1074.35296199394	1241
1075.04010728316	1233.59997558594
1075.72716542836	1231.59997558594
1076.41413643726	1234.59997558594
1077.10102031761	1237
1077.78781707715	1222.40002441406
1078.4745267236	1213.19995117188
1079.16114926471	1203.59997558594
1079.84768470822	1213.59997558594
1080.53413306185	1226.40002441406
1081.22049433336	1222.80004882813
1081.90676853046	1226.80004882813
1082.5929556609	1222.19995117188
1083.27905573241	1222.59997558594
1083.96506875272	1220.59997558594
1084.65099472957	1228.40002441406
1085.3368336707	1229.40002441406
1086.02258558383	1219.19995117188
1086.70825047669	1226.59997558594
1087.39382835703	1231.40002441406
1088.07931923257	1227.80004882813
1088.76472311104	1218.40002441406
1089.45004000018	1225.40002441406
1090.13526990771	1235.40002441406
1090.82041284137	1242.19995117188
1091.50546880889	1248.80004882813
1092.19043781799	1250.80004882813
1092.87531987642	1249.80004882813
1093.56011499188	1237.59997558594
1094.24482317212	1243.40002441406
1094.92944442486	1239.59997558594
1095.61397875783	1236.19995117188
1096.29842617876	1239.19995117188
1096.98278669537	1242.40002441406
1097.6670603154	1232
1098.35124704656	1249.19995117188
1099.03534689659	1243.19995117188
1099.71935987322	1248.40002441406
1100.40328598416	1241
1101.08712523713	1238.80004882813
1101.77087763988	1237.40002441406
1102.45454320012	1233.59997558594
1103.13812192557	1231.59997558594
1103.82161382396	1243.40002441406
1104.50501890301	1247
1105.18833717045	1240
1105.87156863399	1244.40002441406
1106.55471330137	1241.40002441406
1107.2377711803	1245
1107.9207422785	1241.59997558594
1108.60362660369	1235.40002441406
1109.2864241636	1239.40002441406
1109.96913496594	1239.59997558594
1110.65175901844	1238.59997558594
1111.33429632882	1238.19995117188
1112.01674690479	1246.80004882813
1112.69911075408	1250.40002441406
1113.38138788439	1243
1114.06357830346	1256.80004882813
1114.745682019	1255.59997558594
1115.42769903872	1244.19995117188
1116.10962937035	1251.59997558594
1116.7914730216	1245.59997558594
1117.47323000018	1237.80004882813
1118.15490031382	1223
1118.83648397022	1233.19995117188
1119.51798097712	1246.59997558594
1120.1993913422	1236.80004882813
1120.88071507321	1230.40002441406
1121.56195217784	1227.80004882813
1122.24310266381	1218.19995117188
1122.92416653884	1221.19995117188
1123.60514381064	1230.80004882813
1124.28603448692	1232.40002441406
1124.9668385754	1239.80004882813
1125.64755608378	1223.19995117188
1126.32818701978	1236
1127.00873139111	1248.80004882813
1127.68918920548	1234.40002441406
1128.3695604706	1233.80004882813
1129.04984519419	1241.59997558594
1129.73004338394	1253
1130.41015504758	1254.40002441406
1131.09018019281	1247.19995117188
1131.77011882734	1241.19995117188
1132.44997095888	1236.59997558594
1133.12973659514	1234.40002441406
1133.80941574381	1245.59997558594
1134.48900841263	1231.59997558594
1135.16851460927	1246.59997558594
1135.84793434147	1237.59997558594
1136.52726761692	1245.59997558594
1137.20651444333	1237.19995117188
1137.8856748284	1236.80004882813
1138.56474877984	1246.80004882813
1139.24373630536	1245.59997558594
1139.92263741265	1235.59997558594
1140.60145210943	1238.40002441406
1141.28018040339	1237.80004882813
1141.95882230225	1230.59997558594
1142.6373778137	1242.19995117188
1143.31584694545	1223.19995117188
1143.99422970519	1231.59997558594
1144.67252610064	1229.19995117188
1145.35073613949	1230.59997558594
1146.02885982944	1237
1146.7068971782	1231
1147.38484819347	1230.80004882813
1148.06271288294	1237.59997558594
1148.74049125432	1237.59997558594
1149.41818331531	1243.59997558594
1150.0957890736	1238.59997558594
1150.77330853689	1240.59997558594
1151.45074171289	1231.19995117188
1152.12808860928	1226.19995117188
1152.80534923378	1229.19995117188
1153.48252359407	1226.40002441406
1154.15961169786	1222.59997558594
1154.83661355283	1235
1155.51352916669	1237.19995117188
1156.19035854713	1244.80004882813
1156.86710170185	1233.80004882813
1157.54375863855	1232
1158.22032936491	1240.40002441406
1158.89681388863	1239.40002441406
1159.57321221741	1244.19995117188
1160.24952435894	1241.19995117188
1160.92575032092	1236.40002441406
1161.60189011103	1238
1162.27794373697	1242
1162.95391120644	1235.40002441406
1163.62979252712	1232.40002441406
1164.3055877067	1230
1164.98129675288	1236.40002441406
1165.65691967336	1236
1166.33245647581	1228.40002441406
1167.00790716792	1241.59997558594
1167.6832717574	1238.80004882813
1168.35855025193	1238.80004882813
1169.0337426592	1238.19995117188
1169.70884898689	1238.80004882813
1170.3838692427	1236.40002441406
1171.05880343431	1241.19995117188
1171.73365156941	1244.40002441406
1172.40841365569	1241.80004882813
1173.08308970083	1236
1173.75767971253	1236.19995117188
1174.43218369847	1235
1175.10660166633	1239
1175.7809336238	1239.40002441406
1176.45517957857	1236.80004882813
1177.12933953832	1233
1177.80341351073	1233.59997558594
1178.47740150349	1234.40002441406
1179.15130352429	1239.40002441406
1179.8251195808	1234.80004882813
1180.49884968071	1238.59997558594
1181.1724938317	1254
1181.84605204145	1255.59997558594
1182.51952431766	1257.19995117188
1183.19291066799	1277.40002441406
1183.86621110013	1264.59997558594
1184.53942562176	1273.80004882813
1185.21255424057	1253.59997558594
1185.88559696422	1252.80004882813
1186.55855380041	1239.19995117188
1187.2314247568	1246
1187.90420984109	1235.19995117188
1188.57690906095	1246
1189.24952242405	1241
1189.92204993808	1230.80004882813
1190.59449161071	1233.59997558594
1191.26684744962	1234.19995117188
1191.93911746249	1230.19995117188
1192.61130165699	1234.80004882813
1193.28340004081	1238.59997558594
1193.95541262161	1243.59997558594
1194.62733940707	1244.80004882813
1195.29918040487	1250.19995117188
1195.97093562269	1251
1196.64260506819	1258.59997558594
1197.31418874905	1257.80004882813
1197.98568667295	1263.19995117188
1198.65709884755	1278.59997558594
1199.32842528053	1274
1199.99966597957	1279.19995117188
1200.67082095234	1273.40002441406
1201.3418902065	1267.59997558594
1202.01287374974	1265.19995117188
1202.68377158971	1244.80004882813
1203.3545837341	1237.59997558594
1204.02531019057	1241
1204.6959509668	1231.40002441406
1205.36650607045	1240.19995117188
1206.03697550919	1231.80004882813
1206.70735929069	1239.40002441406
1207.37765742263	1233.80004882813
1208.04786991266	1241
1208.71799676846	1241.59997558594
1209.38803799769	1247.80004882813
1210.05799360803	1234.80004882813
1210.72786360714	1237.19995117188
1211.39764800268	1228.80004882813
1212.06734680233	1224
1212.73696001375	1220.19995117188
1213.4064876446	1215.59997558594
1214.07592970255	1221.80004882813
1214.74528619526	1218
1215.4145571304	1213.80004882813
1216.08374251564	1215.80004882813
1216.75284235863	1223.80004882813
1217.42185666704	1223.40002441406
1218.09078544854	1223
1218.75962871078	1216
1219.42838646143	1217.40002441406
1220.09705870816	1220.80004882813
1220.76564545861	1219.40002441406
1221.43414672046	1227.19995117188
1222.10256250136	1219
1222.77089280898	1222.40002441406
1223.43913765098	1223.80004882813
1224.107297035	1229
1224.77537096873	1225
1225.44335945981	1221.59997558594
1226.1112625159	1224.59997558594
1226.77908014467	1212.80004882813
1227.44681235376	1215.40002441406
1228.11445915085	1206.59997558594
1228.78202054357	1206.19995117188
1229.44949653961	1209.40002441406
1230.11688714659	1217.59997558594
1230.7841923722	1215
1231.45141222407	1215.40002441406
1232.11854670988	1226.80004882813
1232.78559583726	1221.59997558594
1233.45255961388	1228
1234.1194380474	1236.40002441406
1234.78623114546	1243.19995117188
1235.45293891572	1230.80004882813
1236.11956136583	1233
1236.78609850345	1243
1237.45255033623	1238.59997558594
1238.11891687182	1243
1238.78519811788	1236.19995117188
1239.45139408205	1234.19995117188
1240.11750477198	1233.80004882813
1240.78353019534	1228
1241.44947035976	1220.80004882813
1242.11532527291	1228
1242.78109494242	1234.19995117188
1243.44677937595	1222.59997558594
1244.11237858115	1232.59997558594
1244.77789256567	1229.59997558594
1245.44332133715	1223.40002441406
1246.10866490325	1207.59997558594
1246.7739232716	1217.59997558594
1247.43909644987	1219.19995117188
1248.10418444569	1218.59997558594
1248.76918726671	1217.80004882813
1249.43410492059	1209.40002441406
1250.09893741496	1225
1250.76368475747	1227.40002441406
1251.42834695576	1230.40002441406
1252.09292401749	1236.40002441406
1252.75741595029	1232
1253.42182276182	1230.80004882813
1254.08614445971	1219
1254.75038105161	1226.19995117188
1255.41453254515	1228.40002441406
1256.07859894799	1238
1256.74258026777	1231.19995117188
1257.40647651213	1236.40002441406
1258.0702876887	1238
1258.73401380514	1237
1259.39765486908	1246
1260.06121088817	1248.19995117188
1260.72468187004	1227.59997558594
1261.38806782233	1224
1262.05136875269	1225.19995117188
1262.71458466875	1228.40002441406
1263.37771557815	1221.80004882813
1264.04076148854	1231.19995117188
1264.70372240753	1227
1265.3665983428	1231
1266.02938930195	1239.19995117188
1266.69209529263	1237.59997558594
1267.35471632249	1238.40002441406
1268.01725239914	1221
1268.67970353024	1223.19995117188
1269.34206972342	1229.19995117188
1270.00435098631	1217.80004882813
1270.66654732655	1225.19995117188
1271.32865875177	1225.19995117188
1271.9906852696	1233.80004882813
1272.65262688768	1224.59997558594
1273.31448361365	1247.80004882813
1273.97625545514	1241.40002441406
1274.63794241978	1233.19995117188
1275.2995445152	1225.59997558594
1275.96106174903	1222.59997558594
1276.62249412892	1223
1277.28384166248	1216
1277.94510435735	1226.80004882813
1278.60628222116	1224.40002441406
1279.26737526155	1235.40002441406
1279.92838348613	1228.80004882813
1280.58930690255	1241
1281.25014551842	1240
1281.91089934139	1252.59997558594
1282.57156837907	1242.40002441406
1283.2321526391	1234.40002441406
1283.89265212911	1236.19995117188
1284.55306685671	1227.80004882813
1285.21339682955	1219.80004882813
1285.87364205525	1234
1286.53380254142	1228.59997558594
1287.19387829571	1236
1287.85386932573	1232.80004882813
1288.51377563911	1224.80004882813
1289.17359724348	1221.59997558594
1289.83333414646	1223.19995117188
1290.49298635567	1224.59997558594
1291.15255387874	1226.80004882813
1291.8120367233	1218.80004882813
1292.47143489696	1226.19995117188
1293.13074840736	1220.80004882813
1293.7899772621	1227.40002441406
1294.44912146882	1232.40002441406
1295.10818103513	1226.19995117188
1295.76715596866	1227.59997558594
1296.42604627704	1213
1297.08485196787	1225.19995117188
1297.74357304878	1228.80004882813
1298.4022095274	1228.40002441406
1299.06076141134	1231.80004882813
1299.71922870821	1220.19995117188
1300.37761142565	1238.59997558594
1301.03590957126	1241.80004882813
1301.69412315268	1241.59997558594
1302.3522521775	1248.59997558594
1303.01029665336	1251.59997558594
1303.66825658787	1251.59997558594
1304.32613198865	1245.59997558594
1304.98392286332	1264.59997558594
1305.64162921948	1253.59997558594
1306.29925106476	1241.80004882813
1306.95678840677	1252.19995117188
1307.61424125312	1239.40002441406
1308.27160961145	1223.19995117188
1308.92889348934	1224.40002441406
1309.58609289443	1239.19995117188
1310.24320783432	1226.80004882813
1310.90023831664	1234
1311.55718434898	1246
1312.21404593897	1246.40002441406
1312.87082309421	1248.59997558594
1313.52751582233	1241.59997558594
1314.18412413092	1245.19995117188
1314.84064802761	1240.19995117188
1315.49708752	1244.80004882813
1316.1534426157	1250.19995117188
1316.80971332233	1246.59997558594
1317.46589964749	1247.19995117188
1318.1220015988	1242.40002441406
1318.77801918386	1255.19995117188
1319.43395241028	1246.59997558594
1320.08980128567	1264
1320.74556581764	1256.59997558594
1321.4012460138	1239.40002441406
1322.05684188176	1243.59997558594
1322.71235342911	1244.80004882813
1323.36778066347	1253
1324.02312359245	1249.59997558594
1324.67838222365	1260.80004882813
1325.33355656468	1254.19995117188
1325.98864662314	1249.80004882813
1326.64365240663	1246
1327.29857392277	1256.80004882813
1327.95341117915	1246.80004882813
1328.60816418339	1252.59997558594
1329.26283294308	1257.40002441406
1329.91741746582	1248.40002441406
1330.57191775923	1248.59997558594
1331.2263338309	1250.80004882813
1331.88066568843	1259
1332.53491333943	1246.40002441406
1333.1890767915	1245.19995117188
1333.84315605224	1220.40002441406
1334.49715112925	1231.19995117188
1335.15106203013	1232.40002441406
1335.80488876249	1247.19995117188
1336.45863133391	1241.80004882813
1337.112289752	1247.80004882813
1337.76586402437	1246.59997558594
1338.4193541586	1257.40002441406
1339.0727601623	1251.19995117188
1339.72608204306	1248.80004882813
1340.37931980849	1258.80004882813
1341.03247346617	1251
1341.68554302372	1253.40002441406
1342.33852848871	1247.59997558594
1342.99142986876	1253.80004882813
1343.64424717145	1249.19995117188
1344.29698040438	1249
1344.94962957515	1242.59997558594
1345.60219469135	1252.19995117188
1346.25467576058	1239.59997558594
1346.90707279042	1243.40002441406
1347.55938578848	1248.19995117188
1348.21161476235	1248.19995117188
1348.86375971962	1250.19995117188
1349.51582066787	1257.19995117188
1350.16779761472	1248.40002441406
1350.81969056774	1255.59997558594
1351.47149953453	1259.19995117188
1352.12322452269	1272.40002441406
1352.77486553979	1280.19995117188
1353.42642259344	1268.40002441406
1354.07789569122	1289.40002441406
1354.72928484072	1282.40002441406
1355.38059004953	1284.19995117188
1356.03181132525	1291.80004882813
1356.68294867545	1290
1357.33400210773	1296.80004882813
1357.98497162968	1287
1358.63585724889	1294.80004882813
1359.28665897294	1286.40002441406
1359.93737680942	1289.80004882813
1360.58801076591	1286.40002441406
1361.23856085001	1283.80004882813
1361.88902706929	1286.19995117188
1362.53940943135	1278.40002441406
1363.18970794377	1281.59997558594
1363.83992261413	1302
1364.49005345003	1308
1365.14010045904	1303.40002441406
1365.79006364874	1306.40002441406
1366.43994302673	1302.59997558594
1367.08973860058	1297.59997558594
1367.73945037788	1304.19995117188
1368.38907836621	1298.40002441406
1369.03862257315	1285.59997558594
1369.68808300629	1275.80004882813
1370.3374596732	1267.80004882813
1370.98675258148	1261.40002441406
1371.63596173868	1258.40002441406
1372.28508715241	1255.19995117188
1372.93412883024	1268.19995117188
1373.58308677974	1265.40002441406
1374.2319610085	1252.19995117188
1374.8807515241	1240.80004882813
1375.52945833412	1239.40002441406
1376.17808144612	1232
1376.82662086771	1240.80004882813
1377.47507660644	1238.40002441406
1378.12344866989	1234.80004882813
1378.77173706565	1239.59997558594
1379.41994180129	1236.40002441406
1380.06806288439	1226.80004882813
1380.71610032252	1227.19995117188
1381.36405412326	1229.80004882813
1382.01192429419	1218
1382.65971084287	1223.40002441406
1383.30741377688	1216.19995117188
1383.95503310381	1216.19995117188
1384.60256883121	1217.59997558594
1385.25002096667	1211.80004882813
1385.89738951775	1226.40002441406
1386.54467449204	1232.80004882813
1387.19187589709	1224.59997558594
1387.8389937405	1215
1388.48602802982	1226
1389.13297877262	1223.59997558594
1389.77984597649	1221
1390.42662964899	1223.80004882813
1391.07332979768	1227.59997558594
1391.71994643015	1227.80004882813
1392.36647955395	1222.19995117188
1393.01292917667	1222.59997558594
1393.65929530586	1208.19995117188
1394.3055779491	1212.80004882813
1394.95177711395	1214.59997558594
1395.59789280799	1223.40002441406
1396.24392503877	1221.40002441406
1396.88987381387	1217.59997558594
1397.53573914086	1218.80004882813
1398.1815210273	1214
1398.82721948075	1213.19995117188
1399.47283450878	1210
1400.11836611897	1203.19995117188
1400.76381431886	1213
1401.40917911603	1209.40002441406
1402.05446051805	1214.40002441406
1402.69965853247	1206.19995117188
1403.34477316686	1213
1403.98980442878	1207.59997558594
1404.6347523258	1207
1405.27961686548	1200.80004882813
1405.92439805538	1205.59997558594
1406.56909590306	1215.40002441406
1407.21371041608	1220.19995117188
1407.85824160202	1232.80004882813
1408.50268946841	1227.59997558594
1409.14705402284	1225.40002441406
1409.79133527285	1223.59997558594
1410.43553322601	1229.59997558594
1411.07964788987	1217.80004882813
1411.723679272	1222.80004882813
1412.36762737996	1224.59997558594
1413.01149222129	1224
1413.65527380357	1216.40002441406
1414.29897213435	1207.80004882813
1414.94258722118	1206.19995117188
1415.58611907163	1201.19995117188
1416.22956769325	1185.40002441406
1416.87293309359	1193.40002441406
1417.51621528021	1198.19995117188
1418.15941426067	1200
1418.80253004253	1210.80004882813
1419.44556263333	1215.59997558594
1420.08851204063	1211
1420.731378272	1216
1421.37416133497	1214.80004882813
1422.0168612371	1206.19995117188
1422.65947798596	1213
1423.30201158908	1212.40002441406
1423.94446205403	1206.40002441406
1424.58682938835	1217.59997558594
1425.2291135996	1211.80004882813
1425.87131469532	1198.80004882813
1426.51343268308	1206.80004882813
1427.15546757042	1208.80004882813
1427.79741936488	1205.40002441406
1428.43928807403	1204.19995117188
1429.0810737054	1217.80004882813
1429.72277626656	1208.40002441406
1430.36439576504	1211.40002441406
1431.00593220841	1202.59997558594
1431.64738560419	1202
1432.28875595995	1207.59997558594
1432.93004328324	1204.80004882813
1433.57124758159	1203.40002441406
1434.21236886255	1212.80004882813
1434.85340713368	1221
1435.49436240252	1212
1436.13523467661	1217.80004882813
1436.77602396349	1211
1437.41673027073	1211
1438.05735360585	1198.19995117188
1438.69789397641	1194.59997558594
1439.33835138994	1190
1439.978725854	1188.40002441406
1440.61901737612	1193.40002441406
1441.25922596385	1201
1441.89935162473	1191.59997558594
1442.53939436631	1189.40002441406
1443.17935419612	1190.80004882813
1443.81923112171	1199.59997558594
1444.45902515061	1204.19995117188
1445.09873629038	1198.40002441406
1445.73836454854	1197.40002441406
1446.37790993265	1205
1447.01737245024	1200.40002441406
1447.65675210885	1200.59997558594
1448.29604891602	1202.80004882813
1448.93526287928	1196.19995117188
1449.57439400618	1201.80004882813
1450.21344230426	1208.80004882813
1450.85240778105	1209.40002441406
1451.49129044409	1218.80004882813
1452.13009030092	1217.80004882813
1452.76880735907	1225.19995117188
1453.40744162608	1226
1454.04599310949	1232.19995117188
1454.68446181683	1220.80004882813
1455.32284775564	1212.80004882813
1455.96115093345	1212.40002441406
1456.5993713578	1218
1457.23750903623	1226.19995117188
1457.87556397626	1220.40002441406
1458.51353618543	1229.19995117188
1459.15142567127	1224.19995117188
1459.78923244132	1224
1460.42695650311	1215.59997558594
1461.06459786417	1218.40002441406
1461.70215653203	1223
1462.33963251423	1215
1462.97702581829	1211.40002441406
1463.61433645175	1218
1464.25156442214	1210.19995117188
1464.88870973699	1215
1465.52577240382	1221.19995117188
1466.16275243017	1227
1466.79964982356	1219.40002441406
1467.43646459154	1216.80004882813
1468.07319674161	1214.80004882813
1468.70984628132	1218.40002441406
1469.34641321818	1214.59997558594
1469.98289755974	1222.80004882813
1470.6192993135	1218.40002441406
1471.25561848701	1215.40002441406
1471.89185508779	1210.40002441406
1472.52800912336	1207.19995117188
1473.16408060124	1215
1473.80006952897	1215
1474.43597591407	1212.59997558594
1475.07179976406	1210.80004882813
1475.70754108647	1207
1476.34319988883	1199
1476.97877617865	1206.80004882813
1477.61426996345	1213
1478.24968125077	1208.40002441406
1478.88501004812	1193.40002441406
1479.52025636303	1215.80004882813
1480.15542020302	1216.59997558594
1480.79050157561	1210.59997558594
1481.42550048832	1216.40002441406
1482.06041694867	1217.80004882813
1482.69525096418	1223
1483.33000254237	1212.59997558594
1483.96467169077	1206.19995117188
1484.59925841689	1207.59997558594
1485.23376272825	1216.59997558594
1485.86818463237	1212.19995117188
1486.50252413677	1223.59997558594
1487.13678124896	1212
1487.77095597646	1208.19995117188
1488.4050483268	1206.80004882813
1489.03905830749	1204.80004882813
1489.67298592604	1219.80004882813
1490.30683118996	1223.19995117188
1490.9405941068	1215.59997558594
1491.57427468403	1226
1492.2078729292	1215.59997558594
1492.84138884981	1220.80004882813
1493.47482245338	1219
1494.10817374742	1220.40002441406
1494.74144273944	1215
1495.37462943696	1221.19995117188
1496.0077338475	1228
1496.64075597856	1248.59997558594
1497.27369583765	1238.19995117188
1497.9065534323	1223
1498.53932877001	1237.59997558594
1499.17202185829	1219.40002441406
1499.80463270465	1228.80004882813
1500.43716131661	1232.59997558594
1501.06960770167	1242.19995117188
1501.70197186735	1244.59997558594
1502.33425382116	1243.59997558594
1502.96645357059	1260
1503.59857112317	1248.19995117188
1504.23060648641	1251.59997558594
1504.8625596678	1253
1505.49443067486	1253.59997558594
1506.1262195151	1253
1506.75792619602	1247.40002441406
1507.38955072513	1253.80004882813
1508.02109310993	1253.59997558594
1508.65255335794	1249
1509.28393147666	1246.80004882813
1509.91522747359	1232.40002441406
1510.54644135624	1234.40002441406
1511.17757313212	1236.19995117188
1511.80862280872	1235.59997558594
1512.43959039356	1237.40002441406
1513.07047589413	1241
1513.70127931795	1244.40002441406
1514.33200067251	1242
1514.96263996531	1243.80004882813
1515.59319720386	1237
1516.22367239567	1241.59997558594
1516.85406554822	1231.80004882813
1517.48437666903	1220.19995117188
1518.1146057656	1219.80004882813
1518.74475284542	1219.59997558594
1519.374817916	1216.40002441406
1520.00480098483	1212.40002441406
1520.63470205942	1214.40002441406
1521.26452114726	1220.40002441406
1521.89425825586	1231.59997558594
1522.52391339271	1219.80004882813
1523.15348656531	1211
1523.78297778116	1209.19995117188
1524.41238704775	1216.80004882813
1525.04171437259	1223.40002441406
1525.67095976317	1218
1526.30012322699	1214
1526.92920477154	1212
1527.55820440432	1207.59997558594
1528.18712213283	1196.19995117188
1528.81595796455	1197.19995117188
1529.44471190699	1198.40002441406
1530.07338396764	1199.19995117188
1530.70197415399	1200.59997558594
1531.33048247353	1212.59997558594
1531.95890893377	1210.59997558594
1532.58725354219	1220
1533.21551630629	1214
1533.84369723356	1207.40002441406
1534.47179633148	1205
1535.09981360757	1208.80004882813
1535.72774906929	1205.80004882813
1536.35560272415	1209.80004882813
1536.98337457963	1209
1537.61106464323	1207
1538.23867292243	1218.40002441406
1538.86619942473	1219.19995117188
1539.49364415762	1219.40002441406
1540.12100712857	1220.19995117188
1540.74828834509	1223.19995117188
1541.37548781466	1230
1542.00260554478	1217.19995117188
1542.62964154291	1218.19995117188
1543.25659581655	1214.59997558594
1543.8834683732	1211.59997558594
1544.51025922034	1214.59997558594
1545.13696836544	1215.40002441406
1545.76359581601	1213.59997558594
1546.39014157952	1207.80004882813
1547.01660566345	1211.59997558594
1547.64298807531	1206.80004882813
1548.26928882255	1213.80004882813
1548.89550791269	1205.19995117188
1549.52164535318	1212.59997558594
1550.14770115153	1217.19995117188
1550.77367531521	1206.59997558594
1551.39956785171	1212.40002441406
1552.0253787685	1214
1552.65110807307	1204
1553.2767557729	1210.59997558594
1553.90232187548	1211.59997558594
1554.52780638828	1216.19995117188
1555.15320931879	1207
1555.77853067447	1204.40002441406
1556.40377046282	1210.80004882813
1557.02892869132	1207.80004882813
1557.65400536744	1210
1558.27900049866	1209.80004882813
1558.90391409247	1202.40002441406
1559.52874615633	1199.80004882813
1560.15349669773	1206.80004882813
1560.77816572414	1215
1561.40275324305	1218.80004882813
1562.02725926192	1221.80004882813
1562.65168378824	1217.80004882813
1563.27602682948	1215.19995117188
1563.90028839311	1229.40002441406
1564.52446848662	1223.59997558594
1565.14856711748	1214.80004882813
1565.77258429316	1225.59997558594
1566.39652002113	1219.19995117188
1567.02037430887	1223.59997558594
1567.64414716387	1224.59997558594
1568.26783859357	1230.59997558594
1568.89144860547	1234
1569.51497720703	1237.59997558594
1570.13842440573	1234.59997558594
1570.76179020904	1241
1571.38507462442	1237.80004882813
1572.00827765936	1231.80004882813
1572.63139932132	1229.80004882813
1573.25443961777	1230
1573.87739855618	1224.19995117188
1574.50027614402	1220.59997558594
1575.12307238877	1211.40002441406
1575.74578729789	1219.19995117188
1576.36842087885	1216.80004882813
1576.99097313912	1217.59997558594
1577.61344408616	1219.19995117188
1578.23583372745	1218.59997558594
1578.85814207046	1217.19995117188
1579.48036912264	1221.19995117188
1580.10251489147	1220.19995117188
1580.72457938441	1218.80004882813
1581.34656260893	1219.40002441406
1581.9684645725	1225.59997558594
1582.59028528258	1218
1583.21202474663	1217.19995117188
1583.83368297212	1212.59997558594
1584.45525996652	1202.80004882813
1585.07675573728	1203.19995117188
1585.69817029188	1206.59997558594
1586.31950363778	1197.59997558594
1586.94075578243	1191.59997558594
1587.5619267333	1185.40002441406
1588.18301649786	1188
1588.80402508357	1176.19995117188
1589.42495249788	1173.80004882813
1590.04579874826	1175.80004882813
1590.66656384217	1175
1591.28724778707	1182.40002441406
1591.90785059042	1176.19995117188
1592.52837225968	1182.59997558594
1593.14881280232	1178.59997558594
1593.76917222578	1175.19995117188
1594.38945053753	1174.19995117188
1595.00964774502	1177.80004882813
1595.62976385573	1167.80004882813
1596.24979887709	1171
1596.86975281657	1183.40002441406
1597.48962568164	1189.40002441406
1598.10941747974	1193
1598.72912821832	1201
1599.34875790486	1209
1599.9683065468	1205.40002441406
1600.58777415159	1207.80004882813
1601.2071607267	1201.59997558594
1601.82646627958	1192.80004882813
1602.44569081769	1189
1603.06483434846	1176.19995117188
1603.68389687937	1170.59997558594
1604.30287841786	1160.19995117188
1604.92177897139	1160.40002441406
1605.54059854741	1167.80004882813
1606.15933715337	1153.59997558594
1606.77799479672	1156.59997558594
1607.39657148492	1162
1608.01506722542	1158.80004882813
1608.63348202566	1163
1609.2518158931	1162.80004882813
1609.87006883519	1156
1610.48824085939	1162.40002441406
1611.10633197312	1158.19995117188
1611.72434218386	1157.80004882813
1612.34227149904	1154.40002441406
1612.96011992612	1147.80004882813
1613.57788747254	1150.40002441406
1614.19557414575	1145.19995117188
1614.8131799532	1147.40002441406
1615.43070490234	1144.40002441406
1616.04814900061	1144
1616.66551225545	1141.80004882813
1617.28279467433	1147
1617.89999626467	1149.80004882813
1618.51711703393	1149.80004882813
1619.13415698955	1158.59997558594
1619.75111613898	1162.40002441406
1620.36799448966	1163
1620.98479204903	1158.59997558594
1621.60150882455	1166.59997558594
1622.21814482364	1165.40002441406
1622.83470005376	1167
1623.45117452235	1165.19995117188
1624.06756823685	1157
1624.6838812047	1162
1625.30011343335	1155.59997558594
1625.91626493022	1152.19995117188
1626.53233570278	1148.59997558594
1627.14832575845	1148.19995117188
1627.76423510468	1149
1628.38006374891	1153.40002441406
1628.99581169857	1160.19995117188
1629.61147896111	1165
1630.22706554397	1157.40002441406
1630.84257145457	1150.59997558594
1631.45799670038	1152.40002441406
1632.07334128881	1160
1632.6886052273	1154.80004882813
1633.3037885233	1151.19995117188
1633.91889118425	1155.80004882813
1634.53391321757	1154
1635.1488546307	1161.80004882813
1635.76371543108	1160.19995117188
1636.37849562616	1162
1636.99319522335	1159.40002441406
1637.60781423009	1159
1638.22235265383	1168.19995117188
1638.83681050198	1166
1639.451187782	1168
1640.0654845013	1174
1640.67970066734	1171.59997558594
1641.29383628752	1175.59997558594
1641.9078913693	1168.80004882813
1642.5218659201	1169.40002441406
1643.13575994735	1173.19995117188
1643.74957345849	1183.80004882813
1644.36330646094	1180
1644.97695896213	1177.59997558594
1645.59053096951	1182.80004882813
1646.20402249049	1177.19995117188
1646.8174335325	1189.40002441406
1647.43076410298	1181.19995117188
1648.04401420935	1174.19995117188
1648.65718385905	1175.59997558594
1649.2702730595	1169
1649.88328181812	1167.59997558594
1650.49621014236	1172.40002441406
1651.10905803963	1179.19995117188
1651.72182551735	1174.19995117188
1652.33451258297	1178.80004882813
1652.9471192439	1171
1653.55964550757	1164
1654.1720913814	1167
1654.78445687283	1170.19995117188
1655.39674198926	1171
1656.00894673814	1176.59997558594
1656.62107112688	1172.80004882813
1657.23311516291	1164.19995117188
1657.84507885365	1166.19995117188
1658.45696220652	1168.80004882813
1659.06876522895	1166.59997558594
1659.68048792835	1155
1660.29213031217	1154
1660.90369238779	1153.80004882813
1661.51517416267	1146.40002441406
1662.12657564421	1133.59997558594
1662.73789683984	1136.80004882813
1663.34913775697	1130.80004882813
1663.96029840303	1125.80004882813
1664.57137878544	1127.19995117188
1665.18237891161	1123.59997558594
1665.79329878897	1120.59997558594
1666.40413842493	1115.40002441406
1667.01489782691	1114
1667.62557700233	1113
1668.2361759586	1117
1668.84669470315	1118
1669.4571332434	1123.40002441406
1670.06749158675	1130.59997558594
1670.67776974062	1128.59997558594
1671.28796771243	1125.59997558594
1671.8980855096	1128.59997558594
1672.50812313954	1131.80004882813
1673.11808060967	1128.59997558594
1673.72795792739	1122.19995117188
1674.33775510013	1116.80004882813
1674.9474721353	1119.40002441406
1675.55710904031	1117.19995117188
1676.16666582257	1113.80004882813
1676.7761424895	1114.40002441406
1677.38553904851	1120.40002441406
1677.99485550702	1124.80004882813
1678.60409187243	1120
1679.21324815215	1110.19995117188
1679.8223243536	1119.80004882813
1680.43132048419	1114
1681.04023655132	1112.59997558594
1681.64907256241	1105.80004882813
1682.25782852487	1099.59997558594
1682.86650444611	1096
1683.47510033353	1100.59997558594
1684.08361619455	1102.19995117188
1684.69205203657	1097.19995117188
1685.300407867	1101.19995117188
1685.90868369325	1104.80004882813
1686.51687952272	1110.59997558594
1687.12499536283	1105.19995117188
1687.73303122098	1108.19995117188
1688.34098710457	1112.59997558594
1688.94886302101	1114.40002441406
1689.55665897772	1118.40002441406
1690.16437498208	1112.19995117188
1690.77201104152	1116.19995117188
1691.37956716342	1112.59997558594
1691.9870433552	1102.80004882813
1692.59443962426	1108.40002441406
1693.20175597801	1109
1693.80899242384	1108.40002441406
1694.41614896916	1101.40002441406
1695.02322562138	1096.59997558594
1695.63022238789	1094.80004882813
1696.23713927609	1097.40002441406
1696.8439762934	1094.80004882813
1697.4507334472	1093.40002441406
1698.05741074491	1083
1698.66400819391	1087.19995117188
1699.27052580161	1090.40002441406
1699.87696357542	1088.59997558594
1700.48332152272	1091.80004882813
1701.08959965092	1089.80004882813
1701.69579796742	1093.80004882813
1702.30191647962	1099
1702.90795519491	1098.40002441406
1703.51391412069	1092.59997558594
1704.11979326437	1094
1704.72559263332	1094
1705.33131223496	1099.19995117188
1705.93695207668	1089.40002441406
1706.54251216588	1101.59997558594
1707.14799250994	1096.19995117188
1707.75339311628	1090.40002441406
1708.35871399227	1096.40002441406
1708.96395514532	1100.59997558594
1709.56911658282	1088.40002441406
