634.948122577771	1423
635.690341530823	1427.19995117188
636.43246851086	1425.59997558594
637.174503525845	1435
637.916446583745	1429.40002441406
638.658297692538	1419.59997558594
639.400056860179	1417.40002441406
640.141724094637	1418.59997558594
640.883299403885	1402
641.62478279588	1395
642.366174278594	1403.80004882813
643.107473859989	1410.80004882813
643.848681548029	1416
644.589797350679	1400.59997558594
645.330821275901	1395.80004882813
646.071753331665	1397
646.812593525922	1399.19995117188
647.553341866646	1393.40002441406
648.293998361798	1404.80004882813
649.03456301933	1404.40002441406
649.775035847216	1407.40002441406
650.515416853409	1403.59997558594
651.255706045874	1407.59997558594
651.995903432568	1402.19995117188
652.736009021453	1409.59997558594
653.476022820486	1412.40002441406
654.215944837629	1405.19995117188
654.955775080842	1402.19995117188
655.695513558081	1402
656.435160277301	1415
657.174715246465	1431.40002441406
657.914178473527	1440.40002441406
658.653549966449	1449.80004882813
659.392829733176	1443.40002441406
660.132017781678	1436.19995117188
660.871114119901	1446.40002441406
661.610118755803	1461.40002441406
662.349031697343	1452.80004882813
663.087852952468	1451.40002441406
663.826582529139	1442
664.565220435305	1440.59997558594
665.30376667892	1439.59997558594
666.04222126794	1438.19995117188
666.780584210316	1433.19995117188
667.518855514	1436.40002441406
668.25703518694	1443
668.995123237096	1448.40002441406
669.733119672413	1445.59997558594
670.471024500842	1445.40002441406
671.208837730333	1444.19995117188
671.946559368839	1444
672.684189424308	1451
673.421727904689	1465.40002441406
674.159174817929	1462.80004882813
674.896530171977	1453.19995117188
675.633793974786	1450.40002441406
676.370966234295	1460.80004882813
677.108046958461	1469.80004882813
677.845036155219	1464.59997558594
678.581933832528	1453.40002441406
679.318739998323	1471
680.055454660558	1471.19995117188
680.792077827172	1472.19995117188
681.528609506116	1464
682.265049705331	1453.19995117188
683.001398432759	1449.40002441406
683.737655696349	1458.40002441406
684.47382150404	1447.59997558594
685.20989586378	1456.40002441406
685.945878783503	1452.40002441406
686.68177027116	1455.80004882813
687.417570334688	1457.40002441406
688.153278982032	1461.40002441406
688.888896221129	1457.19995117188
689.624422059921	1467.59997558594
690.359856506349	1461.40002441406
691.095199568354	1443.40002441406
691.830451253874	1457.59997558594
692.565611570844	1474.19995117188
693.300680527212	1463
694.03565813091	1462.59997558594
694.770544389877	1448.80004882813
695.505339312053	1449.59997558594
696.240042905372	1444
696.974655177772	1434.80004882813
697.70917613719	1437.80004882813
698.443605791561	1441.19995117188
699.177944148826	1459
699.912191216909	1460.40002441406
700.646347003755	1468.59997558594
701.380411517295	1466.59997558594
702.114384765465	1483
702.848266756195	1473.59997558594
703.582057497421	1475
704.315756997074	1488.80004882813
705.049365263089	1499.40002441406
705.782882303399	1483.40002441406
706.516308125936	1472.80004882813
707.249642738626	1479.80004882813
707.982886149403	1459.80004882813
708.716038366204	1453.80004882813
709.449099396949	1447.80004882813
710.182069249577	1443
710.914947932009	1471.19995117188
711.647735452181	1454
712.380431818022	1457.40002441406
713.113037037454	1462
713.845551118411	1457.40002441406
714.577974068818	1464.19995117188
715.310305896604	1470.80004882813
716.042546609694	1463.80004882813
716.774696216013	1467.19995117188
717.506754723493	1462.59997558594
718.238722140053	1463.40002441406
718.970598473624	1462.80004882813
719.702383732127	1469.80004882813
720.43407792349	1468.80004882813
721.165681055634	1469.59997558594
721.897193136486	1480.80004882813
722.628614173966	1472.19995117188
723.359944175997	1470.80004882813
724.091183150505	1484.19995117188
724.822331105412	1489.19995117188
725.553388048638	1480.80004882813
726.284353988106	1484.80004882813
727.015228931734	1473
727.746012887449	1461.40002441406
728.476705863162	1455.40002441406
729.207307866803	1448.80004882813
729.937818906289	1446.59997558594
730.668238989535	1444.40002441406
731.398568124459	1430
732.128806318986	1442.19995117188
732.858953581034	1456.40002441406
733.589009918514	1467.40002441406
734.318975339348	1465
735.048849851452	1460.40002441406
735.778633462744	1476.40002441406
736.508326181137	1474.19995117188
737.237928014549	1474.80004882813
737.967438970897	1460.19995117188
738.696859058095	1446.80004882813
739.426188284054	1452
740.155426656692	1455
740.884574183922	1460.80004882813
741.613630873659	1461.80004882813
742.342596733815	1463.19995117188
743.071471772302	1465.40002441406
743.800255997034	1457.80004882813
744.528949415921	1474
745.257552036877	1480.40002441406
745.986063867811	1466
746.714484916638	1467.40002441406
747.442815191261	1452.80004882813
748.171054699597	1445.19995117188
748.899203449554	1442.59997558594
749.627261449039	1444.19995117188
750.355228705966	1457.80004882813
751.083105228239	1472.59997558594
751.810891023765	1476.19995117188
752.538586100459	1491.80004882813
753.266190466218	1484
753.99370412896	1481.80004882813
754.721127096582	1465.19995117188
755.448459377	1456.59997558594
756.175700978114	1454.59997558594
756.902851907828	1457.80004882813
757.629912174055	1456.59997558594
758.356881784688	1469.59997558594
759.083760747639	1480.40002441406
759.810549070817	1474
760.537246762113	1491.19995117188
761.263853829442	1491.19995117188
761.990370280698	1488
762.716796123791	1497.40002441406
763.443131366618	1501
764.169376017082	1506.19995117188
764.895530083085	1505.59997558594
765.621593572527	1522.19995117188
766.347566493312	1515.80004882813
767.073448853336	1512.80004882813
767.799240660502	1518.80004882813
768.524941922707	1539.19995117188
769.250552647854	1549
769.976072843836	1559.80004882813
770.701502518551	1576.40002441406
771.426841679905	1579
772.152090335793	1586.59997558594
772.877248494107	1602.40002441406
773.602316162747	1594.59997558594
774.327293349609	1593.40002441406
775.052180062592	1588.59997558594
775.776976309589	1577.80004882813
776.501682098496	1556.40002441406
777.226297437206	1551.59997558594
777.950822333616	1537.40002441406
778.675256795621	1523.19995117188
779.399600831111	1510
780.123854447983	1499
780.84801765413	1519.40002441406
781.572090457441	1522
782.296072865811	1507.40002441406
783.019964887131	1507.59997558594
783.743766529297	1495
784.467477800194	1490.59997558594
785.191098707719	1485.59997558594
785.914629259756	1485.59997558594
786.638069464194	1490.80004882813
787.361419328932	1487.80004882813
788.084678861852	1478.80004882813
788.807848070845	1476.19995117188
789.530926963798	1474.19995117188
790.253915548602	1482.80004882813
790.976813833144	1473.19995117188
791.699621825307	1474
792.422339532986	1480.80004882813
793.144966964061	1477.19995117188
793.86750412642	1482.40002441406
794.589951027946	1487.40002441406
795.312307676536	1488.59997558594
796.03457408006	1474.40002441406
796.756750246417	1493
797.478836183477	1489.80004882813
798.200831899137	1476
798.92273740127	1480.59997558594
799.644552697769	1471.80004882813
800.36627779651	1474.19995117188
801.087912705374	1471.40002441406
801.809457432251	1471
802.530911985017	1457.19995117188
803.252276371558	1475.40002441406
803.973550599748	1477
804.694734677472	1473
805.415828612611	1477.40002441406
806.136832413045	1489
806.857746086646	1475.19995117188
807.578569641305	1477.59997558594
808.299303084892	1474.80004882813
809.019946425289	1484
809.740499670372	1474.19995117188
810.460962828022	1483.19995117188
811.181335906114	1482.19995117188
811.901618912524	1485.80004882813
812.621811855131	1484.40002441406
813.341914741809	1488.19995117188
814.061927580433	1486.40002441406
814.781850378881	1480
815.501683145025	1472.19995117188
816.221425886743	1479
816.941078611903	1481.80004882813
817.660641328387	1477.19995117188
818.380114044065	1470.80004882813
819.099496766808	1458.80004882813
819.818789504492	1456.80004882813
820.53799226499	1475
821.257105056168	1477.40002441406
821.976127885904	1490
822.695060762064	1474.80004882813
823.413903692525	1486.40002441406
824.132656685151	1478.59997558594
824.851319747817	1481.80004882813
825.569892888388	1470
826.288376114739	1480.40002441406
827.006769434737	1473.59997558594
827.725072856249	1458.80004882813
828.443286387142	1454.59997558594
829.161410035285	1455
829.87944380855	1488
830.597387714798	1471.80004882813
831.315241761898	1488
832.033005957715	1481.80004882813
832.750680310119	1486.19995117188
833.468264826969	1477.80004882813
834.18575951614	1484.19995117188
834.903164385486	1482.40002441406
835.620479442878	1479
836.337704696181	1487.19995117188
837.054840153255	1477.40002441406
837.771885821962	1498.19995117188
838.488841710172	1491.19995117188
839.20570782574	1491.80004882813
839.922484176531	1481.40002441406
840.639170770409	1490.80004882813
841.355767615231	1489.80004882813
842.072274718864	1475.80004882813
842.788692089164	1463.80004882813
843.505019733993	1469
844.221257661209	1469.59997558594
844.937405878676	1459
845.65346439425	1449.80004882813
846.369433215789	1468.19995117188
847.085312351156	1456.40002441406
847.801101808205	1465.40002441406
848.516801594793	1464.40002441406
849.232411718781	1466.40002441406
849.947932188021	1465.40002441406
850.663363010376	1458.19995117188
851.378704193698	1463.19995117188
852.093955745842	1471.40002441406
852.809117674669	1479.80004882813
853.524189988028	1469.59997558594
854.239172693778	1450
854.954065799768	1469.40002441406
855.668869313857	1463.80004882813
856.383583243899	1473.19995117188
857.098207597743	1468.40002441406
857.812742383246	1481.19995117188
858.527187608255	1480
859.241543280628	1475.40002441406
859.955809408218	1479.59997558594
860.669985998868	1479.40002441406
861.384073060437	1467
862.098070600772	1462.80004882813
862.811978627724	1462.80004882813
863.52579714914	1455.59997558594
864.239526172873	1450.19995117188
864.953165706776	1452.19995117188
865.666715758687	1452.59997558594
866.380176336464	1450.40002441406
867.093547447951	1453.19995117188
867.806829100996	1443.80004882813
868.520021303444	1461
869.233124063149	1468.19995117188
869.94613738795	1460.19995117188
870.659061285693	1462.80004882813
871.37189576423	1463.19995117188
872.084640831403	1444.80004882813
872.797296495057	1450.59997558594
873.509862763039	1451.40002441406
874.22233964319	1444.80004882813
874.934727143353	1447.40002441406
875.647025271374	1459.40002441406
876.359234035097	1462.40002441406
877.071353442361	1469.19995117188
877.783383501015	1463.59997558594
878.495324218895	1479.19995117188
879.207175603844	1476.19995117188
879.918937663705	1471.19995117188
880.630610406318	1454.19995117188
881.342193839524	1455.80004882813
882.053687971161	1434.40002441406
882.765092809069	1428.59997558594
883.476408361091	1441.59997558594
884.187634635066	1425.59997558594
884.898771638828	1441.59997558594
885.609819380221	1434.40002441406
886.320777867076	1446.19995117188
887.031647107236	1453.19995117188
887.742427108536	1449.19995117188
888.453117878816	1458
889.16371942591	1457
889.874231757652	1460.19995117188
890.584654881883	1463
891.294988806434	1443.19995117188
892.005233539141	1448.40002441406
892.715389087837	1469.80004882813
893.42545546036	1462.59997558594
894.135432664543	1460.40002441406
894.845320708216	1456.59997558594
895.555119599216	1453.40002441406
896.264829345375	1455.40002441406
896.974449954526	1442.40002441406
897.683981434496	1438.59997558594
898.393423793125	1437.19995117188
899.102777038235	1450.59997558594
899.812041177664	1456.59997558594
900.521216219239	1467.40002441406
901.230302170793	1468.19995117188
901.939299040155	1478.80004882813
902.64820683515	1471.40002441406
903.357025563612	1460.40002441406
904.065755233368	1457.59997558594
904.774395852247	1458
905.482947428076	1462.80004882813
906.191409968682	1471
906.899783481897	1469.80004882813
907.608067975538	1490
908.316263457443	1473.40002441406
909.02436993543	1474.80004882813
909.732387417327	1471.19995117188
910.440315910959	1457.59997558594
911.148155424154	1463.40002441406
911.855905964731	1462.59997558594
912.563567540521	1450.19995117188
913.271140159339	1467.19995117188
913.978623829017	1461.40002441406
914.686018557374	1463
915.393324352237	1458
916.100541221421	1455
916.807669172752	1475.19995117188
917.514708214054	1483.40002441406
918.221658353142	1491.80004882813
918.928519597843	1487.19995117188
919.635291955976	1482
920.341975435358	1480
921.048570043813	1487.80004882813
921.75507578916	1487.40002441406
922.461492679212	1481.19995117188
923.167820721795	1490.19995117188
923.874059924726	1475.19995117188
924.58021029582	1468.80004882813
925.286271842893	1473.40002441406
925.992244573769	1471.59997558594
926.698128496262	1466.59997558594
927.403923618184	1468.40002441406
928.109629947355	1469.59997558594
928.815247491593	1467.80004882813
929.520776258708	1460.19995117188
930.226216256519	1477.80004882813
930.931567492841	1496.80004882813
931.636829975482	1475.40002441406
932.342003712263	1479.80004882813
933.047088710995	1466.40002441406
933.752084979491	1475.80004882813
934.456992525564	1477
935.161811357024	1475.40002441406
935.866541481688	1484.40002441406
936.571182907363	1479.80004882813
937.275735641861	1487.19995117188
937.980199692995	1486.19995117188
938.684575068572	1487.80004882813
939.388861776411	1495.59997558594
940.093059824311	1486.19995117188
940.797169220085	1481.80004882813
941.501189971544	1480.40002441406
942.205122086495	1471.59997558594
942.908965572751	1481
943.612720438111	1476.40002441406
944.316386690391	1453.40002441406
945.019964337391	1451.40002441406
945.723453386924	1461.19995117188
946.426853846795	1451
947.130165724808	1455.19995117188
947.83338902877	1455.59997558594
948.536523766488	1446.80004882813
949.239569945764	1453.19995117188
949.942527574402	1456.59997558594
950.64539666021	1455.19995117188
951.348177210993	1465
952.050869234548	1439.59997558594
952.753472738683	1439.40002441406
953.455987731199	1436.80004882813
954.158414219898	1435.19995117188
954.860752212587	1460.40002441406
955.563001717061	1463.19995117188
956.265162741124	1459.19995117188
956.967235292576	1465
957.669219379224	1457
958.371115008857	1468.59997558594
959.072922189283	1477.19995117188
959.774640928301	1493.19995117188
960.476271233708	1494.19995117188
961.177813113301	1483.19995117188
961.879266574882	1469.19995117188
962.580631626248	1461
963.281908275194	1465
963.98309652952	1454.40002441406
964.684196397022	1450
965.3852078855	1442.59997558594
966.086131002745	1433.19995117188
966.786965756555	1438
967.487712154726	1435.80004882813
968.188370205055	1447.40002441406
968.888939915331	1468.19995117188
969.589421293352	1463.19995117188
970.289814346909	1466.59997558594
970.990119083801	1446.80004882813
971.690335511819	1455.40002441406
972.39046363875	1454.40002441406
973.090503472398	1457.40002441406
973.790455020545	1448
974.490318290987	1455
975.190093291516	1443.80004882813
975.889780029923	1430.80004882813
976.589378513998	1449.80004882813
977.288888751527	1459.19995117188
977.988310750308	1463.80004882813
978.687644518122	1454.19995117188
979.386890062767	1443.80004882813
980.086047392025	1442.40002441406
980.785116513689	1445.19995117188
981.484097435542	1436.19995117188
982.182990165377	1423.19995117188
982.88179471098	1431
983.580511080137	1442.40002441406
984.279139280632	1445.59997558594
984.977679320253	1446.19995117188
985.67613120679	1435.19995117188
986.374494948027	1431.59997558594
987.072770551745	1426.80004882813
987.770958025731	1433
988.469057377772	1421.59997558594
989.167068615649	1434.59997558594
989.864991747145	1429.59997558594
990.562826780047	1435.40002441406
991.260573722134	1435.19995117188
991.958232581195	1428.80004882813
992.655803365003	1434.59997558594
993.353286081346	1432.19995117188
994.050680738006	1428.40002441406
994.74798734276	1450
995.44520590339	1443
996.142336427681	1451.80004882813
996.839378923407	1450.59997558594
997.536333398348	1459.80004882813
998.233199860289	1458.59997558594
998.929978317004	1453
999.626668776274	1453.59997558594
1000.32327124587	1447.80004882813
1001.01978573359	1451.80004882813
1001.71621224718	1445.59997558594
1002.41255079445	1461.40002441406
1003.10880138315	1455.59997558594
1003.80496402107	1469.59997558594
1004.50103871599	1468
1005.19702547567	1453.19995117188
1005.8929243079	1473
1006.58873522045	1460.59997558594
1007.2844582211	1476.80004882813
1007.98009331761	1482.19995117188
1008.67564051776	1471.40002441406
1009.37109982933	1462.40002441406
1010.06647126009	1470
1010.7617548178	1461
1011.45695051026	1460
1012.15205834522	1460.59997558594
1012.84707833045	1461.59997558594
1013.54201047373	1458.59997558594
1014.23685478284	1461
1014.93161126553	1465.19995117188
1015.62627992959	1468.19995117188
1016.32086078277	1468.59997558594
1017.01535383285	1463.19995117188
1017.70975908761	1477.80004882813
1018.40407655479	1471
1019.09830624219	1461
1019.79244815755	1470.59997558594
1020.48650230866	1472.59997558594
1021.18046870328	1470.80004882813
1021.87434734917	1470.80004882813
1022.56813825411	1451.40002441406
1023.26184142584	1462.40002441406
1023.95545687216	1475.19995117188
1024.64898460082	1475.80004882813
1025.34242461957	1463.80004882813
1026.0357769362	1450.80004882813
1026.72904155846	1466.59997558594
1027.42221849412	1455
1028.11530775094	1444.19995117188
1028.80830933668	1450.19995117188
1029.50122325911	1457.80004882813
1030.19404952599	1453.40002441406
1030.88678814508	1452
1031.57943912414	1448.80004882813
1032.27200247093	1452.19995117188
1032.96447819323	1457.59997558594
1033.65686629878	1439.80004882813
1034.34916679534	1451.80004882813
1035.04137969068	1440
1035.73350499256	1435.59997558594
1036.42554270874	1450.19995117188
1037.11749284697	1438.80004882813
1037.80935541501	1448.59997558594
1038.50113042062	1451.19995117188
1039.19281787156	1449.19995117188
1039.88441777559	1446
1040.57593014046	1442.59997558594
1041.26735497393	1443.59997558594
1041.95869228376	1435
1042.6499420777	1435
1043.3411043635	1438.59997558594
1044.03217914893	1431.40002441406
1044.72316644174	1443.19995117188
1045.41406624968	1442.19995117188
1046.1048785805	1443
1046.79560344197	1439.19995117188
1047.48624084182	1438.59997558594
1048.17679078783	1446.40002441406
1048.86725328774	1440.40002441406
1049.55762834929	1440.59997558594
1050.24791598025	1434
1050.93811618837	1432.19995117188
1051.62822898139	1444.40002441406
1052.31825436707	1431.80004882813
1053.00819235315	1429.80004882813
1053.6980429474	1435.19995117188
1054.38780615755	1431.40002441406
1055.07748199136	1430.80004882813
1055.76707045658	1432
1056.45657156095	1438.40002441406
1057.14598531222	1422
1057.83531171814	1434
1058.52455078646	1433.59997558594
1059.21370252494	1435
1059.90276694129	1430
1060.5917440433	1425.80004882813
1061.28063383868	1412.40002441406
1061.9694363352	1421
1062.65815154059	1413.59997558594
1063.34677946261	1432.19995117188
1064.03532010899	1435
1064.72377348748	1439.59997558594
1065.41213960583	1437.19995117188
1066.10041847177	1450.19995117188
1066.78861009306	1443.19995117188
1067.47671447743	1444.19995117188
1068.16473163263	1441
1068.85266156639	1427.40002441406
1069.54050428647	1424.80004882813
1070.2282598006	1431.80004882813
1070.91592811652	1425.19995117188
1071.60350924198	1435.59997558594
1072.29100318471	1423.80004882813
1072.97840995245	1423.59997558594
1073.66572955295	1406.19995117188
1074.35296199394	1423.80004882813
1075.04010728316	1428
1075.72716542836	1425.19995117188
1076.41413643726	1421.19995117188
1077.10102031761	1414.19995117188
1077.78781707715	1410
1078.4745267236	1391.80004882813
1079.16114926471	1399
1079.84768470822	1403.59997558594
1080.53413306185	1396.19995117188
1081.22049433336	1394.19995117188
1081.90676853046	1394
1082.5929556609	1405
1083.27905573241	1413
1083.96506875272	1415.19995117188
1084.65099472957	1424.80004882813
1085.3368336707	1424.19995117188
1086.02258558383	1418.40002441406
1086.70825047669	1409.40002441406
1087.39382835703	1410.59997558594
1088.07931923257	1431.40002441406
1088.76472311104	1422.59997558594
1089.45004000018	1420
1090.13526990771	1418
1090.82041284137	1404.59997558594
1091.50546880889	1434.59997558594
1092.19043781799	1433
1092.87531987642	1444.80004882813
1093.56011499188	1426.80004882813
1094.24482317212	1432.80004882813
1094.92944442486	1426.59997558594
1095.61397875783	1425.59997558594
1096.29842617876	1439.19995117188
1096.98278669537	1442.59997558594
1097.6670603154	1433
1098.35124704656	1441.59997558594
1099.03534689659	1424.40002441406
1099.71935987322	1431
1100.40328598416	1424.19995117188
1101.08712523713	1412.40002441406
1101.77087763988	1417
1102.45454320012	1415.40002441406
1103.13812192557	1430.19995117188
1103.82161382396	1422.59997558594
1104.50501890301	1433.80004882813
1105.18833717045	1428.80004882813
1105.87156863399	1425
1106.55471330137	1432.40002441406
1107.2377711803	1420
1107.9207422785	1417
1108.60362660369	1415.40002441406
1109.2864241636	1411
1109.96913496594	1417.80004882813
1110.65175901844	1428.59997558594
1111.33429632882	1422.40002441406
1112.01674690479	1425.40002441406
1112.69911075408	1421.80004882813
1113.38138788439	1433.59997558594
1114.06357830346	1440.19995117188
1114.745682019	1430.40002441406
1115.42769903872	1442.40002441406
1116.10962937035	1434.19995117188
1116.7914730216	1420.19995117188
1117.47323000018	1428.19995117188
1118.15490031382	1432.59997558594
1118.83648397022	1433.19995117188
1119.51798097712	1437.59997558594
1120.1993913422	1420.59997558594
1120.88071507321	1429.59997558594
1121.56195217784	1431.40002441406
1122.24310266381	1433.59997558594
1122.92416653884	1418.80004882813
1123.60514381064	1427
1124.28603448692	1429.40002441406
1124.9668385754	1432.40002441406
1125.64755608378	1426.80004882813
1126.32818701978	1435.59997558594
1127.00873139111	1436
1127.68918920548	1429.40002441406
1128.3695604706	1440.19995117188
1129.04984519419	1439
1129.73004338394	1437.40002441406
1130.41015504758	1455.40002441406
1131.09018019281	1449.80004882813
1131.77011882734	1439.19995117188
1132.44997095888	1449
1133.12973659514	1439
1133.80941574381	1430
1134.48900841263	1423
1135.16851460927	1421.19995117188
1135.84793434147	1426.59997558594
1136.52726761692	1423.19995117188
1137.20651444333	1410.40002441406
1137.8856748284	1413.59997558594
1138.56474877984	1416.59997558594
1139.24373630536	1418.80004882813
1139.92263741265	1419.19995117188
1140.60145210943	1411.59997558594
1141.28018040339	1416.59997558594
1141.95882230225	1409.80004882813
1142.6373778137	1410.19995117188
1143.31584694545	1422.59997558594
1143.99422970519	1415
1144.67252610064	1398.80004882813
1145.35073613949	1409.40002441406
1146.02885982944	1409.80004882813
1146.7068971782	1412.59997558594
1147.38484819347	1400.59997558594
1148.06271288294	1419
1148.74049125432	1415.59997558594
1149.41818331531	1417.40002441406
1150.0957890736	1413
1150.77330853689	1408.80004882813
1151.45074171289	1403.59997558594
1152.12808860928	1413.19995117188
1152.80534923378	1402.40002441406
1153.48252359407	1412.19995117188
1154.15961169786	1407.59997558594
1154.83661355283	1416.59997558594
1155.51352916669	1424
1156.19035854713	1418
1156.86710170185	1403.19995117188
1157.54375863855	1420.80004882813
1158.22032936491	1421
1158.89681388863	1423.59997558594
1159.57321221741	1418
1160.24952435894	1413.59997558594
1160.92575032092	1404.59997558594
1161.60189011103	1404.80004882813
1162.27794373697	1407.40002441406
1162.95391120644	1398.59997558594
1163.62979252712	1400
1164.3055877067	1400.59997558594
1164.98129675288	1401
1165.65691967336	1400.19995117188
1166.33245647581	1395.80004882813
1167.00790716792	1406.80004882813
1167.6832717574	1394.19995117188
1168.35855025193	1406.40002441406
1169.0337426592	1410.19995117188
1169.70884898689	1420.19995117188
1170.3838692427	1410.19995117188
1171.05880343431	1420.80004882813
1171.73365156941	1435.40002441406
1172.40841365569	1436.59997558594
1173.08308970083	1441.19995117188
1173.75767971253	1445.59997558594
1174.43218369847	1446.80004882813
1175.10660166633	1437.40002441406
1175.7809336238	1438.40002441406
1176.45517957857	1430
1177.12933953832	1433.59997558594
1177.80341351073	1435.19995117188
1178.47740150349	1430.59997558594
1179.15130352429	1428.40002441406
1179.8251195808	1421.80004882813
1180.49884968071	1431.40002441406
1181.1724938317	1428.80004882813
1181.84605204145	1430
1182.51952431766	1433.59997558594
1183.19291066799	1443.40002441406
1183.86621110013	1449.40002441406
1184.53942562176	1452.19995117188
1185.21255424057	1450.19995117188
1185.88559696422	1435.59997558594
1186.55855380041	1436.19995117188
1187.2314247568	1439
1187.90420984109	1438.80004882813
1188.57690906095	1432.19995117188
1189.24952242405	1431.40002441406
1189.92204993808	1424.19995117188
1190.59449161071	1408.80004882813
1191.26684744962	1409
1191.93911746249	1413
1192.61130165699	1405.80004882813
1193.28340004081	1406.80004882813
1193.95541262161	1402.80004882813
1194.62733940707	1417.40002441406
1195.29918040487	1409.40002441406
1195.97093562269	1429.59997558594
1196.64260506819	1441.19995117188
1197.31418874905	1442.80004882813
1197.98568667295	1443.59997558594
1198.65709884755	1455
1199.32842528053	1459.40002441406
1199.99966597957	1454.80004882813
1200.67082095234	1458.80004882813
1201.3418902065	1444.80004882813
1202.01287374974	1441.40002441406
1202.68377158971	1422
1203.3545837341	1419.80004882813
1204.02531019057	1411
1204.6959509668	1401.19995117188
1205.36650607045	1400.59997558594
1206.03697550919	1393.80004882813
1206.70735929069	1415.19995117188
1207.37765742263	1412.80004882813
1208.04786991266	1428.19995117188
1208.71799676846	1417.59997558594
1209.38803799769	1409.40002441406
1210.05799360803	1413.80004882813
1210.72786360714	1391
1211.39764800268	1387.80004882813
1212.06734680233	1384.40002441406
1212.73696001375	1393.19995117188
1213.4064876446	1376
1214.07592970255	1385
1214.74528619526	1380.19995117188
1215.4145571304	1378
1216.08374251564	1372.40002441406
1216.75284235863	1380
1217.42185666704	1376.59997558594
1218.09078544854	1359.40002441406
1218.75962871078	1368.59997558594
1219.42838646143	1384.40002441406
1220.09705870816	1384.19995117188
1220.76564545861	1385
1221.43414672046	1387
1222.10256250136	1373.59997558594
1222.77089280898	1376
1223.43913765098	1382.80004882813
1224.107297035	1377.40002441406
1224.77537096873	1383.59997558594
1225.44335945981	1383
1226.1112625159	1386.19995117188
1226.77908014467	1363.80004882813
1227.44681235376	1365.40002441406
1228.11445915085	1350.59997558594
1228.78202054357	1357
1229.44949653961	1356.59997558594
1230.11688714659	1357.80004882813
1230.7841923722	1368.19995117188
1231.45141222407	1365.80004882813
1232.11854670988	1379.40002441406
1232.78559583726	1389.19995117188
1233.45255961388	1388.59997558594
1234.1194380474	1399.40002441406
1234.78623114546	1395.19995117188
1235.45293891572	1400.59997558594
1236.11956136583	1397.80004882813
1236.78609850345	1381.80004882813
1237.45255033623	1382.80004882813
1238.11891687182	1385
1238.78519811788	1393.40002441406
1239.45139408205	1389.19995117188
1240.11750477198	1382.40002441406
1240.78353019534	1373.80004882813
1241.44947035976	1377
1242.11532527291	1376.59997558594
1242.78109494242	1387.80004882813
1243.44677937595	1371.59997558594
1244.11237858115	1368.19995117188
1244.77789256567	1373.19995117188
1245.44332133715	1368.40002441406
1246.10866490325	1373.19995117188
1246.7739232716	1378
1247.43909644987	1382.80004882813
1248.10418444569	1377.59997558594
1248.76918726671	1375
1249.43410492059	1372.80004882813
1250.09893741496	1380.59997558594
1250.76368475747	1384
1251.42834695576	1381.80004882813
1252.09292401749	1375.40002441406
1252.75741595029	1376
1253.42182276182	1366.80004882813
1254.08614445971	1368.59997558594
1254.75038105161	1376
1255.41453254515	1371
1256.07859894799	1380.59997558594
1256.74258026777	1386.59997558594
1257.40647651213	1389.19995117188
1258.0702876887	1392.40002441406
1258.73401380514	1399.19995117188
1259.39765486908	1395.40002441406
1260.06121088817	1391.80004882813
1260.72468187004	1381.59997558594
1261.38806782233	1382.40002441406
1262.05136875269	1381.19995117188
1262.71458466875	1378.19995117188
1263.37771557815	1369.80004882813
1264.04076148854	1370.19995117188
1264.70372240753	1364
1265.3665983428	1381
1266.02938930195	1374.19995117188
1266.69209529263	1386.59997558594
1267.35471632249	1376.19995117188
1268.01725239914	1373.80004882813
1268.67970353024	1379.19995117188
1269.34206972342	1387.40002441406
1270.00435098631	1384.80004882813
1270.66654732655	1374.59997558594
1271.32865875177	1381.40002441406
1271.9906852696	1389.59997558594
1272.65262688768	1388.19995117188
1273.31448361365	1391.40002441406
1273.97625545514	1385.19995117188
1274.63794241978	1385.80004882813
1275.2995445152	1387
1275.96106174903	1392.80004882813
1276.62249412892	1381.40002441406
1277.28384166248	1380.59997558594
1277.94510435735	1382.80004882813
1278.60628222116	1378.59997558594
1279.26737526155	1383.19995117188
1279.92838348613	1387
1280.58930690255	1400.19995117188
1281.25014551842	1405.40002441406
1281.91089934139	1408.80004882813
1282.57156837907	1411.59997558594
1283.2321526391	1400.19995117188
1283.89265212911	1392.19995117188
1284.55306685671	1391
1285.21339682955	1385.59997558594
1285.87364205525	1399.40002441406
1286.53380254142	1392.40002441406
1287.19387829571	1379.59997558594
1287.85386932573	1380.80004882813
1288.51377563911	1378.40002441406
1289.17359724348	1381.19995117188
1289.83333414646	1376.40002441406
1290.49298635567	1373.59997558594
1291.15255387874	1381.59997558594
1291.8120367233	1369.19995117188
1292.47143489696	1367.59997558594
1293.13074840736	1366.40002441406
1293.7899772621	1380.80004882813
1294.44912146882	1380.40002441406
1295.10818103513	1374.59997558594
1295.76715596866	1374.80004882813
1296.42604627704	1371.80004882813
1297.08485196787	1369.40002441406
1297.74357304878	1364.80004882813
1298.4022095274	1375.59997558594
1299.06076141134	1376.59997558594
1299.71922870821	1379
1300.37761142565	1375
1301.03590957126	1385.19995117188
1301.69412315268	1394.19995117188
1302.3522521775	1403
1303.01029665336	1398
1303.66825658787	1386.19995117188
1304.32613198865	1398.80004882813
1304.98392286332	1404.40002441406
1305.64162921948	1391.80004882813
1306.29925106476	1374.19995117188
1306.95678840677	1365.40002441406
1307.61424125312	1355.80004882813
1308.27160961145	1369.80004882813
1308.92889348934	1367
1309.58609289443	1365
1310.24320783432	1379
1310.90023831664	1380.80004882813
1311.55718434898	1392.59997558594
1312.21404593897	1390.40002441406
1312.87082309421	1385
1313.52751582233	1384
1314.18412413092	1388.59997558594
1314.84064802761	1381.59997558594
1315.49708752	1406.80004882813
1316.1534426157	1397.40002441406
1316.80971332233	1401
1317.46589964749	1399.80004882813
1318.1220015988	1394.40002441406
1318.77801918386	1386
1319.43395241028	1381.80004882813
1320.08980128567	1385.40002441406
1320.74556581764	1378.19995117188
1321.4012460138	1381.59997558594
1322.05684188176	1376.19995117188
1322.71235342911	1382.40002441406
1323.36778066347	1392.59997558594
1324.02312359245	1406.19995117188
1324.67838222365	1403.40002441406
1325.33355656468	1403.80004882813
1325.98864662314	1391
1326.64365240663	1406.40002441406
1327.29857392277	1394.19995117188
1327.95341117915	1393.59997558594
1328.60816418339	1404.59997558594
1329.26283294308	1391.59997558594
1329.91741746582	1386.40002441406
1330.57191775923	1382.80004882813
1331.2263338309	1389.59997558594
1331.88066568843	1390
1332.53491333943	1387.19995117188
1333.1890767915	1371.59997558594
1333.84315605224	1370.19995117188
1334.49715112925	1368
1335.15106203013	1361
1335.80488876249	1379.59997558594
1336.45863133391	1372.59997558594
1337.112289752	1369.19995117188
1337.76586402437	1376.80004882813
1338.4193541586	1378.40002441406
1339.0727601623	1383.80004882813
1339.72608204306	1373.80004882813
1340.37931980849	1370.19995117188
1341.03247346617	1370.80004882813
1341.68554302372	1378
1342.33852848871	1392
1342.99142986876	1376.59997558594
1343.64424717145	1371
1344.29698040438	1367.80004882813
1344.94962957515	1376
1345.60219469135	1372.80004882813
1346.25467576058	1387.80004882813
1346.90707279042	1374.80004882813
1347.55938578848	1382.40002441406
1348.21161476235	1386.40002441406
1348.86375971962	1387
1349.51582066787	1388.40002441406
1350.16779761472	1396.59997558594
1350.81969056774	1391.19995117188
1351.47149953453	1399.59997558594
1352.12322452269	1391.40002441406
1352.77486553979	1412.59997558594
1353.42642259344	1417.80004882813
1354.07789569122	1421.19995117188
1354.72928484072	1439.80004882813
1355.38059004953	1426.80004882813
1356.03181132525	1429.59997558594
1356.68294867545	1450.40002441406
1357.33400210773	1445.80004882813
1357.98497162968	1443.19995117188
1358.63585724889	1437.40002441406
1359.28665897294	1449
1359.93737680942	1443.59997558594
1360.58801076591	1431.80004882813
1361.23856085001	1438.19995117188
1361.88902706929	1434.59997558594
1362.53940943135	1445.59997558594
1363.18970794377	1454.40002441406
1363.83992261413	1442.80004882813
1364.49005345003	1447.59997558594
1365.14010045904	1459.59997558594
1365.79006364874	1456.19995117188
1366.43994302673	1459
1367.08973860058	1439.40002441406
1367.73945037788	1451.80004882813
1368.38907836621	1440
1369.03862257315	1443.19995117188
1369.68808300629	1423.59997558594
1370.3374596732	1421.80004882813
1370.98675258148	1408.80004882813
1371.63596173868	1401.19995117188
1372.28508715241	1411
1372.93412883024	1413
1373.58308677974	1410.40002441406
1374.2319610085	1401.40002441406
1374.8807515241	1386.19995117188
1375.52945833412	1382.80004882813
1376.17808144612	1375.80004882813
1376.82662086771	1370.19995117188
1377.47507660644	1366.80004882813
1378.12344866989	1355.59997558594
1378.77173706565	1370.19995117188
1379.41994180129	1362
1380.06806288439	1364.59997558594
1380.71610032252	1349
1381.36405412326	1350
1382.01192429419	1351.59997558594
1382.65971084287	1345.19995117188
1383.30741377688	1343
1383.95503310381	1336.59997558594
1384.60256883121	1338
1385.25002096667	1340.19995117188
1385.89738951775	1342.59997558594
1386.54467449204	1359.19995117188
1387.19187589709	1350
1387.8389937405	1339.19995117188
1388.48602802982	1335.40002441406
1389.13297877262	1336.40002441406
1389.77984597649	1339.59997558594
1390.42662964899	1346.40002441406
1391.07332979768	1353.59997558594
1391.71994643015	1347.59997558594
1392.36647955395	1355.19995117188
1393.01292917667	1363
1393.65929530586	1342.59997558594
1394.3055779491	1342.80004882813
1394.95177711395	1335.59997558594
1395.59789280799	1334
1396.24392503877	1332.40002441406
1396.88987381387	1328.40002441406
1397.53573914086	1328.80004882813
1398.1815210273	1333.40002441406
1398.82721948075	1316
1399.47283450878	1335.80004882813
1400.11836611897	1322
1400.76381431886	1320.19995117188
1401.40917911603	1321
1402.05446051805	1313.40002441406
1402.69965853247	1322.59997558594
1403.34477316686	1314.19995117188
1403.98980442878	1326.40002441406
1404.6347523258	1311.59997558594
1405.27961686548	1315.19995117188
1405.92439805538	1321.19995117188
1406.56909590306	1321
1407.21371041608	1326
1407.85824160202	1339.59997558594
1408.50268946841	1331.19995117188
1409.14705402284	1339.19995117188
1409.79133527285	1348.80004882813
1410.43553322601	1336.19995117188
1411.07964788987	1350.40002441406
1411.723679272	1331.40002441406
1412.36762737996	1332.80004882813
1413.01149222129	1332.80004882813
1413.65527380357	1333.59997558594
1414.29897213435	1331.80004882813
1414.94258722118	1319.19995117188
1415.58611907163	1308.19995117188
1416.22956769325	1311.80004882813
1416.87293309359	1298.19995117188
1417.51621528021	1311.40002441406
1418.15941426067	1315.19995117188
1418.80253004253	1315.80004882813
1419.44556263333	1317.40002441406
1420.08851204063	1328.59997558594
1420.731378272	1317.59997558594
1421.37416133497	1324.40002441406
1422.0168612371	1315.59997558594
1422.65947798596	1318.80004882813
1423.30201158908	1323.80004882813
1423.94446205403	1322.19995117188
1424.58682938835	1314.80004882813
1425.2291135996	1323.40002441406
1425.87131469532	1325.59997558594
1426.51343268308	1323.59997558594
1427.15546757042	1313.19995117188
1427.79741936488	1308
1428.43928807403	1308.80004882813
1429.0810737054	1317.40002441406
1429.72277626656	1338.40002441406
1430.36439576504	1323.59997558594
1431.00593220841	1315.80004882813
1431.64738560419	1311
1432.28875595995	1307
1432.93004328324	1309.40002441406
1433.57124758159	1317
1434.21236886255	1321.19995117188
1434.85340713368	1314.59997558594
1435.49436240252	1320
1436.13523467661	1313.59997558594
1436.77602396349	1316.40002441406
1437.41673027073	1309.59997558594
1438.05735360585	1310.40002441406
1438.69789397641	1310.80004882813
1439.33835138994	1301
1439.978725854	1306.19995117188
1440.61901737612	1308.80004882813
1441.25922596385	1309
1441.89935162473	1310.80004882813
1442.53939436631	1306.19995117188
1443.17935419612	1314.19995117188
1443.81923112171	1301.59997558594
1444.45902515061	1304.40002441406
1445.09873629038	1316.19995117188
1445.73836454854	1311
1446.37790993265	1307.19995117188
1447.01737245024	1311.19995117188
1447.65675210885	1315.59997558594
1448.29604891602	1303.40002441406
1448.93526287928	1298.80004882813
1449.57439400618	1309.80004882813
1450.21344230426	1314.40002441406
1450.85240778105	1313.40002441406
1451.49129044409	1321.40002441406
1452.13009030092	1308.59997558594
1452.76880735907	1317.19995117188
1453.40744162608	1327.80004882813
1454.04599310949	1315
1454.68446181683	1310
1455.32284775564	1303.59997558594
1455.96115093345	1312.19995117188
1456.5993713578	1313
1457.23750903623	1322.59997558594
1457.87556397626	1316
1458.51353618543	1321
1459.15142567127	1314
1459.78923244132	1314
1460.42695650311	1317.19995117188
1461.06459786417	1314.80004882813
1461.70215653203	1324.19995117188
1462.33963251423	1311.80004882813
1462.97702581829	1306.19995117188
1463.61433645175	1308
1464.25156442214	1314.80004882813
1464.88870973699	1316.80004882813
1465.52577240382	1305
1466.16275243017	1303.19995117188
1466.79964982356	1306.80004882813
1467.43646459154	1298.19995117188
1468.07319674161	1306.19995117188
1468.70984628132	1304.19995117188
1469.34641321818	1306.40002441406
1469.98289755974	1320.40002441406
1470.6192993135	1305.80004882813
1471.25561848701	1307.19995117188
1471.89185508779	1306.19995117188
1472.52800912336	1303.19995117188
1473.16408060124	1307.40002441406
1473.80006952897	1305
1474.43597591407	1309.80004882813
1475.07179976406	1297.59997558594
1475.70754108647	1295.19995117188
1476.34319988883	1291
1476.97877617865	1292.40002441406
1477.61426996345	1291.19995117188
1478.24968125077	1290.40002441406
1478.88501004812	1302.19995117188
1479.52025636303	1311.40002441406
1480.15542020302	1313.80004882813
1480.79050157561	1317.59997558594
1481.42550048832	1314.19995117188
1482.06041694867	1324.59997558594
1482.69525096418	1316
1483.33000254237	1305.80004882813
1483.96467169077	1312.80004882813
1484.59925841689	1304
1485.23376272825	1300.59997558594
1485.86818463237	1314.19995117188
1486.50252413677	1305.59997558594
1487.13678124896	1300
1487.77095597646	1301.19995117188
1488.4050483268	1293.80004882813
1489.03905830749	1299.59997558594
1489.67298592604	1298
1490.30683118996	1310.59997558594
1490.9405941068	1313.19995117188
1491.57427468403	1310
1492.2078729292	1321.19995117188
1492.84138884981	1323.80004882813
1493.47482245338	1326.80004882813
1494.10817374742	1315.80004882813
1494.74144273944	1304.80004882813
1495.37462943696	1308.19995117188
1496.0077338475	1306.80004882813
1496.64075597856	1317.80004882813
1497.27369583765	1318
1497.9065534323	1317.19995117188
1498.53932877001	1323.40002441406
1499.17202185829	1322
1499.80463270465	1313.19995117188
1500.43716131661	1324.19995117188
1501.06960770167	1330.19995117188
1501.70197186735	1339.19995117188
1502.33425382116	1353.80004882813
1502.96645357059	1350
1503.59857112317	1362.19995117188
1504.23060648641	1352.80004882813
1504.8625596678	1344.19995117188
1505.49443067486	1353.80004882813
1506.1262195151	1363.40002441406
1506.75792619602	1360
1507.38955072513	1358.59997558594
1508.02109310993	1352
1508.65255335794	1343.19995117188
1509.28393147666	1333.40002441406
1509.91522747359	1344.40002441406
1510.54644135624	1337.19995117188
1511.17757313212	1321.40002441406
1511.80862280872	1332.40002441406
1512.43959039356	1327.80004882813
1513.07047589413	1333
1513.70127931795	1346.59997558594
1514.33200067251	1333.40002441406
1514.96263996531	1326.80004882813
1515.59319720386	1339.59997558594
1516.22367239567	1335.40002441406
1516.85406554822	1323.19995117188
1517.48437666903	1328
1518.1146057656	1301.19995117188
1518.74475284542	1298.59997558594
1519.374817916	1299.80004882813
1520.00480098483	1290.19995117188
1520.63470205942	1300.40002441406
1521.26452114726	1303.19995117188
1521.89425825586	1304.40002441406
1522.52391339271	1300.59997558594
1523.15348656531	1304
1523.78297778116	1302.40002441406
1524.41238704775	1303.59997558594
1525.04171437259	1312.80004882813
1525.67095976317	1323.19995117188
1526.30012322699	1309.40002441406
1526.92920477154	1317
1527.55820440432	1314.40002441406
1528.18712213283	1310.40002441406
1528.81595796455	1303.59997558594
1529.44471190699	1298.40002441406
1530.07338396764	1299
1530.70197415399	1298.59997558594
1531.33048247353	1300.59997558594
1531.95890893377	1304.80004882813
1532.58725354219	1307.19995117188
1533.21551630629	1301.80004882813
1533.84369723356	1294.19995117188
1534.47179633148	1297.19995117188
1535.09981360757	1289
1535.72774906929	1287.80004882813
1536.35560272415	1299.80004882813
1536.98337457963	1297.40002441406
1537.61106464323	1300.80004882813
1538.23867292243	1305.40002441406
1538.86619942473	1295.80004882813
1539.49364415762	1296
1540.12100712857	1284.40002441406
1540.74828834509	1293
1541.37548781466	1299.40002441406
1542.00260554478	1303
1542.62964154291	1306.80004882813
1543.25659581655	1312.40002441406
1543.8834683732	1299.59997558594
1544.51025922034	1301.80004882813
1545.13696836544	1287.80004882813
1545.76359581601	1289
1546.39014157952	1292.59997558594
1547.01660566345	1289
1547.64298807531	1294
1548.26928882255	1283.19995117188
1548.89550791269	1292.19995117188
1549.52164535318	1288.59997558594
1550.14770115153	1295
1550.77367531521	1298.59997558594
1551.39956785171	1303
1552.0253787685	1301.80004882813
1552.65110807307	1300.59997558594
1553.2767557729	1291.19995117188
1553.90232187548	1299
1554.52780638828	1286.59997558594
1555.15320931879	1289
1555.77853067447	1295.59997558594
1556.40377046282	1293.19995117188
1557.02892869132	1284.80004882813
1557.65400536744	1271
1558.27900049866	1269.19995117188
1558.90391409247	1262.40002441406
1559.52874615633	1275.80004882813
1560.15349669773	1279.80004882813
1560.77816572414	1284.40002441406
1561.40275324305	1288
1562.02725926192	1285.19995117188
1562.65168378824	1288.59997558594
1563.27602682948	1280.40002441406
1563.90028839311	1286.80004882813
1564.52446848662	1283
1565.14856711748	1286
1565.77258429316	1285.59997558594
1566.39652002113	1300
1567.02037430887	1289.59997558594
1567.64414716387	1305.19995117188
1568.26783859357	1313
1568.89144860547	1315.80004882813
1569.51497720703	1319.59997558594
1570.13842440573	1306.59997558594
1570.76179020904	1316.80004882813
1571.38507462442	1319.80004882813
1572.00827765936	1316.40002441406
1572.63139932132	1309.59997558594
1573.25443961777	1319.40002441406
1573.87739855618	1309.59997558594
1574.50027614402	1313.19995117188
1575.12307238877	1305.19995117188
1575.74578729789	1299
1576.36842087885	1296.40002441406
1576.99097313912	1291.19995117188
1577.61344408616	1296.80004882813
1578.23583372745	1293
1578.85814207046	1295.59997558594
1579.48036912264	1291
1580.10251489147	1291.59997558594
1580.72457938441	1295.59997558594
1581.34656260893	1303.59997558594
1581.9684645725	1294.19995117188
1582.59028528258	1300.19995117188
1583.21202474663	1285.19995117188
1583.83368297212	1287.19995117188
1584.45525996652	1287
1585.07675573728	1281.19995117188
1585.69817029188	1277.59997558594
1586.31950363778	1270.80004882813
1586.94075578243	1269.19995117188
1587.5619267333	1265.40002441406
1588.18301649786	1263.59997558594
1588.80402508357	1253.40002441406
1589.42495249788	1250.40002441406
1590.04579874826	1243.40002441406
1590.66656384217	1241.80004882813
1591.28724778707	1245.19995117188
1591.90785059042	1245.80004882813
1592.52837225968	1251.19995117188
1593.14881280232	1253.59997558594
1593.76917222578	1244.80004882813
1594.38945053753	1236.59997558594
1595.00964774502	1239
1595.62976385573	1231.59997558594
1596.24979887709	1238.19995117188
1596.86975281657	1240.59997558594
1597.48962568164	1250
1598.10941747974	1262.80004882813
1598.72912821832	1265.80004882813
1599.34875790486	1266.19995117188
1599.9683065468	1271.80004882813
1600.58777415159	1258.59997558594
1601.2071607267	1258.80004882813
1601.82646627958	1250.19995117188
1602.44569081769	1237.80004882813
1603.06483434846	1234.19995117188
1603.68389687937	1223.80004882813
1604.30287841786	1214.19995117188
1604.92177897139	1222
1605.54059854741	1228
1606.15933715337	1220.80004882813
1606.77799479672	1221.80004882813
1607.39657148492	1225
1608.01506722542	1228.59997558594
1608.63348202566	1228.40002441406
1609.2518158931	1216
1609.87006883519	1221
1610.48824085939	1223.19995117188
1611.10633197312	1219
1611.72434218386	1228.19995117188
1612.34227149904	1226
1612.96011992612	1223.80004882813
1613.57788747254	1211
1614.19557414575	1209.40002441406
1614.8131799532	1201.80004882813
1615.43070490234	1200.80004882813
1616.04814900061	1204.19995117188
1616.66551225545	1195.59997558594
1617.28279467433	1193.19995117188
1617.89999626467	1203
1618.51711703393	1205.19995117188
1619.13415698955	1207.59997558594
1619.75111613898	1210.59997558594
1620.36799448966	1213
1620.98479204903	1219.40002441406
1621.60150882455	1221.40002441406
1622.21814482364	1224.19995117188
1622.83470005376	1223
1623.45117452235	1224.19995117188
1624.06756823685	1221
1624.6838812047	1213.80004882813
1625.30011343335	1203.59997558594
1625.91626493022	1211.19995117188
1626.53233570278	1201.80004882813
1627.14832575845	1207
1627.76423510468	1203.40002441406
1628.38006374891	1207.80004882813
1628.99581169857	1213.19995117188
1629.61147896111	1203.80004882813
1630.22706554397	1203.59997558594
1630.84257145457	1206.59997558594
1631.45799670038	1201.19995117188
1632.07334128881	1181.80004882813
1632.6886052273	1193.19995117188
1633.3037885233	1191.40002441406
1633.91889118425	1186.80004882813
1634.53391321757	1179.59997558594
1635.1488546307	1192.40002441406
1635.76371543108	1204.19995117188
1636.37849562616	1205.80004882813
1636.99319522335	1215.59997558594
1637.60781423009	1209.40002441406
1638.22235265383	1203.40002441406
1638.83681050198	1217.80004882813
1639.451187782	1229.19995117188
1640.0654845013	1224.40002441406
1640.67970066734	1223
1641.29383628752	1227.40002441406
1641.9078913693	1226.59997558594
1642.5218659201	1230.59997558594
1643.13575994735	1230.19995117188
1643.74957345849	1241.80004882813
1644.36330646094	1233
1644.97695896213	1245.80004882813
1645.59053096951	1247.19995117188
1646.20402249049	1245.59997558594
1646.8174335325	1240
1647.43076410298	1236.40002441406
1648.04401420935	1244.80004882813
1648.65718385905	1245.80004882813
1649.2702730595	1245.80004882813
1649.88328181812	1236.59997558594
1650.49621014236	1238.80004882813
1651.10905803963	1248.40002441406
1651.72182551735	1235.40002441406
1652.33451258297	1228
1652.9471192439	1225.40002441406
1653.55964550757	1232.19995117188
1654.1720913814	1230.40002441406
1654.78445687283	1219
1655.39674198926	1219
1656.00894673814	1221.59997558594
1656.62107112688	1226.19995117188
1657.23311516291	1224.59997558594
1657.84507885365	1228.40002441406
1658.45696220652	1226
1659.06876522895	1211.80004882813
1659.68048792835	1215
1660.29213031217	1208.80004882813
1660.90369238779	1205.80004882813
1661.51517416267	1197.19995117188
1662.12657564421	1196.59997558594
1662.73789683984	1203.40002441406
1663.34913775697	1185.40002441406
1663.96029840303	1182.80004882813
1664.57137878544	1172.59997558594
1665.18237891161	1162
1665.79329878897	1163
1666.40413842493	1168.59997558594
1667.01489782691	1162.19995117188
1667.62557700233	1163.59997558594
1668.2361759586	1159.59997558594
1668.84669470315	1170.59997558594
1669.4571332434	1164
1670.06749158675	1158.80004882813
1670.67776974062	1161.80004882813
1671.28796771243	1161.59997558594
1671.8980855096	1153.19995117188
1672.50812313954	1154.80004882813
1673.11808060967	1157.19995117188
1673.72795792739	1155.59997558594
1674.33775510013	1156.59997558594
1674.9474721353	1146.80004882813
1675.55710904031	1156.80004882813
1676.16666582257	1142.40002441406
1676.7761424895	1151.40002441406
1677.38553904851	1143.59997558594
1677.99485550702	1154
1678.60409187243	1149
1679.21324815215	1140.40002441406
1679.8223243536	1132.59997558594
1680.43132048419	1136.19995117188
1681.04023655132	1136.80004882813
1681.64907256241	1131.80004882813
1682.25782852487	1137.59997558594
1682.86650444611	1140.59997558594
1683.47510033353	1132.59997558594
1684.08361619455	1144
1684.69205203657	1138
1685.300407867	1143.80004882813
1685.90868369325	1150.59997558594
1686.51687952272	1147
1687.12499536283	1146.59997558594
1687.73303122098	1153.19995117188
1688.34098710457	1156
1688.94886302101	1148
1689.55665897772	1156.19995117188
1690.16437498208	1152.40002441406
1690.77201104152	1158.80004882813
1691.37956716342	1148.59997558594
1691.9870433552	1143.59997558594
1692.59443962426	1149.40002441406
1693.20175597801	1155
1693.80899242384	1146.59997558594
1694.41614896916	1139.59997558594
1695.02322562138	1138.19995117188
1695.63022238789	1128.80004882813
1696.23713927609	1122.40002441406
1696.8439762934	1129.59997558594
1697.4507334472	1120.59997558594
1698.05741074491	1119.19995117188
1698.66400819391	1123.40002441406
1699.27052580161	1127.40002441406
1699.87696357542	1130
1700.48332152272	1127
1701.08959965092	1126
1701.69579796742	1132.40002441406
1702.30191647962	1122.19995117188
1702.90795519491	1125.80004882813
1703.51391412069	1123.59997558594
1704.11979326437	1127.80004882813
1704.72559263332	1124
1705.33131223496	1120
1705.93695207668	1117
1706.54251216588	1124.19995117188
1707.14799250994	1119.59997558594
1707.75339311628	1119.19995117188
1708.35871399227	1129.59997558594
1708.96395514532	1123.19995117188
1709.56911658282	1120.40002441406
