634.948122577771	974.799987792969
635.690341530823	978.400024414063
636.43246851086	977.200012207031
637.174503525845	981.400024414063
637.916446583745	976
638.658297692538	975.799987792969
639.400056860179	975.599975585938
640.141724094637	976.599975585938
640.883299403885	973.599975585938
641.62478279588	972.799987792969
642.366174278594	972.599975585938
643.107473859989	977.200012207031
643.848681548029	980.400024414063
644.589797350679	979.400024414063
645.330821275901	977.200012207031
646.071753331665	979.400024414063
646.812593525922	973.799987792969
647.553341866646	975.400024414063
648.293998361798	980.799987792969
649.03456301933	979.599975585938
649.775035847216	977.599975585938
650.515416853409	974.799987792969
651.255706045874	982.400024414063
651.995903432568	977.200012207031
652.736009021453	984.400024414063
653.476022820486	982.799987792969
654.215944837629	981.599975585938
654.955775080842	977.400024414063
655.695513558081	979
656.435160277301	986.200012207031
657.174715246465	985
657.914178473527	991.400024414063
658.653549966449	989.799987792969
659.392829733176	990.200012207031
660.132017781678	992.200012207031
660.871114119901	996
661.610118755803	995.599975585938
662.349031697343	999.799987792969
663.087852952468	992.599975585938
663.826582529139	992.200012207031
664.565220435305	992.400024414063
665.30376667892	996.799987792969
666.04222126794	995.599975585938
666.780584210316	991.400024414063
667.518855514	992.599975585938
668.25703518694	998.799987792969
668.995123237096	994
669.733119672413	994.799987792969
670.471024500842	994.200012207031
671.208837730333	1001.20001220703
671.946559368839	1002.20001220703
672.684189424308	1000.40002441406
673.421727904689	998.200012207031
674.159174817929	998.799987792969
674.896530171977	998.599975585938
675.633793974786	996.400024414063
676.370966234295	1000.40002441406
677.108046958461	999.799987792969
677.845036155219	999.799987792969
678.581933832528	998.400024414063
679.318739998323	991
680.055454660558	999.200012207031
680.792077827172	991.599975585938
681.528609506116	998
682.265049705331	993.200012207031
683.001398432759	997.200012207031
683.737655696349	994.599975585938
684.47382150404	997
685.20989586378	995.799987792969
685.945878783503	990.599975585938
686.68177027116	991
687.417570334688	989
688.153278982032	985
688.888896221129	982.400024414063
689.624422059921	983
690.359856506349	987
691.095199568354	980.400024414063
691.830451253874	978.599975585938
692.565611570844	986
693.300680527212	979.599975585938
694.03565813091	982
694.770544389877	979.200012207031
695.505339312053	983.599975585938
696.240042905372	984.400024414063
696.974655177772	977
697.70917613719	980.599975585938
698.443605791561	974.599975585938
699.177944148826	978.799987792969
699.912191216909	978.400024414063
700.646347003755	976.200012207031
701.380411517295	978
702.114384765465	978.200012207031
702.848266756195	977
703.582057497421	983.599975585938
704.315756997074	979.400024414063
705.049365263089	979.400024414063
705.782882303399	984.599975585938
706.516308125936	978.599975585938
707.249642738626	978.599975585938
707.982886149403	983
708.716038366204	979.799987792969
709.449099396949	987.200012207031
710.182069249577	984
710.914947932009	980.400024414063
711.647735452181	986.400024414063
712.380431818022	986.599975585938
713.113037037454	980.799987792969
713.845551118411	982.200012207031
714.577974068818	982.400024414063
715.310305896604	984.400024414063
716.042546609694	979.799987792969
716.774696216013	987
717.506754723493	981.599975585938
718.238722140053	980.799987792969
718.970598473624	983.799987792969
719.702383732127	983.599975585938
720.43407792349	980.599975585938
721.165681055634	984.799987792969
721.897193136486	987.400024414063
722.628614173966	984.400024414063
723.359944175997	980.400024414063
724.091183150505	983.599975585938
724.822331105412	980.200012207031
725.553388048638	984.799987792969
726.284353988106	981.400024414063
727.015228931734	979.599975585938
727.746012887449	980.400024414063
728.476705863162	986.400024414063
729.207307866803	986
729.937818906289	980.599975585938
730.668238989535	980.599975585938
731.398568124459	986.200012207031
732.128806318986	985
732.858953581034	984.799987792969
733.589009918514	994.400024414063
734.318975339348	982.599975585938
735.048849851452	990
735.778633462744	988.799987792969
736.508326181137	984.799987792969
737.237928014549	982.400024414063
737.967438970897	985.799987792969
738.696859058095	984.400024414063
739.426188284054	989
740.155426656692	986.400024414063
740.884574183922	985.599975585938
741.613630873659	983.799987792969
742.342596733815	983.599975585938
743.071471772302	980.200012207031
743.800255997034	985.400024414063
744.528949415921	990
745.257552036877	988.400024414063
745.986063867811	988.799987792969
746.714484916638	982.599975585938
747.442815191261	989.799987792969
748.171054699597	992.599975585938
748.899203449554	991.799987792969
749.627261449039	988.400024414063
750.355228705966	987
751.083105228239	990.200012207031
751.810891023765	988.599975585938
752.538586100459	986.599975585938
753.266190466218	986.599975585938
753.99370412896	990.599975585938
754.721127096582	989.200012207031
755.448459377	985.400024414063
756.175700978114	994.400024414063
756.902851907828	989.599975585938
757.629912174055	987.799987792969
758.356881784688	982.200012207031
759.083760747639	992.799987792969
759.810549070817	988
760.537246762113	987.799987792969
761.263853829442	984.799987792969
761.990370280698	989
762.716796123791	992.799987792969
763.443131366618	988.799987792969
764.169376017082	989.799987792969
764.895530083085	990
765.621593572527	991
766.347566493312	1000.40002441406
767.073448853336	995.799987792969
767.799240660502	995
768.524941922707	1002
769.250552647854	1001.59997558594
769.976072843836	1001
770.701502518551	1001.59997558594
771.426841679905	1000.79998779297
772.152090335793	999
772.877248494107	1002.40002441406
773.602316162747	1003.20001220703
774.327293349609	1004.79998779297
775.052180062592	1003.79998779297
775.776976309589	997.799987792969
776.501682098496	999.599975585938
777.226297437206	1000.20001220703
777.950822333616	1001.79998779297
778.675256795621	995.799987792969
779.399600831111	998
780.123854447983	998.799987792969
780.84801765413	998.400024414063
781.572090457441	1001.20001220703
782.296072865811	992.200012207031
783.019964887131	998
783.743766529297	992.799987792969
784.467477800194	994.599975585938
785.191098707719	989
785.914629259756	990.599975585938
786.638069464194	986.200012207031
787.361419328932	986
788.084678861852	993
788.807848070845	988
789.530926963798	984
790.253915548602	988.200012207031
790.976813833144	989
791.699621825307	986.799987792969
792.422339532986	992.400024414063
793.144966964061	985.200012207031
793.86750412642	995.200012207031
794.589951027946	991.599975585938
795.312307676536	990.400024414063
796.03457408006	991.799987792969
796.756750246417	988.400024414063
797.478836183477	990
798.200831899137	988
798.92273740127	991
799.644552697769	988.599975585938
800.36627779651	993.400024414063
801.087912705374	993.200012207031
801.809457432251	992.200012207031
802.530911985017	991.599975585938
803.252276371558	989
803.973550599748	993.400024414063
804.694734677472	993.799987792969
805.415828612611	993.200012207031
806.136832413045	993.400024414063
806.857746086646	988.599975585938
807.578569641305	992.799987792969
808.299303084892	991
809.019946425289	992.799987792969
809.740499670372	995.400024414063
810.460962828022	995.200012207031
811.181335906114	994.799987792969
811.901618912524	990.799987792969
812.621811855131	992.599975585938
813.341914741809	988.799987792969
814.061927580433	989.400024414063
814.781850378881	987
815.501683145025	989.799987792969
816.221425886743	990.599975585938
816.941078611903	990.599975585938
817.660641328387	983.599975585938
818.380114044065	988.799987792969
819.099496766808	997.599975585938
819.818789504492	991.599975585938
820.53799226499	992.200012207031
821.257105056168	996
821.976127885904	995.599975585938
822.695060762064	989.400024414063
823.413903692525	989.200012207031
824.132656685151	996.599975585938
824.851319747817	998.200012207031
825.569892888388	997.799987792969
826.288376114739	996.200012207031
827.006769434737	993.599975585938
827.725072856249	994.400024414063
828.443286387142	998.799987792969
829.161410035285	999.799987792969
829.87944380855	997.200012207031
830.597387714798	990.599975585938
831.315241761898	987.200012207031
832.033005957715	992
832.750680310119	988.799987792969
833.468264826969	996.799987792969
834.18575951614	991.200012207031
834.903164385486	991.400024414063
835.620479442878	993.799987792969
836.337704696181	987.799987792969
837.054840153255	989.799987792969
837.771885821962	996.200012207031
838.488841710172	988.599975585938
839.20570782574	987.400024414063
839.922484176531	984.799987792969
840.639170770409	985.799987792969
841.355767615231	987.599975585938
842.072274718864	989.599975585938
842.788692089164	991.599975585938
843.505019733993	988.400024414063
844.221257661209	996.200012207031
844.937405878676	995.200012207031
845.65346439425	992.200012207031
846.369433215789	988.400024414063
847.085312351156	992.400024414063
847.801101808205	987.599975585938
848.516801594793	987.200012207031
849.232411718781	990.599975585938
849.947932188021	984
850.663363010376	986.400024414063
851.378704193698	987.200012207031
852.093955745842	983.400024414063
852.809117674669	987
853.524189988028	992
854.239172693778	990.799987792969
854.954065799768	988.200012207031
855.668869313857	988.799987792969
856.383583243899	987.200012207031
857.098207597743	988.200012207031
857.812742383246	987.799987792969
858.527187608255	989.400024414063
859.241543280628	984.599975585938
859.955809408218	988.599975585938
860.669985998868	986.400024414063
861.384073060437	979.400024414063
862.098070600772	984.799987792969
862.811978627724	986.400024414063
863.52579714914	987.200012207031
864.239526172873	987
864.953165706776	986.599975585938
865.666715758687	983.799987792969
866.380176336464	987.599975585938
867.093547447951	984.599975585938
867.806829100996	987.200012207031
868.520021303444	988
869.233124063149	987
869.94613738795	991.599975585938
870.659061285693	988.599975585938
871.37189576423	987.400024414063
872.084640831403	989
872.797296495057	988.799987792969
873.509862763039	986.799987792969
874.22233964319	983
874.934727143353	989
875.647025271374	988
876.359234035097	992
877.071353442361	997
877.783383501015	989.599975585938
878.495324218895	988.799987792969
879.207175603844	989.799987792969
879.918937663705	991.799987792969
880.630610406318	989.400024414063
881.342193839524	987
882.053687971161	995
882.765092809069	986.799987792969
883.476408361091	987.599975585938
884.187634635066	987.599975585938
884.898771638828	989.599975585938
885.609819380221	996.599975585938
886.320777867076	988.799987792969
887.031647107236	996.400024414063
887.742427108536	991.200012207031
888.453117878816	1000.40002441406
889.16371942591	995.599975585938
889.874231757652	995.599975585938
890.584654881883	991
891.294988806434	987.799987792969
892.005233539141	986
892.715389087837	990.799987792969
893.42545546036	996.400024414063
894.135432664543	994.599975585938
894.845320708216	995.799987792969
895.555119599216	988
896.264829345375	985.599975585938
896.974449954526	986.599975585938
897.683981434496	988.400024414063
898.393423793125	987.599975585938
899.102777038235	985.799987792969
899.812041177664	993.799987792969
900.521216219239	996.799987792969
901.230302170793	996.400024414063
901.939299040155	1000
902.64820683515	995.400024414063
903.357025563612	997.799987792969
904.065755233368	994.599975585938
904.774395852247	995
905.482947428076	994.799987792969
906.191409968682	990
906.899783481897	990
907.608067975538	991.400024414063
908.316263457443	993.400024414063
909.02436993543	991.400024414063
909.732387417327	993.400024414063
910.440315910959	996.799987792969
911.148155424154	997.799987792969
911.855905964731	991.400024414063
912.563567540521	995.799987792969
913.271140159339	997.200012207031
913.978623829017	995.400024414063
914.686018557374	1000.40002441406
915.393324352237	999.200012207031
916.100541221421	994.200012207031
916.807669172752	996.599975585938
917.514708214054	996
918.221658353142	994.400024414063
918.928519597843	991.599975585938
919.635291955976	992
920.341975435358	990.599975585938
921.048570043813	991.799987792969
921.75507578916	995.599975585938
922.461492679212	1000
923.167820721795	996.799987792969
923.874059924726	996
924.58021029582	995.400024414063
925.286271842893	996.599975585938
925.992244573769	997.799987792969
926.698128496262	999.400024414063
927.403923618184	993.400024414063
928.109629947355	1000.59997558594
928.815247491593	995.599975585938
929.520776258708	999
930.226216256519	1004.40002441406
930.931567492841	995
931.636829975482	996.200012207031
932.342003712263	1002
933.047088710995	996.799987792969
933.752084979491	994.200012207031
934.456992525564	995.400024414063
935.161811357024	997.400024414063
935.866541481688	996
936.571182907363	996.599975585938
937.275735641861	999.599975585938
937.980199692995	992.799987792969
938.684575068572	998
939.388861776411	994
940.093059824311	995.799987792969
940.797169220085	997.599975585938
941.501189971544	1000
942.205122086495	995.599975585938
942.908965572751	995.599975585938
943.612720438111	992.400024414063
944.316386690391	997
945.019964337391	994.799987792969
945.723453386924	994.200012207031
946.426853846795	994.799987792969
947.130165724808	998
947.83338902877	998.400024414063
948.536523766488	998
949.239569945764	995.799987792969
949.942527574402	996.200012207031
950.64539666021	995.599975585938
951.348177210993	995.799987792969
952.050869234548	997.200012207031
952.753472738683	998.799987792969
953.455987731199	1000.59997558594
954.158414219898	997
954.860752212587	993.400024414063
955.563001717061	992.400024414063
956.265162741124	995.200012207031
956.967235292576	995.799987792969
957.669219379224	997.599975585938
958.371115008857	997.799987792969
959.072922189283	998
959.774640928301	995.400024414063
960.476271233708	997.400024414063
961.177813113301	993.599975585938
961.879266574882	994.400024414063
962.580631626248	993.599975585938
963.281908275194	995
963.98309652952	995.599975585938
964.684196397022	1001.40002441406
965.3852078855	1000.59997558594
966.086131002745	995.200012207031
966.786965756555	996
967.487712154726	995
968.188370205055	994.200012207031
968.888939915331	988.200012207031
969.589421293352	990.599975585938
970.289814346909	990.599975585938
970.990119083801	988.799987792969
971.690335511819	990.200012207031
972.39046363875	992.799987792969
973.090503472398	992
973.790455020545	996.799987792969
974.490318290987	996.799987792969
975.190093291516	998.599975585938
975.889780029923	995.799987792969
976.589378513998	993.400024414063
977.288888751527	998.599975585938
977.988310750308	993.400024414063
978.687644518122	991.200012207031
979.386890062767	992.599975585938
980.086047392025	993.200012207031
980.785116513689	994.400024414063
981.484097435542	993.599975585938
982.182990165377	999
982.88179471098	999.799987792969
983.580511080137	999
984.279139280632	995.599975585938
984.977679320253	989.799987792969
985.67613120679	990.200012207031
986.374494948027	987.599975585938
987.072770551745	989.400024414063
987.770958025731	990.400024414063
988.469057377772	995.799987792969
989.167068615649	994.799987792969
989.864991747145	991.200012207031
990.562826780047	995
991.260573722134	998.200012207031
991.958232581195	993.599975585938
992.655803365003	996
993.353286081346	993.799987792969
994.050680738006	1000.20001220703
994.74798734276	999.799987792969
995.44520590339	1001.40002441406
996.142336427681	1001.20001220703
996.839378923407	989
997.536333398348	991
998.233199860289	989
998.929978317004	992.799987792969
999.626668776274	998
1000.32327124587	997.599975585938
1001.01978573359	993.599975585938
1001.71621224718	997.200012207031
1002.41255079445	1000.20001220703
1003.10880138315	1011.40002441406
1003.80496402107	1002.40002441406
1004.50103871599	1001.40002441406
1005.19702547567	994
1005.8929243079	989.400024414063
1006.58873522045	990
1007.2844582211	995.200012207031
1007.98009331761	995.599975585938
1008.67564051776	1004.20001220703
1009.37109982933	1007.20001220703
1010.06647126009	999
1010.7617548178	996
1011.45695051026	1002.40002441406
1012.15205834522	999.799987792969
1012.84707833045	1001.59997558594
1013.54201047373	999.599975585938
1014.23685478284	999
1014.93161126553	1001.79998779297
1015.62627992959	995.200012207031
1016.32086078277	1000
1017.01535383285	998.599975585938
1017.70975908761	1002.20001220703
1018.40407655479	997.599975585938
1019.09830624219	997
1019.79244815755	999
1020.48650230866	992
1021.18046870328	992.799987792969
1021.87434734917	993.400024414063
1022.56813825411	997.200012207031
1023.26184142584	994.200012207031
1023.95545687216	998.799987792969
1024.64898460082	996.400024414063
1025.34242461957	992.200012207031
1026.0357769362	997
1026.72904155846	996.200012207031
1027.42221849412	992.200012207031
1028.11530775094	993.799987792969
1028.80830933668	996.200012207031
1029.50122325911	991.200012207031
1030.19404952599	991.200012207031
1030.88678814508	999
1031.57943912414	1001.20001220703
1032.27200247093	994.400024414063
1032.96447819323	995.799987792969
1033.65686629878	1000
1034.34916679534	993.200012207031
1035.04137969068	993.599975585938
1035.73350499256	994
1036.42554270874	993.400024414063
1037.11749284697	1005.40002441406
1037.80935541501	998
1038.50113042062	997.599975585938
1039.19281787156	990.799987792969
1039.88441777559	995.799987792969
1040.57593014046	999.400024414063
1041.26735497393	1002.20001220703
1041.95869228376	999.200012207031
1042.6499420777	998
1043.3411043635	997.799987792969
1044.03217914893	996.400024414063
1044.72316644174	1003.20001220703
1045.41406624968	1005
1046.1048785805	997.599975585938
1046.79560344197	998
1047.48624084182	1002.59997558594
1048.17679078783	999.200012207031
1048.86725328774	993.400024414063
1049.55762834929	1001.79998779297
1050.24791598025	994
1050.93811618837	999.400024414063
1051.62822898139	995.799987792969
1052.31825436707	996.799987792969
1053.00819235315	1000.20001220703
1053.6980429474	998
1054.38780615755	996.200012207031
1055.07748199136	998.400024414063
1055.76707045658	997.599975585938
1056.45657156095	995.200012207031
1057.14598531222	994.400024414063
1057.83531171814	993.200012207031
1058.52455078646	993.200012207031
1059.21370252494	987.200012207031
1059.90276694129	989.400024414063
1060.5917440433	991.599975585938
1061.28063383868	995.599975585938
1061.9694363352	995.799987792969
1062.65815154059	996.400024414063
1063.34677946261	1005.20001220703
1064.03532010899	990.599975585938
1064.72377348748	987.200012207031
1065.41213960583	993.799987792969
1066.10041847177	997.599975585938
1066.78861009306	996.599975585938
1067.47671447743	1001.79998779297
1068.16473163263	995
1068.85266156639	996.400024414063
1069.54050428647	995.799987792969
1070.2282598006	1004.20001220703
1070.91592811652	997.200012207031
1071.60350924198	992.599975585938
1072.29100318471	996.200012207031
1072.97840995245	995.799987792969
1073.66572955295	996.200012207031
1074.35296199394	999.599975585938
1075.04010728316	997.400024414063
1075.72716542836	998.400024414063
1076.41413643726	996.799987792969
1077.10102031761	997.400024414063
1077.78781707715	996.400024414063
1078.4745267236	996.400024414063
1079.16114926471	998
1079.84768470822	994.200012207031
1080.53413306185	996.799987792969
1081.22049433336	999
1081.90676853046	995.799987792969
1082.5929556609	992.200012207031
1083.27905573241	997.599975585938
1083.96506875272	1001
1084.65099472957	996.200012207031
1085.3368336707	999.200012207031
1086.02258558383	1004.20001220703
1086.70825047669	997.400024414063
1087.39382835703	996
1088.07931923257	1004.40002441406
1088.76472311104	1001.40002441406
1089.45004000018	1001
1090.13526990771	994.599975585938
1090.82041284137	1001.59997558594
1091.50546880889	1003.59997558594
1092.19043781799	999.599975585938
1092.87531987642	1002.79998779297
1093.56011499188	995.799987792969
1094.24482317212	999.200012207031
1094.92944442486	1003.79998779297
1095.61397875783	1005.20001220703
1096.29842617876	999.200012207031
1096.98278669537	995
1097.6670603154	997.400024414063
1098.35124704656	1000.79998779297
1099.03534689659	992.599975585938
1099.71935987322	995.799987792969
1100.40328598416	996.400024414063
1101.08712523713	996.400024414063
1101.77087763988	997.200012207031
1102.45454320012	1000.79998779297
1103.13812192557	1004.40002441406
1103.82161382396	994.200012207031
1104.50501890301	1000.79998779297
1105.18833717045	998
1105.87156863399	997
1106.55471330137	994.200012207031
1107.2377711803	997.799987792969
1107.9207422785	1000.79998779297
1108.60362660369	1000.40002441406
1109.2864241636	996.200012207031
1109.96913496594	999.599975585938
1110.65175901844	996
1111.33429632882	1001
1112.01674690479	993
1112.69911075408	992.200012207031
1113.38138788439	991.400024414063
1114.06357830346	994.200012207031
1114.745682019	996.200012207031
1115.42769903872	996.799987792969
1116.10962937035	997.200012207031
1116.7914730216	999.200012207031
1117.47323000018	997
1118.15490031382	995.599975585938
1118.83648397022	995.799987792969
1119.51798097712	1003.40002441406
1120.1993913422	994.799987792969
1120.88071507321	996.799987792969
1121.56195217784	1000.59997558594
1122.24310266381	996.200012207031
1122.92416653884	1005.79998779297
1123.60514381064	999.200012207031
1124.28603448692	1007.20001220703
1124.9668385754	996.599975585938
1125.64755608378	995
1126.32818701978	1001.59997558594
1127.00873139111	999.799987792969
1127.68918920548	997.400024414063
1128.3695604706	1002.40002441406
1129.04984519419	1001.59997558594
1129.73004338394	1001.59997558594
1130.41015504758	1006.40002441406
1131.09018019281	1011.40002441406
1131.77011882734	1005.59997558594
1132.44997095888	1006.79998779297
1133.12973659514	1003.79998779297
1133.80941574381	1005.59997558594
1134.48900841263	999.400024414063
1135.16851460927	1006.59997558594
1135.84793434147	999.400024414063
1136.52726761692	1003.59997558594
1137.20651444333	996.200012207031
1137.8856748284	1003.79998779297
1138.56474877984	1004.59997558594
1139.24373630536	996
1139.92263741265	996.799987792969
1140.60145210943	999.799987792969
1141.28018040339	996.400024414063
1141.95882230225	997.400024414063
1142.6373778137	997.200012207031
1143.31584694545	999.599975585938
1143.99422970519	991.599975585938
1144.67252610064	995.799987792969
1145.35073613949	998
1146.02885982944	998.599975585938
1146.7068971782	1003.20001220703
1147.38484819347	1003.59997558594
1148.06271288294	999
1148.74049125432	999
1149.41818331531	1004.20001220703
1150.0957890736	997.799987792969
1150.77330853689	1002.59997558594
1151.45074171289	1005.20001220703
1152.12808860928	1006.79998779297
1152.80534923378	1001.20001220703
1153.48252359407	1003.20001220703
1154.15961169786	995.200012207031
1154.83661355283	999.400024414063
1155.51352916669	998.799987792969
1156.19035854713	999.799987792969
1156.86710170185	995.799987792969
1157.54375863855	999.599975585938
1158.22032936491	1000.59997558594
1158.89681388863	1004.20001220703
1159.57321221741	1006.59997558594
1160.24952435894	1008.20001220703
1160.92575032092	1012.79998779297
1161.60189011103	1003
1162.27794373697	1006.59997558594
1162.95391120644	998.400024414063
1163.62979252712	1000.40002441406
1164.3055877067	1005.79998779297
1164.98129675288	994.200012207031
1165.65691967336	1002
1166.33245647581	1001.79998779297
1167.00790716792	998.799987792969
1167.6832717574	1000.79998779297
1168.35855025193	1002.40002441406
1169.0337426592	1001.59997558594
1169.70884898689	1005
1170.3838692427	1004.79998779297
1171.05880343431	1006.40002441406
1171.73365156941	1000.59997558594
1172.40841365569	1004
1173.08308970083	1006.20001220703
1173.75767971253	1002.40002441406
1174.43218369847	1010.79998779297
1175.10660166633	1003.20001220703
1175.7809336238	1001.79998779297
1176.45517957857	1003.59997558594
1177.12933953832	1004.79998779297
1177.80341351073	1006.20001220703
1178.47740150349	1012.20001220703
1179.15130352429	1013.20001220703
1179.8251195808	1015
1180.49884968071	1017.20001220703
1181.1724938317	1016
1181.84605204145	1020.20001220703
1182.51952431766	1014.59997558594
1183.19291066799	1011.59997558594
1183.86621110013	1015.20001220703
1184.53942562176	1019.79998779297
1185.21255424057	1019.79998779297
1185.88559696422	1016.20001220703
1186.55855380041	1017.20001220703
1187.2314247568	1019.20001220703
1187.90420984109	1015.20001220703
1188.57690906095	1013.40002441406
1189.24952242405	1015.79998779297
1189.92204993808	1018
1190.59449161071	1014
1191.26684744962	1018.59997558594
1191.93911746249	1019.79998779297
1192.61130165699	1021
1193.28340004081	1022.20001220703
1193.95541262161	1016.40002441406
1194.62733940707	1014.20001220703
1195.29918040487	1010.20001220703
1195.97093562269	1011.79998779297
1196.64260506819	1010.20001220703
1197.31418874905	1016
1197.98568667295	1011.40002441406
1198.65709884755	1013.40002441406
1199.32842528053	1014.59997558594
1199.99966597957	1014.40002441406
1200.67082095234	1010.79998779297
1201.3418902065	1014.79998779297
1202.01287374974	1010.79998779297
1202.68377158971	1012.59997558594
1203.3545837341	1010.79998779297
1204.02531019057	1002.40002441406
1204.6959509668	1010.40002441406
1205.36650607045	1005
1206.03697550919	1007.20001220703
1206.70735929069	1007.59997558594
1207.37765742263	1004.40002441406
1208.04786991266	1001.79998779297
1208.71799676846	1008.40002441406
1209.38803799769	1008.79998779297
1210.05799360803	1003.79998779297
1210.72786360714	1010
1211.39764800268	1007.20001220703
1212.06734680233	997.400024414063
1212.73696001375	1006
1213.4064876446	1005.79998779297
1214.07592970255	1007.79998779297
1214.74528619526	1003
1215.4145571304	1003.40002441406
1216.08374251564	1002.59997558594
1216.75284235863	1009.59997558594
1217.42185666704	1012
1218.09078544854	1006.40002441406
1218.75962871078	1008.59997558594
1219.42838646143	1001.40002441406
1220.09705870816	1001.59997558594
1220.76564545861	1003.20001220703
1221.43414672046	1001.59997558594
1222.10256250136	1001.79998779297
1222.77089280898	998.400024414063
1223.43913765098	1006
1224.107297035	1004.59997558594
1224.77537096873	1003.40002441406
1225.44335945981	999.799987792969
1226.1112625159	997.599975585938
1226.77908014467	999.400024414063
1227.44681235376	1002.79998779297
1228.11445915085	997.200012207031
1228.78202054357	997.599975585938
1229.44949653961	1004
1230.11688714659	996.799987792969
1230.7841923722	995.599975585938
1231.45141222407	995.599975585938
1232.11854670988	990.200012207031
1232.78559583726	994
1233.45255961388	997.200012207031
1234.1194380474	997.400024414063
1234.78623114546	996.599975585938
1235.45293891572	1003.59997558594
1236.11956136583	997.799987792969
1236.78609850345	992.200012207031
1237.45255033623	989.200012207031
1238.11891687182	995.400024414063
1238.78519811788	997.400024414063
1239.45139408205	996.400024414063
1240.11750477198	996.599975585938
1240.78353019534	1000
1241.44947035976	996
1242.11532527291	997.799987792969
1242.78109494242	998
1243.44677937595	993.200012207031
1244.11237858115	998.400024414063
1244.77789256567	1000.20001220703
1245.44332133715	1001.79998779297
1246.10866490325	1002
1246.7739232716	999.599975585938
1247.43909644987	1003
1248.10418444569	1007.79998779297
1248.76918726671	1007.40002441406
1249.43410492059	1004.40002441406
1250.09893741496	997.599975585938
1250.76368475747	998.200012207031
1251.42834695576	998
1252.09292401749	997
1252.75741595029	999
1253.42182276182	998.400024414063
1254.08614445971	998.200012207031
1254.75038105161	998.200012207031
1255.41453254515	995.599975585938
1256.07859894799	998.599975585938
1256.74258026777	990.200012207031
1257.40647651213	1002.40002441406
1258.0702876887	996.599975585938
1258.73401380514	1001.40002441406
1259.39765486908	997.799987792969
1260.06121088817	999.599975585938
1260.72468187004	1003.59997558594
1261.38806782233	998.400024414063
1262.05136875269	999.799987792969
1262.71458466875	1000
1263.37771557815	1000.40002441406
1264.04076148854	1002.20001220703
1264.70372240753	1006.59997558594
1265.3665983428	1003.59997558594
1266.02938930195	998.400024414063
1266.69209529263	998.400024414063
1267.35471632249	1004.59997558594
1268.01725239914	1005.40002441406
1268.67970353024	1002
1269.34206972342	999
1270.00435098631	1008.59997558594
1270.66654732655	1000.20001220703
1271.32865875177	1004.20001220703
1271.9906852696	1003.79998779297
1272.65262688768	1004.79998779297
1273.31448361365	1000.79998779297
1273.97625545514	1004.79998779297
1274.63794241978	1004.59997558594
1275.2995445152	1004.79998779297
1275.96106174903	1006
1276.62249412892	1000.79998779297
1277.28384166248	1002.40002441406
1277.94510435735	1000.20001220703
1278.60628222116	998.599975585938
1279.26737526155	1008.40002441406
1279.92838348613	1006.79998779297
1280.58930690255	998.599975585938
1281.25014551842	1008.79998779297
1281.91089934139	1005
1282.57156837907	1006
1283.2321526391	1008.20001220703
1283.89265212911	1006.40002441406
1284.55306685671	1009.20001220703
1285.21339682955	1007.79998779297
1285.87364205525	1012.20001220703
1286.53380254142	1010.20001220703
1287.19387829571	1005.20001220703
1287.85386932573	1006
1288.51377563911	1002.59997558594
1289.17359724348	1004.79998779297
1289.83333414646	1000.79998779297
1290.49298635567	1006
1291.15255387874	1004.59997558594
1291.8120367233	1010.20001220703
1292.47143489696	1003.79998779297
1293.13074840736	1006.79998779297
1293.7899772621	1003.40002441406
1294.44912146882	1010.79998779297
1295.10818103513	1005.79998779297
1295.76715596866	1006
1296.42604627704	1008.79998779297
1297.08485196787	1013
1297.74357304878	1010.40002441406
1298.4022095274	1005.79998779297
1299.06076141134	1006.79998779297
1299.71922870821	1007.20001220703
1300.37761142565	1011.20001220703
1301.03590957126	1005.59997558594
1301.69412315268	1013.40002441406
1302.3522521775	1010.40002441406
1303.01029665336	1015
1303.66825658787	1018.40002441406
1304.32613198865	1015.59997558594
1304.98392286332	1010.40002441406
1305.64162921948	1014.79998779297
1306.29925106476	1021
1306.95678840677	1024.19995117188
1307.61424125312	1023.79998779297
1308.27160961145	1021
1308.92889348934	1018.59997558594
1309.58609289443	1018.20001220703
1310.24320783432	1012.20001220703
1310.90023831664	1017.79998779297
1311.55718434898	1014.40002441406
1312.21404593897	1016.40002441406
1312.87082309421	1015.40002441406
1313.52751582233	1020.79998779297
1314.18412413092	1016.59997558594
1314.84064802761	1017.20001220703
1315.49708752	1011.59997558594
1316.1534426157	1009.20001220703
1316.80971332233	1018.20001220703
1317.46589964749	1007.79998779297
1318.1220015988	1009.40002441406
1318.77801918386	1005.20001220703
1319.43395241028	1005.20001220703
1320.08980128567	1002.40002441406
1320.74556581764	1006.20001220703
1321.4012460138	1000
1322.05684188176	1001.59997558594
1322.71235342911	1002
1323.36778066347	1008
1324.02312359245	1007.40002441406
1324.67838222365	1005
1325.33355656468	1008.59997558594
1325.98864662314	1007.40002441406
1326.64365240663	1011.20001220703
1327.29857392277	1005.40002441406
1327.95341117915	1012
1328.60816418339	1007.40002441406
1329.26283294308	1006
1329.91741746582	1011.79998779297
1330.57191775923	1018
1331.2263338309	1013.40002441406
1331.88066568843	1016.40002441406
1332.53491333943	1018.40002441406
1333.1890767915	1011
1333.84315605224	1007.79998779297
1334.49715112925	1012.79998779297
1335.15106203013	1011
1335.80488876249	1010.59997558594
1336.45863133391	1011.40002441406
1337.112289752	1008.59997558594
1337.76586402437	1006.40002441406
1338.4193541586	1014.20001220703
1339.0727601623	1015.20001220703
1339.72608204306	1017.20001220703
1340.37931980849	1019
1341.03247346617	1017
1341.68554302372	1019
1342.33852848871	1017.59997558594
1342.99142986876	1014
1343.64424717145	1018.79998779297
1344.29698040438	1021.40002441406
1344.94962957515	1022.59997558594
1345.60219469135	1025
1346.25467576058	1021.79998779297
1346.90707279042	1022
1347.55938578848	1022
1348.21161476235	1029.80004882813
1348.86375971962	1023
1349.51582066787	1028
1350.16779761472	1023.20001220703
1350.81969056774	1025.59997558594
1351.47149953453	1020
1352.12322452269	1016
1352.77486553979	1019.20001220703
1353.42642259344	1019.59997558594
1354.07789569122	1024.80004882813
1354.72928484072	1030.59997558594
1355.38059004953	1025.19995117188
1356.03181132525	1034.59997558594
1356.68294867545	1037
1357.33400210773	1039
1357.98497162968	1035.19995117188
1358.63585724889	1030.19995117188
1359.28665897294	1035.40002441406
1359.93737680942	1031.59997558594
1360.58801076591	1035.80004882813
1361.23856085001	1037.59997558594
1361.88902706929	1046.40002441406
1362.53940943135	1048.80004882813
1363.18970794377	1041.40002441406
1363.83992261413	1041.19995117188
1364.49005345003	1034.19995117188
1365.14010045904	1031.40002441406
1365.79006364874	1029.59997558594
1366.43994302673	1029
1367.08973860058	1024
1367.73945037788	1022.79998779297
1368.38907836621	1023
1369.03862257315	1016
1369.68808300629	1013.59997558594
1370.3374596732	1019
1370.98675258148	1021
1371.63596173868	1010.40002441406
1372.28508715241	1013.79998779297
1372.93412883024	1017.59997558594
1373.58308677974	1016.40002441406
1374.2319610085	1011.59997558594
1374.8807515241	1016
1375.52945833412	1016.40002441406
1376.17808144612	1011
1376.82662086771	1014.79998779297
1377.47507660644	1016.79998779297
1378.12344866989	1011.79998779297
1378.77173706565	1014.40002441406
1379.41994180129	1009.59997558594
1380.06806288439	1007.20001220703
1380.71610032252	1011
1381.36405412326	1004
1382.01192429419	1004.79998779297
1382.65971084287	1010.59997558594
1383.30741377688	1011.20001220703
1383.95503310381	1006.79998779297
1384.60256883121	1007.59997558594
1385.25002096667	1007.20001220703
1385.89738951775	1001.59997558594
1386.54467449204	1005.40002441406
1387.19187589709	1004.59997558594
1387.8389937405	1001.20001220703
1388.48602802982	1005.79998779297
1389.13297877262	1004.20001220703
1389.77984597649	1008.20001220703
1390.42662964899	1004.20001220703
1391.07332979768	1006.20001220703
1391.71994643015	1014.40002441406
1392.36647955395	1015
1393.01292917667	1005
1393.65929530586	1012.20001220703
1394.3055779491	1003.59997558594
1394.95177711395	1002.40002441406
1395.59789280799	1005.20001220703
1396.24392503877	1004.59997558594
1396.88987381387	999.799987792969
1397.53573914086	1000.20001220703
1398.1815210273	999.599975585938
1398.82721948075	998.400024414063
1399.47283450878	1000.59997558594
1400.11836611897	997.799987792969
1400.76381431886	999.599975585938
1401.40917911603	1000.79998779297
1402.05446051805	1001.79998779297
1402.69965853247	1006.59997558594
1403.34477316686	1000.20001220703
1403.98980442878	998.599975585938
1404.6347523258	996.400024414063
1405.27961686548	995
1405.92439805538	994.400024414063
1406.56909590306	994.799987792969
1407.21371041608	1000.20001220703
1407.85824160202	1000.20001220703
1408.50268946841	996.599975585938
1409.14705402284	996.799987792969
1409.79133527285	1001.20001220703
1410.43553322601	997.799987792969
1411.07964788987	1000.40002441406
1411.723679272	994.400024414063
1412.36762737996	993.799987792969
1413.01149222129	1004
1413.65527380357	1007.40002441406
1414.29897213435	1006
1414.94258722118	1005.20001220703
1415.58611907163	1002.59997558594
1416.22956769325	1001.40002441406
1416.87293309359	1009
1417.51621528021	1008
1418.15941426067	1009
1418.80253004253	1008.40002441406
1419.44556263333	1006.79998779297
1420.08851204063	1009.20001220703
1420.731378272	1004.59997558594
1421.37416133497	1003.79998779297
1422.0168612371	1001.59997558594
1422.65947798596	1010.59997558594
1423.30201158908	1002.59997558594
1423.94446205403	997.799987792969
1424.58682938835	1000.40002441406
1425.2291135996	1002.79998779297
1425.87131469532	1004.59997558594
1426.51343268308	1004
1427.15546757042	1001.40002441406
1427.79741936488	994.799987792969
1428.43928807403	997.400024414063
1429.0810737054	999.400024414063
1429.72277626656	1000
1430.36439576504	1000.79998779297
1431.00593220841	997.799987792969
1431.64738560419	1001.20001220703
1432.28875595995	1001.40002441406
1432.93004328324	1002.59997558594
1433.57124758159	1003
1434.21236886255	996.599975585938
1434.85340713368	996.599975585938
1435.49436240252	996.599975585938
1436.13523467661	991.200012207031
1436.77602396349	995.799987792969
1437.41673027073	996.400024414063
1438.05735360585	993.799987792969
1438.69789397641	1002.79998779297
1439.33835138994	1003.79998779297
1439.978725854	1001.59997558594
1440.61901737612	1005.79998779297
1441.25922596385	999
1441.89935162473	1001.40002441406
1442.53939436631	998
1443.17935419612	1003
1443.81923112171	1001.20001220703
1444.45902515061	1008.79998779297
1445.09873629038	1003.20001220703
1445.73836454854	998.200012207031
1446.37790993265	993
1447.01737245024	997
1447.65675210885	995.799987792969
1448.29604891602	995.799987792969
1448.93526287928	989.400024414063
1449.57439400618	1000.20001220703
1450.21344230426	997.400024414063
1450.85240778105	998.400024414063
1451.49129044409	1000
1452.13009030092	998.799987792969
1452.76880735907	997
1453.40744162608	999.200012207031
1454.04599310949	1007
1454.68446181683	1003.20001220703
1455.32284775564	1004.59997558594
1455.96115093345	997.799987792969
1456.5993713578	998.599975585938
1457.23750903623	1001.40002441406
1457.87556397626	999
1458.51353618543	1002.59997558594
1459.15142567127	1003.20001220703
1459.78923244132	1002.40002441406
1460.42695650311	1009.79998779297
1461.06459786417	1001
1461.70215653203	1005.59997558594
1462.33963251423	1018.20001220703
1462.97702581829	1011.20001220703
1463.61433645175	1009.79998779297
1464.25156442214	1001
1464.88870973699	998.400024414063
1465.52577240382	1004.20001220703
1466.16275243017	998.200012207031
1466.79964982356	995.400024414063
1467.43646459154	1000.40002441406
1468.07319674161	1003.79998779297
1468.70984628132	1005
1469.34641321818	1000.79998779297
1469.98289755974	1001
1470.6192993135	997.400024414063
1471.25561848701	1006
1471.89185508779	1002.40002441406
1472.52800912336	1005.59997558594
1473.16408060124	1007.20001220703
1473.80006952897	1007.40002441406
1474.43597591407	1005.20001220703
1475.07179976406	1006.79998779297
1475.70754108647	1003
1476.34319988883	1005.40002441406
1476.97877617865	1009.20001220703
1477.61426996345	1002.79998779297
1478.24968125077	1011.40002441406
1478.88501004812	1011
1479.52025636303	1009.40002441406
1480.15542020302	1016.59997558594
1480.79050157561	1011
1481.42550048832	1001.20001220703
1482.06041694867	1001.79998779297
1482.69525096418	1003.20001220703
1483.33000254237	1005.20001220703
1483.96467169077	1008.40002441406
1484.59925841689	1007
1485.23376272825	1010.59997558594
1485.86818463237	1006.20001220703
1486.50252413677	1012.79998779297
1487.13678124896	1007.79998779297
1487.77095597646	1007.79998779297
1488.4050483268	1011.40002441406
1489.03905830749	1011.79998779297
1489.67298592604	1009
1490.30683118996	1015.40002441406
1490.9405941068	1013.40002441406
1491.57427468403	1010
1492.2078729292	1010.79998779297
1492.84138884981	1018.20001220703
1493.47482245338	1009
1494.10817374742	1010.59997558594
1494.74144273944	1011.40002441406
1495.37462943696	1007.40002441406
1496.0077338475	1008.40002441406
1496.64075597856	1011.79998779297
1497.27369583765	1009.40002441406
1497.9065534323	1016.59997558594
1498.53932877001	1014.79998779297
1499.17202185829	1020.79998779297
1499.80463270465	1020.20001220703
1500.43716131661	1018
1501.06960770167	1019.40002441406
1501.70197186735	1017.59997558594
1502.33425382116	1016.79998779297
1502.96645357059	1015.59997558594
1503.59857112317	1023.40002441406
1504.23060648641	1016
1504.8625596678	1017
1505.49443067486	1015.40002441406
1506.1262195151	1019.79998779297
1506.75792619602	1012.20001220703
1507.38955072513	1015
1508.02109310993	1020.79998779297
1508.65255335794	1015.40002441406
1509.28393147666	1014
1509.91522747359	1015
1510.54644135624	1014.40002441406
1511.17757313212	1011.59997558594
1511.80862280872	1018
1512.43959039356	1021
1513.07047589413	1026.40002441406
1513.70127931795	1019.59997558594
1514.33200067251	1019.79998779297
1514.96263996531	1018.20001220703
1515.59319720386	1010.20001220703
1516.22367239567	1016.20001220703
1516.85406554822	1020
1517.48437666903	1017.20001220703
1518.1146057656	1014.40002441406
1518.74475284542	1008.79998779297
1519.374817916	1012.20001220703
1520.00480098483	1013.20001220703
1520.63470205942	1008.40002441406
1521.26452114726	1002.20001220703
1521.89425825586	1007
1522.52391339271	1009.40002441406
1523.15348656531	1010.40002441406
1523.78297778116	1012.59997558594
1524.41238704775	1002.40002441406
1525.04171437259	1004.40002441406
1525.67095976317	1009.79998779297
1526.30012322699	1005.20001220703
1526.92920477154	1009
1527.55820440432	1008.79998779297
1528.18712213283	1009.40002441406
1528.81595796455	1011.79998779297
1529.44471190699	1018.40002441406
1530.07338396764	1019
1530.70197415399	1016
1531.33048247353	1012
1531.95890893377	1020.40002441406
1532.58725354219	1012.79998779297
1533.21551630629	1015.40002441406
1533.84369723356	1011.79998779297
1534.47179633148	1010.59997558594
1535.09981360757	1003
1535.72774906929	1005.20001220703
1536.35560272415	1009
1536.98337457963	1003.40002441406
1537.61106464323	1005.59997558594
1538.23867292243	999.599975585938
1538.86619942473	1004.40002441406
1539.49364415762	1005.79998779297
1540.12100712857	1003.59997558594
1540.74828834509	1010.40002441406
1541.37548781466	1007.20001220703
1542.00260554478	1015.59997558594
1542.62964154291	1009
1543.25659581655	1009.59997558594
1543.8834683732	1009.40002441406
1544.51025922034	1013.59997558594
1545.13696836544	1014.59997558594
1545.76359581601	1011.79998779297
1546.39014157952	1007
1547.01660566345	1004.20001220703
1547.64298807531	998.400024414063
1548.26928882255	1006.79998779297
1548.89550791269	1005
1549.52164535318	1000.79998779297
1550.14770115153	999.799987792969
1550.77367531521	994.599975585938
1551.39956785171	999.200012207031
1552.0253787685	999.599975585938
1552.65110807307	997.400024414063
1553.2767557729	1002
1553.90232187548	997
1554.52780638828	997.599975585938
1555.15320931879	997.599975585938
1555.77853067447	1000.79998779297
1556.40377046282	1000.20001220703
1557.02892869132	1003.20001220703
1557.65400536744	1007.20001220703
1558.27900049866	1010.79998779297
1558.90391409247	1009
1559.52874615633	1010
1560.15349669773	1005.79998779297
1560.77816572414	1005.20001220703
1561.40275324305	997.200012207031
1562.02725926192	1000.59997558594
1562.65168378824	1004.40002441406
1563.27602682948	1007.79998779297
1563.90028839311	1007.20001220703
1564.52446848662	1003
1565.14856711748	1000.40002441406
1565.77258429316	1007.79998779297
1566.39652002113	1005.79998779297
1567.02037430887	1011.59997558594
1567.64414716387	1010
1568.26783859357	1011
1568.89144860547	1006.20001220703
1569.51497720703	1008.20001220703
1570.13842440573	1013.59997558594
1570.76179020904	1012.20001220703
1571.38507462442	1011.20001220703
1572.00827765936	1014.79998779297
1572.63139932132	1014
1573.25443961777	1008
1573.87739855618	1013.20001220703
1574.50027614402	1012
1575.12307238877	1014.40002441406
1575.74578729789	1017.59997558594
1576.36842087885	1011
1576.99097313912	1017.20001220703
1577.61344408616	1011.79998779297
1578.23583372745	1008.59997558594
1578.85814207046	1009.79998779297
1579.48036912264	1010.40002441406
1580.10251489147	1006.20001220703
1580.72457938441	1009.79998779297
1581.34656260893	1005.20001220703
1581.9684645725	1011.40002441406
1582.59028528258	1006.40002441406
1583.21202474663	1011.40002441406
1583.83368297212	1011.79998779297
1584.45525996652	1004.40002441406
1585.07675573728	1009.59997558594
1585.69817029188	997
1586.31950363778	997.799987792969
1586.94075578243	997.599975585938
1587.5619267333	997.400024414063
1588.18301649786	996.200012207031
1588.80402508357	995.799987792969
1589.42495249788	998.799987792969
1590.04579874826	991
1590.66656384217	992.400024414063
1591.28724778707	996.400024414063
1591.90785059042	997.599975585938
1592.52837225968	1000.20001220703
1593.14881280232	991.400024414063
1593.76917222578	998
1594.38945053753	997.799987792969
1595.00964774502	991.400024414063
1595.62976385573	997.799987792969
1596.24979887709	996
1596.86975281657	994.200012207031
1597.48962568164	995.599975585938
1598.10941747974	1000.40002441406
1598.72912821832	999.400024414063
1599.34875790486	996.799987792969
1599.9683065468	995.799987792969
1600.58777415159	996
1601.2071607267	993.799987792969
1601.82646627958	991.799987792969
1602.44569081769	987.799987792969
1603.06483434846	992.799987792969
1603.68389687937	986
1604.30287841786	989.799987792969
1604.92177897139	993.599975585938
1605.54059854741	990.599975585938
1606.15933715337	988
1606.77799479672	992.599975585938
1607.39657148492	990.400024414063
1608.01506722542	996.599975585938
1608.63348202566	993.200012207031
1609.2518158931	989.799987792969
1609.87006883519	993
1610.48824085939	993.799987792969
1611.10633197312	992.200012207031
1611.72434218386	992.200012207031
1612.34227149904	993.400024414063
1612.96011992612	992.200012207031
1613.57788747254	988
1614.19557414575	989.400024414063
1614.8131799532	983.799987792969
1615.43070490234	983.400024414063
1616.04814900061	989.200012207031
1616.66551225545	986.799987792969
1617.28279467433	986.599975585938
1617.89999626467	986.799987792969
1618.51711703393	986.200012207031
1619.13415698955	983.400024414063
1619.75111613898	986
1620.36799448966	982.799987792969
1620.98479204903	989.400024414063
1621.60150882455	983.200012207031
1622.21814482364	986.599975585938
1622.83470005376	986.200012207031
1623.45117452235	984
1624.06756823685	982.799987792969
1624.6838812047	982.200012207031
1625.30011343335	990.200012207031
1625.91626493022	994.200012207031
1626.53233570278	984
1627.14832575845	983.400024414063
1627.76423510468	988.599975585938
1628.38006374891	982.599975585938
1628.99581169857	979.599975585938
1629.61147896111	981.400024414063
1630.22706554397	985.400024414063
1630.84257145457	977.599975585938
1631.45799670038	982.200012207031
1632.07334128881	987.799987792969
1632.6886052273	986.400024414063
1633.3037885233	988.200012207031
1633.91889118425	988.599975585938
1634.53391321757	982.799987792969
1635.1488546307	982.799987792969
1635.76371543108	990.200012207031
1636.37849562616	985.400024414063
1636.99319522335	988.599975585938
1637.60781423009	983.599975585938
1638.22235265383	987.400024414063
1638.83681050198	990.400024414063
1639.451187782	978.799987792969
1640.0654845013	987.599975585938
1640.67970066734	988.200012207031
1641.29383628752	991.400024414063
1641.9078913693	990.799987792969
1642.5218659201	987.799987792969
1643.13575994735	1000.79998779297
1643.74957345849	997.799987792969
1644.36330646094	992.799987792969
1644.97695896213	1003.59997558594
1645.59053096951	1001
1646.20402249049	1002
1646.8174335325	1001.20001220703
1647.43076410298	1005.59997558594
1648.04401420935	994
1648.65718385905	995.799987792969
1649.2702730595	998.200012207031
1649.88328181812	997.200012207031
1650.49621014236	996.599975585938
1651.10905803963	1001.20001220703
1651.72182551735	992.599975585938
1652.33451258297	998
1652.9471192439	992.799987792969
1653.55964550757	992.599975585938
1654.1720913814	990
1654.78445687283	990.200012207031
1655.39674198926	985
1656.00894673814	991.200012207031
1656.62107112688	986
1657.23311516291	986.599975585938
1657.84507885365	986.799987792969
1658.45696220652	981.200012207031
1659.06876522895	984.799987792969
1659.68048792835	983.599975585938
1660.29213031217	974.799987792969
1660.90369238779	976.200012207031
1661.51517416267	977.799987792969
1662.12657564421	977.400024414063
1662.73789683984	979.599975585938
1663.34913775697	983.200012207031
1663.96029840303	976
1664.57137878544	976.200012207031
1665.18237891161	977.799987792969
1665.79329878897	978.799987792969
1666.40413842493	979.599975585938
1667.01489782691	972.799987792969
1667.62557700233	974.200012207031
1668.2361759586	967.799987792969
1668.84669470315	972.200012207031
1669.4571332434	977.799987792969
1670.06749158675	974.799987792969
1670.67776974062	975
1671.28796771243	972
1671.8980855096	967.799987792969
1672.50812313954	969.799987792969
1673.11808060967	966.599975585938
1673.72795792739	965.799987792969
1674.33775510013	961.599975585938
1674.9474721353	969.200012207031
1675.55710904031	963.400024414063
1676.16666582257	960.599975585938
1676.7761424895	962.200012207031
1677.38553904851	965.799987792969
1677.99485550702	964.799987792969
1678.60409187243	966.799987792969
1679.21324815215	963.599975585938
1679.8223243536	965.599975585938
1680.43132048419	968.799987792969
1681.04023655132	966.599975585938
1681.64907256241	973.200012207031
1682.25782852487	971
1682.86650444611	966.799987792969
1683.47510033353	967.599975585938
1684.08361619455	966.799987792969
1684.69205203657	968.200012207031
1685.300407867	970
1685.90868369325	968.799987792969
1686.51687952272	968.799987792969
1687.12499536283	963.599975585938
1687.73303122098	962.400024414063
1688.34098710457	966.599975585938
1688.94886302101	957.799987792969
1689.55665897772	961.599975585938
1690.16437498208	958.599975585938
1690.77201104152	957.400024414063
1691.37956716342	957.200012207031
1691.9870433552	958.799987792969
1692.59443962426	963.599975585938
1693.20175597801	957.200012207031
1693.80899242384	957.599975585938
1694.41614896916	954
1695.02322562138	956.200012207031
1695.63022238789	957.799987792969
1696.23713927609	955.200012207031
1696.8439762934	955.400024414063
1697.4507334472	952.400024414063
1698.05741074491	955
1698.66400819391	956.400024414063
1699.27052580161	952.400024414063
1699.87696357542	951.200012207031
1700.48332152272	949.799987792969
1701.08959965092	954.599975585938
1701.69579796742	954.799987792969
1702.30191647962	958.200012207031
1702.90795519491	954.799987792969
1703.51391412069	955.799987792969
1704.11979326437	956.799987792969
1704.72559263332	960
1705.33131223496	953.799987792969
1705.93695207668	953.599975585938
1706.54251216588	949.599975585938
1707.14799250994	950.400024414063
1707.75339311628	948
1708.35871399227	953.400024414063
1708.96395514532	957.799987792969
1709.56911658282	952.200012207031
