634.948122577771	1035.80004882813
635.690341530823	1036.40002441406
636.43246851086	1037.40002441406
637.174503525845	1042
637.916446583745	1040
638.658297692538	1034.80004882813
639.400056860179	1034
640.141724094637	1038.19995117188
640.883299403885	1042.80004882813
641.62478279588	1034.59997558594
642.366174278594	1036.59997558594
643.107473859989	1033.40002441406
643.848681548029	1038.19995117188
644.589797350679	1037.59997558594
645.330821275901	1038.19995117188
646.071753331665	1034.40002441406
646.812593525922	1044.19995117188
647.553341866646	1044.19995117188
648.293998361798	1028.59997558594
649.03456301933	1028.80004882813
649.775035847216	1033.40002441406
650.515416853409	1034
651.255706045874	1033.19995117188
651.995903432568	1041
652.736009021453	1040.19995117188
653.476022820486	1034.80004882813
654.215944837629	1035.40002441406
654.955775080842	1049.59997558594
655.695513558081	1040
656.435160277301	1035.19995117188
657.174715246465	1035.40002441406
657.914178473527	1038.40002441406
658.653549966449	1041.19995117188
659.392829733176	1042
660.132017781678	1039.59997558594
660.871114119901	1040
661.610118755803	1049.40002441406
662.349031697343	1046.59997558594
663.087852952468	1038.80004882813
663.826582529139	1044.40002441406
664.565220435305	1034.80004882813
665.30376667892	1046.80004882813
666.04222126794	1035.40002441406
666.780584210316	1041.80004882813
667.518855514	1041.19995117188
668.25703518694	1045
668.995123237096	1048.80004882813
669.733119672413	1046.59997558594
670.471024500842	1043
671.208837730333	1047.80004882813
671.946559368839	1046
672.684189424308	1040
673.421727904689	1037.59997558594
674.159174817929	1039
674.896530171977	1043
675.633793974786	1042
676.370966234295	1045.19995117188
677.108046958461	1047.19995117188
677.845036155219	1050.59997558594
678.581933832528	1049
679.318739998323	1048.59997558594
680.055454660558	1048.40002441406
680.792077827172	1057
681.528609506116	1054.80004882813
682.265049705331	1058
683.001398432759	1047
683.737655696349	1051.80004882813
684.47382150404	1053.19995117188
685.20989586378	1056.80004882813
685.945878783503	1060.19995117188
686.68177027116	1051.19995117188
687.417570334688	1053
688.153278982032	1052.40002441406
688.888896221129	1049.80004882813
689.624422059921	1047.40002441406
690.359856506349	1052
691.095199568354	1051.59997558594
691.830451253874	1050.59997558594
692.565611570844	1049.40002441406
693.300680527212	1043
694.03565813091	1044.40002441406
694.770544389877	1053.80004882813
695.505339312053	1044.80004882813
696.240042905372	1054.80004882813
696.974655177772	1051.59997558594
697.70917613719	1052.19995117188
698.443605791561	1049.40002441406
699.177944148826	1053.40002441406
699.912191216909	1036.19995117188
700.646347003755	1047.80004882813
701.380411517295	1048.59997558594
702.114384765465	1042
702.848266756195	1045.40002441406
703.582057497421	1038.80004882813
704.315756997074	1042.59997558594
705.049365263089	1047.19995117188
705.782882303399	1043
706.516308125936	1044.80004882813
707.249642738626	1047.59997558594
707.982886149403	1043.80004882813
708.716038366204	1047.19995117188
709.449099396949	1045.19995117188
710.182069249577	1039.19995117188
710.914947932009	1035.59997558594
711.647735452181	1045.19995117188
712.380431818022	1039.59997558594
713.113037037454	1035.80004882813
713.845551118411	1040.59997558594
714.577974068818	1048.80004882813
715.310305896604	1041.19995117188
716.042546609694	1041
716.774696216013	1038.59997558594
717.506754723493	1041.80004882813
718.238722140053	1038.80004882813
718.970598473624	1043.19995117188
719.702383732127	1041.19995117188
720.43407792349	1047
721.165681055634	1042.19995117188
721.897193136486	1044.19995117188
722.628614173966	1043.40002441406
723.359944175997	1035.59997558594
724.091183150505	1044.40002441406
724.822331105412	1048.80004882813
725.553388048638	1049.19995117188
726.284353988106	1050.19995117188
727.015228931734	1049.80004882813
727.746012887449	1041
728.476705863162	1043
729.207307866803	1041.80004882813
729.937818906289	1042.40002441406
730.668238989535	1040
731.398568124459	1042
732.128806318986	1044.19995117188
732.858953581034	1037.19995117188
733.589009918514	1033.19995117188
734.318975339348	1036.59997558594
735.048849851452	1040
735.778633462744	1047.80004882813
736.508326181137	1048.80004882813
737.237928014549	1050.19995117188
737.967438970897	1040.40002441406
738.696859058095	1044
739.426188284054	1039.40002441406
740.155426656692	1038
740.884574183922	1042.59997558594
741.613630873659	1038.40002441406
742.342596733815	1041.19995117188
743.071471772302	1046.19995117188
743.800255997034	1043.19995117188
744.528949415921	1045.59997558594
745.257552036877	1048.19995117188
745.986063867811	1045.19995117188
746.714484916638	1044.19995117188
747.442815191261	1040.19995117188
748.171054699597	1037.19995117188
748.899203449554	1041.40002441406
749.627261449039	1042.80004882813
750.355228705966	1043
751.083105228239	1049
751.810891023765	1047.40002441406
752.538586100459	1048.59997558594
753.266190466218	1048.59997558594
753.99370412896	1043.40002441406
754.721127096582	1043.19995117188
755.448459377	1053.19995117188
756.175700978114	1045.19995117188
756.902851907828	1043.80004882813
757.629912174055	1044.59997558594
758.356881784688	1041.59997558594
759.083760747639	1045.80004882813
759.810549070817	1043.19995117188
760.537246762113	1050.19995117188
761.263853829442	1055.19995117188
761.990370280698	1054
762.716796123791	1051
763.443131366618	1050.19995117188
764.169376017082	1051.80004882813
764.895530083085	1058.40002441406
765.621593572527	1059.19995117188
766.347566493312	1065.80004882813
767.073448853336	1070.40002441406
767.799240660502	1067
768.524941922707	1070
769.250552647854	1066.80004882813
769.976072843836	1069.59997558594
770.701502518551	1068.59997558594
771.426841679905	1076.80004882813
772.152090335793	1080.19995117188
772.877248494107	1071.40002441406
773.602316162747	1071.19995117188
774.327293349609	1078
775.052180062592	1081
775.776976309589	1085.80004882813
776.501682098496	1084.59997558594
777.226297437206	1077.19995117188
777.950822333616	1076.19995117188
778.675256795621	1068.19995117188
779.399600831111	1065
780.123854447983	1061.80004882813
780.84801765413	1067.40002441406
781.572090457441	1059.19995117188
782.296072865811	1056
783.019964887131	1061.80004882813
783.743766529297	1054.40002441406
784.467477800194	1052.40002441406
785.191098707719	1051
785.914629259756	1050.80004882813
786.638069464194	1050.59997558594
787.361419328932	1059.59997558594
788.084678861852	1053.19995117188
788.807848070845	1058.19995117188
789.530926963798	1062.80004882813
790.253915548602	1051.80004882813
790.976813833144	1053
791.699621825307	1045.19995117188
792.422339532986	1054
793.144966964061	1057.59997558594
793.86750412642	1046.80004882813
794.589951027946	1050.40002441406
795.312307676536	1049.59997558594
796.03457408006	1052
796.756750246417	1051.80004882813
797.478836183477	1051.80004882813
798.200831899137	1050.19995117188
798.92273740127	1048.80004882813
799.644552697769	1053.59997558594
800.36627779651	1058
801.087912705374	1055.19995117188
801.809457432251	1044
802.530911985017	1050.40002441406
803.252276371558	1055
803.973550599748	1049.19995117188
804.694734677472	1041.59997558594
805.415828612611	1046.80004882813
806.136832413045	1043.19995117188
806.857746086646	1046.19995117188
807.578569641305	1049.19995117188
808.299303084892	1043
809.019946425289	1048.59997558594
809.740499670372	1041
810.460962828022	1036.59997558594
811.181335906114	1041.80004882813
811.901618912524	1042.40002441406
812.621811855131	1048.59997558594
813.341914741809	1049.59997558594
814.061927580433	1047.19995117188
814.781850378881	1040.19995117188
815.501683145025	1043.40002441406
816.221425886743	1043.19995117188
816.941078611903	1036.80004882813
817.660641328387	1046.59997558594
818.380114044065	1047.19995117188
819.099496766808	1046.80004882813
819.818789504492	1046.59997558594
820.53799226499	1042.40002441406
821.257105056168	1047.80004882813
821.976127885904	1048.19995117188
822.695060762064	1044.80004882813
823.413903692525	1048.80004882813
824.132656685151	1044.19995117188
824.851319747817	1047.19995117188
825.569892888388	1053.59997558594
826.288376114739	1041.59997558594
827.006769434737	1045
827.725072856249	1044.19995117188
828.443286387142	1037.19995117188
829.161410035285	1042.80004882813
829.87944380855	1045.40002441406
830.597387714798	1039.59997558594
831.315241761898	1045
832.033005957715	1037.59997558594
832.750680310119	1040.80004882813
833.468264826969	1051
834.18575951614	1046
834.903164385486	1046.19995117188
835.620479442878	1044.80004882813
836.337704696181	1041.80004882813
837.054840153255	1045.59997558594
837.771885821962	1050.19995117188
838.488841710172	1048.80004882813
839.20570782574	1052.40002441406
839.922484176531	1051.19995117188
840.639170770409	1043.80004882813
841.355767615231	1043.80004882813
842.072274718864	1045
842.788692089164	1046
843.505019733993	1046
844.221257661209	1051.40002441406
844.937405878676	1042.59997558594
845.65346439425	1049.80004882813
846.369433215789	1046.59997558594
847.085312351156	1043.80004882813
847.801101808205	1045
848.516801594793	1045.59997558594
849.232411718781	1047.19995117188
849.947932188021	1046.40002441406
850.663363010376	1047.19995117188
851.378704193698	1041.40002441406
852.093955745842	1046
852.809117674669	1051.19995117188
853.524189988028	1043.40002441406
854.239172693778	1045.19995117188
854.954065799768	1045.59997558594
855.668869313857	1043.80004882813
856.383583243899	1046.19995117188
857.098207597743	1048.59997558594
857.812742383246	1049.59997558594
858.527187608255	1039
859.241543280628	1039.19995117188
859.955809408218	1038.40002441406
860.669985998868	1033.59997558594
861.384073060437	1036.80004882813
862.098070600772	1032.80004882813
862.811978627724	1033.40002441406
863.52579714914	1036.19995117188
864.239526172873	1042.19995117188
864.953165706776	1038.80004882813
865.666715758687	1038.80004882813
866.380176336464	1040.80004882813
867.093547447951	1044.59997558594
867.806829100996	1043.80004882813
868.520021303444	1042.80004882813
869.233124063149	1045.59997558594
869.94613738795	1044.59997558594
870.659061285693	1046.19995117188
871.37189576423	1046.80004882813
872.084640831403	1057.40002441406
872.797296495057	1047.19995117188
873.509862763039	1047.40002441406
874.22233964319	1049.19995117188
874.934727143353	1051.59997558594
875.647025271374	1047.19995117188
876.359234035097	1045.40002441406
877.071353442361	1051.19995117188
877.783383501015	1045.19995117188
878.495324218895	1042.19995117188
879.207175603844	1043.80004882813
879.918937663705	1044
880.630610406318	1040.40002441406
881.342193839524	1038.40002441406
882.053687971161	1040.80004882813
882.765092809069	1042.19995117188
883.476408361091	1040.80004882813
884.187634635066	1046.59997558594
884.898771638828	1046.40002441406
885.609819380221	1038.19995117188
886.320777867076	1039.80004882813
887.031647107236	1049.59997558594
887.742427108536	1046
888.453117878816	1050.59997558594
889.16371942591	1052
889.874231757652	1054
890.584654881883	1049.59997558594
891.294988806434	1039.19995117188
892.005233539141	1053.40002441406
892.715389087837	1041.40002441406
893.42545546036	1045.40002441406
894.135432664543	1047.19995117188
894.845320708216	1046.19995117188
895.555119599216	1045.80004882813
896.264829345375	1052.59997558594
896.974449954526	1053.59997558594
897.683981434496	1041
898.393423793125	1048
899.102777038235	1043.59997558594
899.812041177664	1045.40002441406
900.521216219239	1045.19995117188
901.230302170793	1042.40002441406
901.939299040155	1034.40002441406
902.64820683515	1038.40002441406
903.357025563612	1050
904.065755233368	1040.40002441406
904.774395852247	1045.19995117188
905.482947428076	1041.40002441406
906.191409968682	1041
906.899783481897	1042.19995117188
907.608067975538	1044.19995117188
908.316263457443	1049.40002441406
909.02436993543	1051.59997558594
909.732387417327	1052.59997558594
910.440315910959	1045.80004882813
911.148155424154	1049.80004882813
911.855905964731	1049.19995117188
912.563567540521	1051.59997558594
913.271140159339	1050.19995117188
913.978623829017	1058
914.686018557374	1053.19995117188
915.393324352237	1043.19995117188
916.100541221421	1046.59997558594
916.807669172752	1045.40002441406
917.514708214054	1048.40002441406
918.221658353142	1048.19995117188
918.928519597843	1049.80004882813
919.635291955976	1053
920.341975435358	1047.80004882813
921.048570043813	1048
921.75507578916	1048.80004882813
922.461492679212	1052.40002441406
923.167820721795	1053.19995117188
923.874059924726	1048.80004882813
924.58021029582	1054.59997558594
925.286271842893	1048.19995117188
925.992244573769	1054.19995117188
926.698128496262	1050.80004882813
927.403923618184	1045.40002441406
928.109629947355	1045.40002441406
928.815247491593	1050.59997558594
929.520776258708	1049.80004882813
930.226216256519	1054.80004882813
930.931567492841	1051.40002441406
931.636829975482	1049.80004882813
932.342003712263	1046.80004882813
933.047088710995	1046.40002441406
933.752084979491	1052
934.456992525564	1052
935.161811357024	1044.80004882813
935.866541481688	1041
936.571182907363	1054.40002441406
937.275735641861	1053.19995117188
937.980199692995	1051.59997558594
938.684575068572	1054
939.388861776411	1049.59997558594
940.093059824311	1051
940.797169220085	1051.80004882813
941.501189971544	1050
942.205122086495	1048.19995117188
942.908965572751	1044.80004882813
943.612720438111	1046
944.316386690391	1039.40002441406
945.019964337391	1045.80004882813
945.723453386924	1046.59997558594
946.426853846795	1041.80004882813
947.130165724808	1044.80004882813
947.83338902877	1041.80004882813
948.536523766488	1043.80004882813
949.239569945764	1045.80004882813
949.942527574402	1053.19995117188
950.64539666021	1042.59997558594
951.348177210993	1047.80004882813
952.050869234548	1039.19995117188
952.753472738683	1046.40002441406
953.455987731199	1044
954.158414219898	1043.19995117188
954.860752212587	1048
955.563001717061	1040.80004882813
956.265162741124	1039
956.967235292576	1040.59997558594
957.669219379224	1039.19995117188
958.371115008857	1041
959.072922189283	1044
959.774640928301	1053.59997558594
960.476271233708	1041.80004882813
961.177813113301	1044.59997558594
961.879266574882	1049.19995117188
962.580631626248	1044.40002441406
963.281908275194	1045.40002441406
963.98309652952	1045.40002441406
964.684196397022	1044
965.3852078855	1041.40002441406
966.086131002745	1044.40002441406
966.786965756555	1039.19995117188
967.487712154726	1043.80004882813
968.188370205055	1044.80004882813
968.888939915331	1048.40002441406
969.589421293352	1038.59997558594
970.289814346909	1037
970.990119083801	1044.80004882813
971.690335511819	1039
972.39046363875	1044.19995117188
973.090503472398	1047.80004882813
973.790455020545	1046.80004882813
974.490318290987	1044.59997558594
975.190093291516	1043.80004882813
975.889780029923	1045
976.589378513998	1047
977.288888751527	1052.59997558594
977.988310750308	1052
978.687644518122	1046.19995117188
979.386890062767	1049.40002441406
980.086047392025	1047.40002441406
980.785116513689	1051.40002441406
981.484097435542	1050.19995117188
982.182990165377	1044.40002441406
982.88179471098	1048
983.580511080137	1048
984.279139280632	1042.59997558594
984.977679320253	1046.80004882813
985.67613120679	1034.80004882813
986.374494948027	1047.59997558594
987.072770551745	1044
987.770958025731	1044
988.469057377772	1037.19995117188
989.167068615649	1036.59997558594
989.864991747145	1039.40002441406
990.562826780047	1041.40002441406
991.260573722134	1035.40002441406
991.958232581195	1040
992.655803365003	1040.40002441406
993.353286081346	1046.59997558594
994.050680738006	1045.80004882813
994.74798734276	1042.19995117188
995.44520590339	1037.19995117188
996.142336427681	1039.19995117188
996.839378923407	1034.40002441406
997.536333398348	1043
998.233199860289	1043.80004882813
998.929978317004	1044.40002441406
999.626668776274	1036.40002441406
1000.32327124587	1040.80004882813
1001.01978573359	1040.19995117188
1001.71621224718	1040.59997558594
1002.41255079445	1047.19995117188
1003.10880138315	1048.19995117188
1003.80496402107	1047.40002441406
1004.50103871599	1045.59997558594
1005.19702547567	1049
1005.8929243079	1054.19995117188
1006.58873522045	1049.80004882813
1007.2844582211	1049.80004882813
1007.98009331761	1053.80004882813
1008.67564051776	1047
1009.37109982933	1043.19995117188
1010.06647126009	1042.59997558594
1010.7617548178	1044
1011.45695051026	1042.59997558594
1012.15205834522	1047.19995117188
1012.84707833045	1036.59997558594
1013.54201047373	1039.40002441406
1014.23685478284	1040.80004882813
1014.93161126553	1035.80004882813
1015.62627992959	1035.59997558594
1016.32086078277	1037.59997558594
1017.01535383285	1034
1017.70975908761	1037
1018.40407655479	1029.40002441406
1019.09830624219	1037.80004882813
1019.79244815755	1040.80004882813
1020.48650230866	1042.19995117188
1021.18046870328	1050.19995117188
1021.87434734917	1052.40002441406
1022.56813825411	1047.59997558594
1023.26184142584	1045.19995117188
1023.95545687216	1043.19995117188
1024.64898460082	1042.40002441406
1025.34242461957	1046
1026.0357769362	1048.40002441406
1026.72904155846	1045.19995117188
1027.42221849412	1042.80004882813
1028.11530775094	1040.80004882813
1028.80830933668	1039.19995117188
1029.50122325911	1039.59997558594
1030.19404952599	1041
1030.88678814508	1043.59997558594
1031.57943912414	1040.59997558594
1032.27200247093	1031.80004882813
1032.96447819323	1035.59997558594
1033.65686629878	1032.40002441406
1034.34916679534	1030.19995117188
1035.04137969068	1033.59997558594
1035.73350499256	1035.80004882813
1036.42554270874	1033
1037.11749284697	1033.40002441406
1037.80935541501	1030
1038.50113042062	1041
1039.19281787156	1038.19995117188
1039.88441777559	1036.40002441406
1040.57593014046	1031.80004882813
1041.26735497393	1037.40002441406
1041.95869228376	1037
1042.6499420777	1028.19995117188
1043.3411043635	1036.80004882813
1044.03217914893	1028.80004882813
1044.72316644174	1027.40002441406
1045.41406624968	1027
1046.1048785805	1037.59997558594
1046.79560344197	1035.80004882813
1047.48624084182	1038.80004882813
1048.17679078783	1035.19995117188
1048.86725328774	1037
1049.55762834929	1045.19995117188
1050.24791598025	1037
1050.93811618837	1035.59997558594
1051.62822898139	1036
1052.31825436707	1035.40002441406
1053.00819235315	1033.80004882813
1053.6980429474	1038.19995117188
1054.38780615755	1034.80004882813
1055.07748199136	1039.80004882813
1055.76707045658	1036.80004882813
1056.45657156095	1033.59997558594
1057.14598531222	1030.80004882813
1057.83531171814	1030.19995117188
1058.52455078646	1033.80004882813
1059.21370252494	1030.80004882813
1059.90276694129	1038.40002441406
1060.5917440433	1039.40002441406
1061.28063383868	1035.80004882813
1061.9694363352	1031.59997558594
1062.65815154059	1035.19995117188
1063.34677946261	1024
1064.03532010899	1040.19995117188
1064.72377348748	1031.59997558594
1065.41213960583	1037.19995117188
1066.10041847177	1036.59997558594
1066.78861009306	1024
1067.47671447743	1027.40002441406
1068.16473163263	1031.19995117188
1068.85266156639	1030.59997558594
1069.54050428647	1026.19995117188
1070.2282598006	1032.80004882813
1070.91592811652	1033
1071.60350924198	1023.59997558594
1072.29100318471	1029.40002441406
1072.97840995245	1026.40002441406
1073.66572955295	1023
1074.35296199394	1028.19995117188
1075.04010728316	1029.40002441406
1075.72716542836	1022.20001220703
1076.41413643726	1033
1077.10102031761	1031.19995117188
1077.78781707715	1034
1078.4745267236	1027
1079.16114926471	1040.19995117188
1079.84768470822	1038.59997558594
1080.53413306185	1030.80004882813
1081.22049433336	1029.19995117188
1081.90676853046	1037.19995117188
1082.5929556609	1028.80004882813
1083.27905573241	1039.40002441406
1083.96506875272	1033
1084.65099472957	1028.80004882813
1085.3368336707	1040.19995117188
1086.02258558383	1038
1086.70825047669	1032.80004882813
1087.39382835703	1035.80004882813
1088.07931923257	1039
1088.76472311104	1039.80004882813
1089.45004000018	1040.19995117188
1090.13526990771	1039.59997558594
1090.82041284137	1045.40002441406
1091.50546880889	1034.59997558594
1092.19043781799	1035
1092.87531987642	1037.40002441406
1093.56011499188	1035.40002441406
1094.24482317212	1034.80004882813
1094.92944442486	1040.59997558594
1095.61397875783	1039.40002441406
1096.29842617876	1036.80004882813
1096.98278669537	1039.19995117188
1097.6670603154	1038
1098.35124704656	1034
1099.03534689659	1036.80004882813
1099.71935987322	1039.40002441406
1100.40328598416	1032.80004882813
1101.08712523713	1038
1101.77087763988	1045.80004882813
1102.45454320012	1032.19995117188
1103.13812192557	1041.80004882813
1103.82161382396	1042.19995117188
1104.50501890301	1040.80004882813
1105.18833717045	1036.19995117188
1105.87156863399	1038.40002441406
1106.55471330137	1036.59997558594
1107.2377711803	1037.19995117188
1107.9207422785	1029.19995117188
1108.60362660369	1030.19995117188
1109.2864241636	1030.59997558594
1109.96913496594	1025.80004882813
1110.65175901844	1025.59997558594
1111.33429632882	1031.19995117188
1112.01674690479	1032.40002441406
1112.69911075408	1040.40002441406
1113.38138788439	1036.40002441406
1114.06357830346	1042.19995117188
1114.745682019	1036.19995117188
1115.42769903872	1041.59997558594
1116.10962937035	1039.19995117188
1116.7914730216	1038.80004882813
1117.47323000018	1033
1118.15490031382	1038.80004882813
1118.83648397022	1039
1119.51798097712	1036.40002441406
1120.1993913422	1039
1120.88071507321	1048
1121.56195217784	1046.59997558594
1122.24310266381	1046.19995117188
1122.92416653884	1039.80004882813
1123.60514381064	1028.19995117188
1124.28603448692	1034.19995117188
1124.9668385754	1033.59997558594
1125.64755608378	1029
1126.32818701978	1035.19995117188
1127.00873139111	1027.19995117188
1127.68918920548	1032.40002441406
1128.3695604706	1039.59997558594
1129.04984519419	1042.59997558594
1129.73004338394	1041.40002441406
1130.41015504758	1042.40002441406
1131.09018019281	1047.40002441406
1131.77011882734	1039.59997558594
1132.44997095888	1038
1133.12973659514	1040
1133.80941574381	1037.80004882813
1134.48900841263	1038.40002441406
1135.16851460927	1036
1135.84793434147	1039.19995117188
1136.52726761692	1037.59997558594
1137.20651444333	1037.40002441406
1137.8856748284	1042.40002441406
1138.56474877984	1038
1139.24373630536	1038.40002441406
1139.92263741265	1033
1140.60145210943	1036.40002441406
1141.28018040339	1041
1141.95882230225	1035
1142.6373778137	1029.59997558594
1143.31584694545	1032.19995117188
1143.99422970519	1032.19995117188
1144.67252610064	1034.80004882813
1145.35073613949	1029.19995117188
1146.02885982944	1026.80004882813
1146.7068971782	1031
1147.38484819347	1032.59997558594
1148.06271288294	1028.19995117188
1148.74049125432	1025.40002441406
1149.41818331531	1028.59997558594
1150.0957890736	1020.40002441406
1150.77330853689	1026.59997558594
1151.45074171289	1023.59997558594
1152.12808860928	1026.59997558594
1152.80534923378	1036.59997558594
1153.48252359407	1033
1154.15961169786	1033
1154.83661355283	1033.19995117188
1155.51352916669	1032.59997558594
1156.19035854713	1032.80004882813
1156.86710170185	1031.59997558594
1157.54375863855	1033.59997558594
1158.22032936491	1032.40002441406
1158.89681388863	1027.80004882813
1159.57321221741	1034.80004882813
1160.24952435894	1030.19995117188
1160.92575032092	1028.80004882813
1161.60189011103	1034
1162.27794373697	1037.80004882813
1162.95391120644	1042
1163.62979252712	1036.59997558594
1164.3055877067	1031.40002441406
1164.98129675288	1030.19995117188
1165.65691967336	1036
1166.33245647581	1037.80004882813
1167.00790716792	1038.59997558594
1167.6832717574	1041.40002441406
1168.35855025193	1038.19995117188
1169.0337426592	1031.59997558594
1169.70884898689	1034.59997558594
1170.3838692427	1031.40002441406
1171.05880343431	1032.19995117188
1171.73365156941	1036.80004882813
1172.40841365569	1035.40002441406
1173.08308970083	1037.80004882813
1173.75767971253	1042.40002441406
1174.43218369847	1046.59997558594
1175.10660166633	1037.80004882813
1175.7809336238	1038
1176.45517957857	1042.80004882813
1177.12933953832	1038.40002441406
1177.80341351073	1036.19995117188
1178.47740150349	1040.59997558594
1179.15130352429	1036.59997558594
1179.8251195808	1043.59997558594
1180.49884968071	1045.59997558594
1181.1724938317	1044
1181.84605204145	1036.80004882813
1182.51952431766	1039.40002441406
1183.19291066799	1040.80004882813
1183.86621110013	1039.40002441406
1184.53942562176	1045.40002441406
1185.21255424057	1049.80004882813
1185.88559696422	1042.19995117188
1186.55855380041	1041.19995117188
1187.2314247568	1040.80004882813
1187.90420984109	1046.80004882813
1188.57690906095	1040
1189.24952242405	1052
1189.92204993808	1049
1190.59449161071	1048.19995117188
1191.26684744962	1049.19995117188
1191.93911746249	1040.40002441406
1192.61130165699	1044.40002441406
1193.28340004081	1042.80004882813
1193.95541262161	1039.19995117188
1194.62733940707	1042.19995117188
1195.29918040487	1036.40002441406
1195.97093562269	1034.59997558594
1196.64260506819	1036.80004882813
1197.31418874905	1040.19995117188
1197.98568667295	1039.40002441406
1198.65709884755	1034.19995117188
1199.32842528053	1048.80004882813
1199.99966597957	1046.80004882813
1200.67082095234	1049.40002441406
1201.3418902065	1040.59997558594
1202.01287374974	1043.80004882813
1202.68377158971	1046.19995117188
1203.3545837341	1047.40002441406
1204.02531019057	1040.19995117188
1204.6959509668	1039.59997558594
1205.36650607045	1038.40002441406
1206.03697550919	1030
1206.70735929069	1035.19995117188
1207.37765742263	1033.19995117188
1208.04786991266	1039.19995117188
1208.71799676846	1032.19995117188
1209.38803799769	1037.59997558594
1210.05799360803	1036.19995117188
1210.72786360714	1041.19995117188
1211.39764800268	1036.80004882813
1212.06734680233	1032.19995117188
1212.73696001375	1029.80004882813
1213.4064876446	1032.80004882813
1214.07592970255	1029.19995117188
1214.74528619526	1030.59997558594
1215.4145571304	1035.80004882813
1216.08374251564	1033
1216.75284235863	1026.59997558594
1217.42185666704	1021.79998779297
1218.09078544854	1028.19995117188
1218.75962871078	1028.40002441406
1219.42838646143	1032
1220.09705870816	1034.40002441406
1220.76564545861	1030.80004882813
1221.43414672046	1030
1222.10256250136	1035
1222.77089280898	1030
1223.43913765098	1031.40002441406
1224.107297035	1032.80004882813
1224.77537096873	1036.59997558594
1225.44335945981	1033.19995117188
1226.1112625159	1024
1226.77908014467	1031.19995117188
1227.44681235376	1035.80004882813
1228.11445915085	1031.59997558594
1228.78202054357	1027
1229.44949653961	1027
1230.11688714659	1029.40002441406
1230.7841923722	1029.19995117188
1231.45141222407	1030.40002441406
1232.11854670988	1026
1232.78559583726	1029.19995117188
1233.45255961388	1034.59997558594
1234.1194380474	1032.40002441406
1234.78623114546	1025.59997558594
1235.45293891572	1029.19995117188
1236.11956136583	1029.59997558594
1236.78609850345	1028.80004882813
1237.45255033623	1035.80004882813
1238.11891687182	1035.19995117188
1238.78519811788	1032.59997558594
1239.45139408205	1031.40002441406
1240.11750477198	1034
1240.78353019534	1026.40002441406
1241.44947035976	1027.19995117188
1242.11532527291	1027.80004882813
1242.78109494242	1023.79998779297
1243.44677937595	1021.40002441406
1244.11237858115	1031.80004882813
1244.77789256567	1028.19995117188
1245.44332133715	1019.79998779297
1246.10866490325	1023.20001220703
1246.7739232716	1024
1247.43909644987	1023
1248.10418444569	1032.80004882813
1248.76918726671	1031.40002441406
1249.43410492059	1032.80004882813
1250.09893741496	1029
1250.76368475747	1028.19995117188
1251.42834695576	1032
1252.09292401749	1027.59997558594
1252.75741595029	1028
1253.42182276182	1025.19995117188
1254.08614445971	1029.19995117188
1254.75038105161	1023.20001220703
1255.41453254515	1025.19995117188
1256.07859894799	1027.19995117188
1256.74258026777	1014.59997558594
1257.40647651213	1018.40002441406
1258.0702876887	1015.79998779297
1258.73401380514	1022.79998779297
1259.39765486908	1026
1260.06121088817	1027.19995117188
1260.72468187004	1025.40002441406
1261.38806782233	1017.79998779297
1262.05136875269	1021.79998779297
1262.71458466875	1019
1263.37771557815	1020.40002441406
1264.04076148854	1031
1264.70372240753	1032
1265.3665983428	1020
1266.02938930195	1021.59997558594
1266.69209529263	1026.40002441406
1267.35471632249	1023.40002441406
1268.01725239914	1019
1268.67970353024	1023
1269.34206972342	1016.79998779297
1270.00435098631	1018.79998779297
1270.66654732655	1020.59997558594
1271.32865875177	1025
1271.9906852696	1020.79998779297
1272.65262688768	1026
1273.31448361365	1028.59997558594
1273.97625545514	1020.20001220703
1274.63794241978	1023.40002441406
1275.2995445152	1027
1275.96106174903	1027.40002441406
1276.62249412892	1026
1277.28384166248	1020.40002441406
1277.94510435735	1030.19995117188
1278.60628222116	1017.79998779297
1279.26737526155	1028.80004882813
1279.92838348613	1025.19995117188
1280.58930690255	1025.19995117188
1281.25014551842	1023.79998779297
1281.91089934139	1026.80004882813
1282.57156837907	1025.19995117188
1283.2321526391	1017.20001220703
1283.89265212911	1022
1284.55306685671	1024.80004882813
1285.21339682955	1023.20001220703
1285.87364205525	1027.80004882813
1286.53380254142	1029.59997558594
1287.19387829571	1029.80004882813
1287.85386932573	1020.59997558594
1288.51377563911	1021.79998779297
1289.17359724348	1027.40002441406
1289.83333414646	1026.59997558594
1290.49298635567	1030.59997558594
1291.15255387874	1031.40002441406
1291.8120367233	1031.19995117188
1292.47143489696	1017.59997558594
1293.13074840736	1025.19995117188
1293.7899772621	1027.80004882813
1294.44912146882	1027.59997558594
1295.10818103513	1023.59997558594
1295.76715596866	1016.20001220703
1296.42604627704	1024
1297.08485196787	1025.59997558594
1297.74357304878	1031.19995117188
1298.4022095274	1026.80004882813
1299.06076141134	1021
1299.71922870821	1028
1300.37761142565	1030.59997558594
1301.03590957126	1023.79998779297
1301.69412315268	1030.80004882813
1302.3522521775	1028.59997558594
1303.01029665336	1036.19995117188
1303.66825658787	1030.59997558594
1304.32613198865	1035.59997558594
1304.98392286332	1034.59997558594
1305.64162921948	1036.19995117188
1306.29925106476	1037
1306.95678840677	1041
1307.61424125312	1043
1308.27160961145	1033
1308.92889348934	1044.40002441406
1309.58609289443	1045
1310.24320783432	1043.40002441406
1310.90023831664	1046.19995117188
1311.55718434898	1041.19995117188
1312.21404593897	1042.59997558594
1312.87082309421	1043.40002441406
1313.52751582233	1046
1314.18412413092	1049.80004882813
1314.84064802761	1055.19995117188
1315.49708752	1040.59997558594
1316.1534426157	1042
1316.80971332233	1040.19995117188
1317.46589964749	1044.40002441406
1318.1220015988	1034.19995117188
1318.77801918386	1037.40002441406
1319.43395241028	1039.80004882813
1320.08980128567	1036.80004882813
1320.74556581764	1033.19995117188
1321.4012460138	1032.19995117188
1322.05684188176	1032.59997558594
1322.71235342911	1028.19995117188
1323.36778066347	1027.80004882813
1324.02312359245	1026.59997558594
1324.67838222365	1032.19995117188
1325.33355656468	1032
1325.98864662314	1030.40002441406
1326.64365240663	1028.80004882813
1327.29857392277	1022.59997558594
1327.95341117915	1037.40002441406
1328.60816418339	1034.19995117188
1329.26283294308	1032.59997558594
1329.91741746582	1028.80004882813
1330.57191775923	1024
1331.2263338309	1033
1331.88066568843	1024.40002441406
1332.53491333943	1023
1333.1890767915	1026.40002441406
1333.84315605224	1031
1334.49715112925	1023
1335.15106203013	1021.20001220703
1335.80488876249	1022.59997558594
1336.45863133391	1015.20001220703
1337.112289752	1020
1337.76586402437	1029
1338.4193541586	1031.19995117188
1339.0727601623	1027.80004882813
1339.72608204306	1029.19995117188
1340.37931980849	1025.80004882813
1341.03247346617	1026.19995117188
1341.68554302372	1030.40002441406
1342.33852848871	1029.40002441406
1342.99142986876	1030.59997558594
1343.64424717145	1029.80004882813
1344.29698040438	1030.19995117188
1344.94962957515	1034.19995117188
1345.60219469135	1031.80004882813
1346.25467576058	1033.19995117188
1346.90707279042	1037.40002441406
1347.55938578848	1030.59997558594
1348.21161476235	1039.80004882813
1348.86375971962	1031.59997558594
1349.51582066787	1038.80004882813
1350.16779761472	1038.59997558594
1350.81969056774	1040.59997558594
1351.47149953453	1043.80004882813
1352.12322452269	1046.59997558594
1352.77486553979	1036
1353.42642259344	1047
1354.07789569122	1042.40002441406
1354.72928484072	1042.80004882813
1355.38059004953	1044.59997558594
1356.03181132525	1049.59997558594
1356.68294867545	1051.19995117188
1357.33400210773	1053.80004882813
1357.98497162968	1058.80004882813
1358.63585724889	1062.59997558594
1359.28665897294	1057
1359.93737680942	1054
1360.58801076591	1062.59997558594
1361.23856085001	1064.19995117188
1361.88902706929	1063.19995117188
1362.53940943135	1068.19995117188
1363.18970794377	1062.80004882813
1363.83992261413	1063.19995117188
1364.49005345003	1058.59997558594
1365.14010045904	1054.19995117188
1365.79006364874	1048.59997558594
1366.43994302673	1056.80004882813
1367.08973860058	1055.80004882813
1367.73945037788	1048.59997558594
1368.38907836621	1045
1369.03862257315	1051.59997558594
1369.68808300629	1038.59997558594
1370.3374596732	1041.59997558594
1370.98675258148	1046.19995117188
1371.63596173868	1042
1372.28508715241	1035.80004882813
1372.93412883024	1042.19995117188
1373.58308677974	1035
1374.2319610085	1037
1374.8807515241	1031.80004882813
1375.52945833412	1032.80004882813
1376.17808144612	1034
1376.82662086771	1026.40002441406
1377.47507660644	1022
1378.12344866989	1026.59997558594
1378.77173706565	1030
1379.41994180129	1022.79998779297
1380.06806288439	1024
1380.71610032252	1024
1381.36405412326	1017
1382.01192429419	1015.40002441406
1382.65971084287	1014.79998779297
1383.30741377688	1018.79998779297
1383.95503310381	1025.80004882813
1384.60256883121	1019.40002441406
1385.25002096667	1022
1385.89738951775	1021
1386.54467449204	1012.59997558594
1387.19187589709	1016.40002441406
1387.8389937405	1016.59997558594
1388.48602802982	1018.59997558594
1389.13297877262	1016.59997558594
1389.77984597649	1013
1390.42662964899	1013
1391.07332979768	1012
1391.71994643015	1015
1392.36647955395	1018.20001220703
1393.01292917667	1018.40002441406
1393.65929530586	1021.40002441406
1394.3055779491	1015.40002441406
1394.95177711395	1020
1395.59789280799	1023.79998779297
1396.24392503877	1016
1396.88987381387	1015.79998779297
1397.53573914086	1011.79998779297
1398.1815210273	1007.20001220703
1398.82721948075	1012.59997558594
1399.47283450878	1013.20001220703
1400.11836611897	1015.40002441406
1400.76381431886	1021.40002441406
1401.40917911603	1019.59997558594
1402.05446051805	1019.79998779297
1402.69965853247	1015
1403.34477316686	1011.20001220703
1403.98980442878	1011
1404.6347523258	1005.79998779297
1405.27961686548	1011.20001220703
1405.92439805538	1014.79998779297
1406.56909590306	1013.79998779297
1407.21371041608	1019.20001220703
1407.85824160202	1009.59997558594
1408.50268946841	1011.20001220703
1409.14705402284	1010.79998779297
1409.79133527285	1007.20001220703
1410.43553322601	1013.20001220703
1411.07964788987	1014.79998779297
1411.723679272	1019.20001220703
1412.36762737996	1068.80004882813
1413.01149222129	1133.59997558594
1413.65527380357	1024.59997558594
1414.29897213435	1016.20001220703
1414.94258722118	1017.79998779297
1415.58611907163	1029.80004882813
1416.22956769325	1163.80004882813
1416.87293309359	1122.80004882813
1417.51621528021	1024
1418.15941426067	1014.40002441406
1418.80253004253	1014.20001220703
1419.44556263333	1014.40002441406
1420.08851204063	1017.40002441406
1420.731378272	1021
1421.37416133497	1016.40002441406
1422.0168612371	1008.79998779297
1422.65947798596	1019.59997558594
1423.30201158908	1010.40002441406
1423.94446205403	1009.40002441406
1424.58682938835	1019.40002441406
1425.2291135996	1024
1425.87131469532	1023
1426.51343268308	1014.40002441406
1427.15546757042	1016.40002441406
1427.79741936488	1013.79998779297
1428.43928807403	1019.40002441406
1429.0810737054	1014.40002441406
1429.72277626656	1015.59997558594
1430.36439576504	1018
1431.00593220841	1013.59997558594
1431.64738560419	1012.59997558594
1432.28875595995	1013.20001220703
1432.93004328324	1016.40002441406
1433.57124758159	1009
1434.21236886255	1006.59997558594
1434.85340713368	1007.59997558594
1435.49436240252	1014
1436.13523467661	1013.59997558594
1436.77602396349	1013.59997558594
1437.41673027073	1016
1438.05735360585	1016.20001220703
1438.69789397641	1014.79998779297
1439.33835138994	1014.59997558594
1439.978725854	1009.40002441406
1440.61901737612	1010.20001220703
1441.25922596385	1013.40002441406
1441.89935162473	1013.40002441406
1442.53939436631	1014.40002441406
1443.17935419612	1006.79998779297
1443.81923112171	1008
1444.45902515061	1011.79998779297
1445.09873629038	1019
1445.73836454854	1013.20001220703
1446.37790993265	1012.59997558594
1447.01737245024	1012.40002441406
1447.65675210885	1012.59997558594
1448.29604891602	1015
1448.93526287928	1018.20001220703
1449.57439400618	1018.20001220703
1450.21344230426	1010.59997558594
1450.85240778105	1012
1451.49129044409	1015.40002441406
1452.13009030092	1009.20001220703
1452.76880735907	1018
1453.40744162608	1018.40002441406
1454.04599310949	1011.40002441406
1454.68446181683	1007.40002441406
1455.32284775564	1014.79998779297
1455.96115093345	1014.79998779297
1456.5993713578	1012
1457.23750903623	1011.79998779297
1457.87556397626	1017.59997558594
1458.51353618543	1018
1459.15142567127	1013.20001220703
1459.78923244132	1013
1460.42695650311	1014.79998779297
1461.06459786417	1010.40002441406
1461.70215653203	1016.20001220703
1462.33963251423	1013.40002441406
1462.97702581829	1011.20001220703
1463.61433645175	1010.20001220703
1464.25156442214	1012.40002441406
1464.88870973699	1018
1465.52577240382	1011.40002441406
1466.16275243017	1017
1466.79964982356	1011.79998779297
1467.43646459154	1011.40002441406
1468.07319674161	1014.79998779297
1468.70984628132	1008.79998779297
1469.34641321818	1014
1469.98289755974	1014.79998779297
1470.6192993135	1013.40002441406
1471.25561848701	1011.79998779297
1471.89185508779	1011
1472.52800912336	1010
1473.16408060124	1022
1473.80006952897	1014.20001220703
1474.43597591407	1011.79998779297
1475.07179976406	1015.79998779297
1475.70754108647	1020
1476.34319988883	1025.19995117188
1476.97877617865	1022.20001220703
1477.61426996345	1013.79998779297
1478.24968125077	1012
1478.88501004812	1008.20001220703
1479.52025636303	1012.79998779297
1480.15542020302	1014.59997558594
1480.79050157561	1011.59997558594
1481.42550048832	1012.40002441406
1482.06041694867	1013.59997558594
1482.69525096418	1016.20001220703
1483.33000254237	1011
1483.96467169077	1015
1484.59925841689	1017.79998779297
1485.23376272825	1018
1485.86818463237	1012.40002441406
1486.50252413677	1005.59997558594
1487.13678124896	1017.20001220703
1487.77095597646	1015.79998779297
1488.4050483268	1010
1489.03905830749	1015.40002441406
1489.67298592604	1011.20001220703
1490.30683118996	1016.59997558594
1490.9405941068	1013.20001220703
1491.57427468403	1015.40002441406
1492.2078729292	1015.79998779297
1492.84138884981	1015.79998779297
1493.47482245338	1014.20001220703
1494.10817374742	1012.79998779297
1494.74144273944	1019
1495.37462943696	1019.20001220703
1496.0077338475	1017.59997558594
1496.64075597856	1014.79998779297
1497.27369583765	1019.59997558594
1497.9065534323	1019.20001220703
1498.53932877001	1019
1499.17202185829	1029
1499.80463270465	1024.59997558594
1500.43716131661	1026.80004882813
1501.06960770167	1026.40002441406
1501.70197186735	1023.40002441406
1502.33425382116	1029.59997558594
1502.96645357059	1028.40002441406
1503.59857112317	1028
1504.23060648641	1029.59997558594
1504.8625596678	1036.40002441406
1505.49443067486	1032.59997558594
1506.1262195151	1040.59997558594
1506.75792619602	1033
1507.38955072513	1035.59997558594
1508.02109310993	1041.59997558594
1508.65255335794	1046.59997558594
1509.28393147666	1036.59997558594
1509.91522747359	1038
1510.54644135624	1033.59997558594
1511.17757313212	1027
1511.80862280872	1029.59997558594
1512.43959039356	1031
1513.07047589413	1027.59997558594
1513.70127931795	1018
1514.33200067251	1015.59997558594
1514.96263996531	1021.79998779297
1515.59319720386	1018
1516.22367239567	1018
1516.85406554822	1016.20001220703
1517.48437666903	1013.79998779297
1518.1146057656	1013
1518.74475284542	1016.79998779297
1519.374817916	1012.20001220703
1520.00480098483	1017
1520.63470205942	1020.79998779297
1521.26452114726	1017
1521.89425825586	1015.59997558594
1522.52391339271	1018.20001220703
1523.15348656531	1018.59997558594
1523.78297778116	1019.79998779297
1524.41238704775	1010.79998779297
1525.04171437259	1011
1525.67095976317	1008.40002441406
1526.30012322699	1013.59997558594
1526.92920477154	1009.20001220703
1527.55820440432	1020.79998779297
1528.18712213283	1016.59997558594
1528.81595796455	1020.20001220703
1529.44471190699	1011.79998779297
1530.07338396764	1022
1530.70197415399	1019.40002441406
1531.33048247353	1018.40002441406
1531.95890893377	1015.59997558594
1532.58725354219	1018.40002441406
1533.21551630629	1015.59997558594
1533.84369723356	1012.59997558594
1534.47179633148	1014
1535.09981360757	1009.79998779297
1535.72774906929	1020.59997558594
1536.35560272415	1016.59997558594
1536.98337457963	1025.59997558594
1537.61106464323	1018
1538.23867292243	1019
1538.86619942473	1020.40002441406
1539.49364415762	1016.79998779297
1540.12100712857	1020.59997558594
1540.74828834509	1015
1541.37548781466	1013
1542.00260554478	1009.59997558594
1542.62964154291	1013.59997558594
1543.25659581655	1019
1543.8834683732	1013.40002441406
1544.51025922034	1012.40002441406
1545.13696836544	1014.40002441406
1545.76359581601	1016
1546.39014157952	1013.79998779297
1547.01660566345	1013.20001220703
1547.64298807531	1006.20001220703
1548.26928882255	1010.79998779297
1548.89550791269	1017.40002441406
1549.52164535318	1014.59997558594
1550.14770115153	1007.79998779297
1550.77367531521	1009.20001220703
1551.39956785171	1012.79998779297
1552.0253787685	1011.79998779297
1552.65110807307	1009.20001220703
1553.2767557729	1007.20001220703
1553.90232187548	1012.40002441406
1554.52780638828	1010.20001220703
1555.15320931879	1008.20001220703
1555.77853067447	1013.79998779297
1556.40377046282	1011.79998779297
1557.02892869132	1015.59997558594
1557.65400536744	1009.59997558594
1558.27900049866	1011.59997558594
1558.90391409247	1005.79998779297
1559.52874615633	1008
1560.15349669773	1012.40002441406
1560.77816572414	1009.40002441406
1561.40275324305	1008.40002441406
1562.02725926192	1007.59997558594
1562.65168378824	1000.59997558594
1563.27602682948	1001.20001220703
1563.90028839311	1005.59997558594
1564.52446848662	1003.40002441406
1565.14856711748	1002.59997558594
1565.77258429316	1010.40002441406
1566.39652002113	1006.79998779297
1567.02037430887	1015.40002441406
1567.64414716387	1014.79998779297
1568.26783859357	1010.20001220703
1568.89144860547	1014.59997558594
1569.51497720703	1013.79998779297
1570.13842440573	1012
1570.76179020904	1017.79998779297
1571.38507462442	1017.40002441406
1572.00827765936	1023.20001220703
1572.63139932132	1018.79998779297
1573.25443961777	1013.40002441406
1573.87739855618	1012.40002441406
1574.50027614402	1018.40002441406
1575.12307238877	1018.40002441406
1575.74578729789	1015
1576.36842087885	1012
1576.99097313912	1010.40002441406
1577.61344408616	1008
1578.23583372745	1010
1578.85814207046	1015
1579.48036912264	1012.40002441406
1580.10251489147	1011.79998779297
1580.72457938441	1010.59997558594
1581.34656260893	1002.20001220703
1581.9684645725	1006.40002441406
1582.59028528258	1012.40002441406
1583.21202474663	1006
1583.83368297212	1005
1584.45525996652	1007.40002441406
1585.07675573728	1010.20001220703
1585.69817029188	1008.20001220703
1586.31950363778	1006.40002441406
1586.94075578243	1006.59997558594
1587.5619267333	1005.59997558594
1588.18301649786	999.200012207031
1588.80402508357	999.400024414063
1589.42495249788	1002.79998779297
1590.04579874826	996
1590.66656384217	999.400024414063
1591.28724778707	1004.40002441406
1591.90785059042	1008.20001220703
1592.52837225968	1012.79998779297
1593.14881280232	1004.20001220703
1593.76917222578	1006.79998779297
1594.38945053753	1006.40002441406
1595.00964774502	1006
1595.62976385573	1005.40002441406
1596.24979887709	1003.20001220703
1596.86975281657	999.200012207031
1597.48962568164	998.799987792969
1598.10941747974	1005.40002441406
1598.72912821832	995.599975585938
1599.34875790486	1003
1599.9683065468	1004.59997558594
1600.58777415159	1000.20001220703
1601.2071607267	1003.20001220703
1601.82646627958	1004
1602.44569081769	1000
1603.06483434846	996.400024414063
1603.68389687937	1003
1604.30287841786	998.200012207031
1604.92177897139	998.799987792969
1605.54059854741	990.200012207031
1606.15933715337	992
1606.77799479672	992.599975585938
1607.39657148492	989.400024414063
1608.01506722542	989.599975585938
1608.63348202566	996.799987792969
1609.2518158931	993.400024414063
1609.87006883519	991.599975585938
1610.48824085939	988.599975585938
1611.10633197312	989.599975585938
1611.72434218386	999.200012207031
1612.34227149904	996
1612.96011992612	991.400024414063
1613.57788747254	993.200012207031
1614.19557414575	989.799987792969
1614.8131799532	993.599975585938
1615.43070490234	987.400024414063
1616.04814900061	985.200012207031
1616.66551225545	984.400024414063
1617.28279467433	987.799987792969
1617.89999626467	983.799987792969
1618.51711703393	987.799987792969
1619.13415698955	987.599975585938
1619.75111613898	984.599975585938
1620.36799448966	988.599975585938
1620.98479204903	989.400024414063
1621.60150882455	989.799987792969
1622.21814482364	990.799987792969
1622.83470005376	983.200012207031
1623.45117452235	979.599975585938
1624.06756823685	978.799987792969
1624.6838812047	981.799987792969
1625.30011343335	984.799987792969
1625.91626493022	985
1626.53233570278	982.799987792969
1627.14832575845	991.599975585938
1627.76423510468	981.599975585938
1628.38006374891	987.599975585938
1628.99581169857	990.200012207031
1629.61147896111	990.799987792969
1630.22706554397	987
1630.84257145457	984.799987792969
1631.45799670038	989.400024414063
1632.07334128881	985.400024414063
1632.6886052273	982.200012207031
1633.3037885233	983.200012207031
1633.91889118425	988.200012207031
1634.53391321757	985.799987792969
1635.1488546307	987.400024414063
1635.76371543108	985.200012207031
1636.37849562616	990.400024414063
1636.99319522335	995
1637.60781423009	993.400024414063
1638.22235265383	994
1638.83681050198	998.400024414063
1639.451187782	999.799987792969
1640.0654845013	998.599975585938
1640.67970066734	993.799987792969
1641.29383628752	992
1641.9078913693	992.400024414063
1642.5218659201	993.799987792969
1643.13575994735	994.799987792969
1643.74957345849	999.599975585938
1644.36330646094	998.200012207031
1644.97695896213	996.599975585938
1645.59053096951	1001.59997558594
1646.20402249049	1001
1646.8174335325	1005.40002441406
1647.43076410298	1007
1648.04401420935	1007.79998779297
1648.65718385905	1007
1649.2702730595	1006.20001220703
1649.88328181812	998.200012207031
1650.49621014236	1005.20001220703
1651.10905803963	999.200012207031
1651.72182551735	991.400024414063
1652.33451258297	1005.20001220703
1652.9471192439	1001
1653.55964550757	1001.59997558594
1654.1720913814	1002.79998779297
1654.78445687283	992.599975585938
1655.39674198926	995
1656.00894673814	991.200012207031
1656.62107112688	997.200012207031
1657.23311516291	994.400024414063
1657.84507885365	995.599975585938
1658.45696220652	987
1659.06876522895	984.400024414063
1659.68048792835	982.599975585938
1660.29213031217	986.200012207031
1660.90369238779	981
1661.51517416267	979.200012207031
1662.12657564421	977.400024414063
1662.73789683984	977.400024414063
1663.34913775697	980.400024414063
1663.96029840303	978.799987792969
1664.57137878544	980.400024414063
1665.18237891161	979.400024414063
1665.79329878897	975.599975585938
1666.40413842493	980.200012207031
1667.01489782691	975.599975585938
1667.62557700233	970.599975585938
1668.2361759586	968.599975585938
1668.84669470315	965.400024414063
1669.4571332434	967.200012207031
1670.06749158675	970.400024414063
1670.67776974062	966.200012207031
1671.28796771243	973.200012207031
1671.8980855096	963
1672.50812313954	962.799987792969
1673.11808060967	962.799987792969
1673.72795792739	965
1674.33775510013	970
1674.9474721353	970
1675.55710904031	969
1676.16666582257	968.200012207031
1676.7761424895	977
1677.38553904851	980
1677.99485550702	973.799987792969
1678.60409187243	976.200012207031
1679.21324815215	971.400024414063
1679.8223243536	972
1680.43132048419	968.599975585938
1681.04023655132	976.599975585938
1681.64907256241	971.799987792969
1682.25782852487	968.400024414063
1682.86650444611	965.599975585938
1683.47510033353	966.599975585938
1684.08361619455	967
1684.69205203657	969
1685.300407867	967.400024414063
1685.90868369325	969.200012207031
1686.51687952272	969.200012207031
1687.12499536283	966.799987792969
1687.73303122098	966
1688.34098710457	965.200012207031
1688.94886302101	964.799987792969
1689.55665897772	964.599975585938
1690.16437498208	967.400024414063
1690.77201104152	969.799987792969
1691.37956716342	967
1691.9870433552	965.200012207031
1692.59443962426	961
1693.20175597801	964.599975585938
1693.80899242384	963.599975585938
1694.41614896916	963.400024414063
1695.02322562138	963.799987792969
1695.63022238789	965.400024414063
1696.23713927609	962.799987792969
1696.8439762934	965.599975585938
1697.4507334472	967
1698.05741074491	960.200012207031
1698.66400819391	963.799987792969
1699.27052580161	965.799987792969
1699.87696357542	965.400024414063
1700.48332152272	966.200012207031
1701.08959965092	962
1701.69579796742	964.200012207031
1702.30191647962	962
1702.90795519491	961
1703.51391412069	955.599975585938
1704.11979326437	961
1704.72559263332	959.400024414063
1705.33131223496	961.200012207031
1705.93695207668	963.799987792969
1706.54251216588	959.799987792969
1707.14799250994	960.599975585938
1707.75339311628	961
1708.35871399227	962.599975585938
1708.96395514532	963.799987792969
1709.56911658282	962
