634.948122577771	947.400024414063
635.690341530823	948
636.43246851086	944.599975585938
637.174503525845	945.200012207031
637.916446583745	943.799987792969
638.658297692538	946.200012207031
639.400056860179	947.200012207031
640.141724094637	948.200012207031
640.883299403885	951.799987792969
641.62478279588	950.400024414063
642.366174278594	945.200012207031
643.107473859989	946
643.848681548029	947.599975585938
644.589797350679	945.400024414063
645.330821275901	946.200012207031
646.071753331665	947.599975585938
646.812593525922	947.799987792969
647.553341866646	950.599975585938
648.293998361798	951.400024414063
649.03456301933	949.200012207031
649.775035847216	950.200012207031
650.515416853409	951.599975585938
651.255706045874	952.599975585938
651.995903432568	946.799987792969
652.736009021453	948.200012207031
653.476022820486	952.799987792969
654.215944837629	950.200012207031
654.955775080842	952.799987792969
655.695513558081	950.599975585938
656.435160277301	952.799987792969
657.174715246465	950.400024414063
657.914178473527	950
658.653549966449	950.200012207031
659.392829733176	951.799987792969
660.132017781678	951.599975585938
660.871114119901	954
661.610118755803	956.799987792969
662.349031697343	950
663.087852952468	950
663.826582529139	950.400024414063
664.565220435305	950.799987792969
665.30376667892	953.599975585938
666.04222126794	952
666.780584210316	954.200012207031
667.518855514	952.799987792969
668.25703518694	953.599975585938
668.995123237096	958.200012207031
669.733119672413	952.599975585938
670.471024500842	954
671.208837730333	958
671.946559368839	960.799987792969
672.684189424308	958.799987792969
673.421727904689	961.799987792969
674.159174817929	958.200012207031
674.896530171977	961.599975585938
675.633793974786	960.200012207031
676.370966234295	959.400024414063
677.108046958461	959.400024414063
677.845036155219	953.400024414063
678.581933832528	957
679.318739998323	959.200012207031
680.055454660558	954.599975585938
680.792077827172	955.400024414063
681.528609506116	955.400024414063
682.265049705331	956.799987792969
683.001398432759	957
683.737655696349	958.200012207031
684.47382150404	955
685.20989586378	955.400024414063
685.945878783503	956.799987792969
686.68177027116	952.799987792969
687.417570334688	953.400024414063
688.153278982032	958.400024414063
688.888896221129	955.599975585938
689.624422059921	958
690.359856506349	954.599975585938
691.095199568354	958.799987792969
691.830451253874	961.200012207031
692.565611570844	953.200012207031
693.300680527212	954.599975585938
694.03565813091	955.400024414063
694.770544389877	956.799987792969
695.505339312053	954.400024414063
696.240042905372	954.799987792969
696.974655177772	959.799987792969
697.70917613719	955.799987792969
698.443605791561	955
699.177944148826	960
699.912191216909	959.400024414063
700.646347003755	960.599975585938
701.380411517295	958.599975585938
702.114384765465	956.799987792969
702.848266756195	957.200012207031
703.582057497421	956.599975585938
704.315756997074	958.799987792969
705.049365263089	959.200012207031
705.782882303399	960.599975585938
706.516308125936	960.799987792969
707.249642738626	961.400024414063
707.982886149403	959.400024414063
708.716038366204	957
709.449099396949	959.400024414063
710.182069249577	953
710.914947932009	958.799987792969
711.647735452181	957
712.380431818022	959.400024414063
713.113037037454	961
713.845551118411	960.799987792969
714.577974068818	958.400024414063
715.310305896604	957.799987792969
716.042546609694	954.799987792969
716.774696216013	955
717.506754723493	960.599975585938
718.238722140053	959.599975585938
718.970598473624	958.799987792969
719.702383732127	959.400024414063
720.43407792349	957.599975585938
721.165681055634	959.400024414063
721.897193136486	961.599975585938
722.628614173966	956.799987792969
723.359944175997	955.400024414063
724.091183150505	959.799987792969
724.822331105412	958.200012207031
725.553388048638	960.799987792969
726.284353988106	962
727.015228931734	962.200012207031
727.746012887449	965.400024414063
728.476705863162	965.200012207031
729.207307866803	960.200012207031
729.937818906289	959.599975585938
730.668238989535	952.599975585938
731.398568124459	957.400024414063
732.128806318986	953.200012207031
732.858953581034	962
733.589009918514	964.200012207031
734.318975339348	965.400024414063
735.048849851452	959.400024414063
735.778633462744	959.200012207031
736.508326181137	964
737.237928014549	960.799987792969
737.967438970897	962.799987792969
738.696859058095	965.200012207031
739.426188284054	961
740.155426656692	960.400024414063
740.884574183922	959.400024414063
741.613630873659	957.200012207031
742.342596733815	960.799987792969
743.071471772302	964
743.800255997034	957.200012207031
744.528949415921	964.200012207031
745.257552036877	954.200012207031
745.986063867811	961.200012207031
746.714484916638	954.599975585938
747.442815191261	956.400024414063
748.171054699597	958.599975585938
748.899203449554	956.599975585938
749.627261449039	959
750.355228705966	964.599975585938
751.083105228239	962.599975585938
751.810891023765	961.200012207031
752.538586100459	965.799987792969
753.266190466218	964.400024414063
753.99370412896	963
754.721127096582	958.200012207031
755.448459377	961.799987792969
756.175700978114	963.200012207031
756.902851907828	961.400024414063
757.629912174055	961.599975585938
758.356881784688	971.400024414063
759.083760747639	966.200012207031
759.810549070817	966
760.537246762113	968.200012207031
761.263853829442	965
761.990370280698	968.200012207031
762.716796123791	968
763.443131366618	968.599975585938
764.169376017082	969.799987792969
764.895530083085	977.400024414063
765.621593572527	971
766.347566493312	973.400024414063
767.073448853336	968.799987792969
767.799240660502	979.200012207031
768.524941922707	971.799987792969
769.250552647854	975.799987792969
769.976072843836	977
770.701502518551	979.200012207031
771.426841679905	978.799987792969
772.152090335793	976.200012207031
772.877248494107	977.200012207031
773.602316162747	974.599975585938
774.327293349609	975.799987792969
775.052180062592	978.200012207031
775.776976309589	973.799987792969
776.501682098496	973.400024414063
777.226297437206	969.799987792969
777.950822333616	971
778.675256795621	973.599975585938
779.399600831111	968.799987792969
780.123854447983	966
780.84801765413	971.599975585938
781.572090457441	966.200012207031
782.296072865811	969
783.019964887131	964.599975585938
783.743766529297	965.200012207031
784.467477800194	962.599975585938
785.191098707719	968
785.914629259756	965.599975585938
786.638069464194	966.599975585938
787.361419328932	964.400024414063
788.084678861852	964.200012207031
788.807848070845	961.799987792969
789.530926963798	962.599975585938
790.253915548602	963.400024414063
790.976813833144	963.400024414063
791.699621825307	966.799987792969
792.422339532986	964.799987792969
793.144966964061	965.200012207031
793.86750412642	964.400024414063
794.589951027946	969.799987792969
795.312307676536	968
796.03457408006	965.799987792969
796.756750246417	966.200012207031
797.478836183477	964.599975585938
798.200831899137	965
798.92273740127	964
799.644552697769	964.799987792969
800.36627779651	971
801.087912705374	965.799987792969
801.809457432251	972.799987792969
802.530911985017	963.599975585938
803.252276371558	968
803.973550599748	966.599975585938
804.694734677472	961.799987792969
805.415828612611	965.400024414063
806.136832413045	968.599975585938
806.857746086646	965.400024414063
807.578569641305	966.400024414063
808.299303084892	967.400024414063
809.019946425289	963.200012207031
809.740499670372	967.200012207031
810.460962828022	963.400024414063
811.181335906114	968.400024414063
811.901618912524	966
812.621811855131	964.799987792969
813.341914741809	967.799987792969
814.061927580433	968.400024414063
814.781850378881	971.200012207031
815.501683145025	967.200012207031
816.221425886743	966.599975585938
816.941078611903	965.599975585938
817.660641328387	970
818.380114044065	967.799987792969
819.099496766808	969.400024414063
819.818789504492	970.400024414063
820.53799226499	968.200012207031
821.257105056168	971.599975585938
821.976127885904	967.799987792969
822.695060762064	963.799987792969
823.413903692525	969
824.132656685151	968.799987792969
824.851319747817	972
825.569892888388	963.599975585938
826.288376114739	969.599975585938
827.006769434737	968.599975585938
827.725072856249	969.400024414063
828.443286387142	972.200012207031
829.161410035285	969.599975585938
829.87944380855	972.200012207031
830.597387714798	966.799987792969
831.315241761898	973
832.033005957715	973.400024414063
832.750680310119	968.200012207031
833.468264826969	969.799987792969
834.18575951614	970.200012207031
834.903164385486	971
835.620479442878	968.200012207031
836.337704696181	969
837.054840153255	964.799987792969
837.771885821962	972.599975585938
838.488841710172	969.400024414063
839.20570782574	968.799987792969
839.922484176531	974.599975585938
840.639170770409	974.599975585938
841.355767615231	968.599975585938
842.072274718864	966.599975585938
842.788692089164	964.200012207031
843.505019733993	963.400024414063
844.221257661209	971.599975585938
844.937405878676	967.599975585938
845.65346439425	968.799987792969
846.369433215789	962.599975585938
847.085312351156	964.799987792969
847.801101808205	964
848.516801594793	964.799987792969
849.232411718781	969.200012207031
849.947932188021	969.799987792969
850.663363010376	971
851.378704193698	967.400024414063
852.093955745842	970.799987792969
852.809117674669	974.400024414063
853.524189988028	970.200012207031
854.239172693778	971.799987792969
854.954065799768	970
855.668869313857	972.799987792969
856.383583243899	970.400024414063
857.098207597743	972.799987792969
857.812742383246	968.799987792969
858.527187608255	968.799987792969
859.241543280628	968
859.955809408218	971.200012207031
860.669985998868	963.599975585938
861.384073060437	966.400024414063
862.098070600772	970.200012207031
862.811978627724	969.400024414063
863.52579714914	973.200012207031
864.239526172873	969.799987792969
864.953165706776	971.200012207031
865.666715758687	966.400024414063
866.380176336464	969.200012207031
867.093547447951	973.200012207031
867.806829100996	975.400024414063
868.520021303444	973.799987792969
869.233124063149	973.400024414063
869.94613738795	975.599975585938
870.659061285693	975
871.37189576423	975.200012207031
872.084640831403	973.400024414063
872.797296495057	971.200012207031
873.509862763039	972.799987792969
874.22233964319	970.400024414063
874.934727143353	976.400024414063
875.647025271374	968.599975585938
876.359234035097	977.799987792969
877.071353442361	976.799987792969
877.783383501015	972
878.495324218895	975.400024414063
879.207175603844	973.599975585938
879.918937663705	972.799987792969
880.630610406318	974.400024414063
881.342193839524	974.599975585938
882.053687971161	967.200012207031
882.765092809069	973.200012207031
883.476408361091	972.599975585938
884.187634635066	969
884.898771638828	971.200012207031
885.609819380221	961.799987792969
886.320777867076	968
887.031647107236	966
887.742427108536	968.200012207031
888.453117878816	973.799987792969
889.16371942591	973.200012207031
889.874231757652	974.200012207031
890.584654881883	978.799987792969
891.294988806434	974.400024414063
892.005233539141	978.799987792969
892.715389087837	972.400024414063
893.42545546036	981.599975585938
894.135432664543	979.200012207031
894.845320708216	977
895.555119599216	977.599975585938
896.264829345375	978.200012207031
896.974449954526	970.200012207031
897.683981434496	975.200012207031
898.393423793125	975.200012207031
899.102777038235	972.599975585938
899.812041177664	977.799987792969
900.521216219239	971.400024414063
901.230302170793	964.599975585938
901.939299040155	972
902.64820683515	972.599975585938
903.357025563612	967.599975585938
904.065755233368	966.799987792969
904.774395852247	974.799987792969
905.482947428076	975.599975585938
906.191409968682	973.400024414063
906.899783481897	967.599975585938
907.608067975538	975.200012207031
908.316263457443	974
909.02436993543	972
909.732387417327	977.799987792969
910.440315910959	974.799987792969
911.148155424154	971.799987792969
911.855905964731	977
912.563567540521	975.400024414063
913.271140159339	974.599975585938
913.978623829017	975.799987792969
914.686018557374	976.200012207031
915.393324352237	979.200012207031
916.100541221421	981.200012207031
916.807669172752	974
917.514708214054	978.799987792969
918.221658353142	979.200012207031
918.928519597843	977.400024414063
919.635291955976	974
920.341975435358	982
921.048570043813	975
921.75507578916	979.599975585938
922.461492679212	978.599975585938
923.167820721795	979.400024414063
923.874059924726	974
924.58021029582	976.799987792969
925.286271842893	984.200012207031
925.992244573769	978.799987792969
926.698128496262	977.400024414063
927.403923618184	975.599975585938
928.109629947355	976.599975585938
928.815247491593	980.799987792969
929.520776258708	980.200012207031
930.226216256519	974.599975585938
930.931567492841	974.400024414063
931.636829975482	981.400024414063
932.342003712263	977.200012207031
933.047088710995	972.599975585938
933.752084979491	975.799987792969
934.456992525564	977.400024414063
935.161811357024	979.599975585938
935.866541481688	982.400024414063
936.571182907363	983.400024414063
937.275735641861	983.599975585938
937.980199692995	979
938.684575068572	980.200012207031
939.388861776411	979.400024414063
940.093059824311	973.799987792969
940.797169220085	977.400024414063
941.501189971544	972.200012207031
942.205122086495	971.400024414063
942.908965572751	978.599975585938
943.612720438111	978.400024414063
944.316386690391	970
945.019964337391	974.200012207031
945.723453386924	974.599975585938
946.426853846795	980
947.130165724808	977.799987792969
947.83338902877	980.200012207031
948.536523766488	968.200012207031
949.239569945764	977
949.942527574402	975.200012207031
950.64539666021	975.599975585938
951.348177210993	981
952.050869234548	981.400024414063
952.753472738683	981
953.455987731199	974.799987792969
954.158414219898	974.400024414063
954.860752212587	973.599975585938
955.563001717061	973.599975585938
956.265162741124	974
956.967235292576	977
957.669219379224	976.400024414063
958.371115008857	974.599975585938
959.072922189283	969.599975585938
959.774640928301	970.200012207031
960.476271233708	973
961.177813113301	973.400024414063
961.879266574882	971.400024414063
962.580631626248	978
963.281908275194	979.799987792969
963.98309652952	973
964.684196397022	974.400024414063
965.3852078855	975.200012207031
966.086131002745	972.400024414063
966.786965756555	978
967.487712154726	977.799987792969
968.188370205055	978.200012207031
968.888939915331	981.200012207031
969.589421293352	983
970.289814346909	980.599975585938
970.990119083801	981.200012207031
971.690335511819	981.400024414063
972.39046363875	981
973.090503472398	974.799987792969
973.790455020545	971.799987792969
974.490318290987	979.599975585938
975.190093291516	975
975.889780029923	984.799987792969
976.589378513998	975
977.288888751527	976
977.988310750308	974
978.687644518122	976
979.386890062767	979.799987792969
980.086047392025	979
980.785116513689	980.200012207031
981.484097435542	975.599975585938
982.182990165377	974.599975585938
982.88179471098	975
983.580511080137	979.400024414063
984.279139280632	975.200012207031
984.977679320253	980.400024414063
985.67613120679	985.799987792969
986.374494948027	977.599975585938
987.072770551745	976.400024414063
987.770958025731	974.599975585938
988.469057377772	981.400024414063
989.167068615649	974.799987792969
989.864991747145	981.799987792969
990.562826780047	976.200012207031
991.260573722134	978.400024414063
991.958232581195	984.799987792969
992.655803365003	981.200012207031
993.353286081346	982.200012207031
994.050680738006	984.599975585938
994.74798734276	983.200012207031
995.44520590339	980.799987792969
996.142336427681	982
996.839378923407	981
997.536333398348	979.200012207031
998.233199860289	979.799987792969
998.929978317004	980
999.626668776274	978.400024414063
1000.32327124587	981.799987792969
1001.01978573359	977
1001.71621224718	972.599975585938
1002.41255079445	981.599975585938
1003.10880138315	975.599975585938
1003.80496402107	977.799987792969
1004.50103871599	983.799987792969
1005.19702547567	991
1005.8929243079	977.400024414063
1006.58873522045	987.400024414063
1007.2844582211	980
1007.98009331761	983
1008.67564051776	978.599975585938
1009.37109982933	976.799987792969
1010.06647126009	981
1010.7617548178	972.200012207031
1011.45695051026	976
1012.15205834522	974.200012207031
1012.84707833045	977
1013.54201047373	979.799987792969
1014.23685478284	977.400024414063
1014.93161126553	974.599975585938
1015.62627992959	976.599975585938
1016.32086078277	973
1017.01535383285	980.799987792969
1017.70975908761	980.599975585938
1018.40407655479	977.599975585938
1019.09830624219	981.400024414063
1019.79244815755	980.799987792969
1020.48650230866	985.799987792969
1021.18046870328	981.599975585938
1021.87434734917	981.599975585938
1022.56813825411	983.200012207031
1023.26184142584	980.799987792969
1023.95545687216	983.799987792969
1024.64898460082	986.400024414063
1025.34242461957	980.200012207031
1026.0357769362	978
1026.72904155846	975.400024414063
1027.42221849412	976
1028.11530775094	976.599975585938
1028.80830933668	980.200012207031
1029.50122325911	978.200012207031
1030.19404952599	981.400024414063
1030.88678814508	979
1031.57943912414	976.599975585938
1032.27200247093	980.200012207031
1032.96447819323	981.599975585938
1033.65686629878	977
1034.34916679534	975.799987792969
1035.04137969068	979.599975585938
1035.73350499256	971.400024414063
1036.42554270874	979
1037.11749284697	977.400024414063
1037.80935541501	976.400024414063
1038.50113042062	977.400024414063
1039.19281787156	979.799987792969
1039.88441777559	979
1040.57593014046	978.599975585938
1041.26735497393	982.599975585938
1041.95869228376	976.200012207031
1042.6499420777	979
1043.3411043635	979.200012207031
1044.03217914893	978
1044.72316644174	975.400024414063
1045.41406624968	971
1046.1048785805	974.599975585938
1046.79560344197	974.799987792969
1047.48624084182	977.400024414063
1048.17679078783	981.200012207031
1048.86725328774	981.799987792969
1049.55762834929	983.200012207031
1050.24791598025	978.200012207031
1050.93811618837	977.599975585938
1051.62822898139	976.799987792969
1052.31825436707	976
1053.00819235315	977.400024414063
1053.6980429474	979.400024414063
1054.38780615755	978.599975585938
1055.07748199136	983
1055.76707045658	978.599975585938
1056.45657156095	978.400024414063
1057.14598531222	980.799987792969
1057.83531171814	980.799987792969
1058.52455078646	983.400024414063
1059.21370252494	983.599975585938
1059.90276694129	986.599975585938
1060.5917440433	984.599975585938
1061.28063383868	980
1061.9694363352	985.400024414063
1062.65815154059	984.799987792969
1063.34677946261	980.599975585938
1064.03532010899	980.200012207031
1064.72377348748	974.400024414063
1065.41213960583	982
1066.10041847177	984.799987792969
1066.78861009306	977.799987792969
1067.47671447743	983.799987792969
1068.16473163263	982.799987792969
1068.85266156639	984
1069.54050428647	984.799987792969
1070.2282598006	980
1070.91592811652	984
1071.60350924198	980.599975585938
1072.29100318471	986.200012207031
1072.97840995245	984
1073.66572955295	981
1074.35296199394	971.799987792969
1075.04010728316	980.200012207031
1075.72716542836	980.599975585938
1076.41413643726	983.599975585938
1077.10102031761	983.799987792969
1077.78781707715	983.599975585938
1078.4745267236	985.400024414063
1079.16114926471	983.400024414063
1079.84768470822	977.799987792969
1080.53413306185	979.200012207031
1081.22049433336	977.599975585938
1081.90676853046	981.400024414063
1082.5929556609	976.599975585938
1083.27905573241	983.599975585938
1083.96506875272	974.200012207031
1084.65099472957	979
1085.3368336707	984.200012207031
1086.02258558383	978.400024414063
1086.70825047669	982.599975585938
1087.39382835703	979.200012207031
1088.07931923257	980.200012207031
1088.76472311104	981
1089.45004000018	978.799987792969
1090.13526990771	979
1090.82041284137	987
1091.50546880889	980.200012207031
1092.19043781799	980.799987792969
1092.87531987642	976.200012207031
1093.56011499188	978.799987792969
1094.24482317212	977.799987792969
1094.92944442486	979.200012207031
1095.61397875783	978.200012207031
1096.29842617876	984.599975585938
1096.98278669537	982.599975585938
1097.6670603154	989.599975585938
1098.35124704656	990
1099.03534689659	989
1099.71935987322	987.400024414063
1100.40328598416	988
1101.08712523713	981.200012207031
1101.77087763988	982.599975585938
1102.45454320012	981.200012207031
1103.13812192557	982.200012207031
1103.82161382396	987.400024414063
1104.50501890301	985.599975585938
1105.18833717045	986.200012207031
1105.87156863399	984.400024414063
1106.55471330137	980.599975585938
1107.2377711803	986
1107.9207422785	977.200012207031
1108.60362660369	984.200012207031
1109.2864241636	989.599975585938
1109.96913496594	989.599975585938
1110.65175901844	985.200012207031
1111.33429632882	988.799987792969
1112.01674690479	986.799987792969
1112.69911075408	987.599975585938
1113.38138788439	985.799987792969
1114.06357830346	982
1114.745682019	986.799987792969
1115.42769903872	985.799987792969
1116.10962937035	983.200012207031
1116.7914730216	986.400024414063
1117.47323000018	986.200012207031
1118.15490031382	986.799987792969
1118.83648397022	986.599975585938
1119.51798097712	986.200012207031
1120.1993913422	988.400024414063
1120.88071507321	983.599975585938
1121.56195217784	984
1122.24310266381	985.200012207031
1122.92416653884	985.200012207031
1123.60514381064	983.200012207031
1124.28603448692	981.799987792969
1124.9668385754	979.400024414063
1125.64755608378	985.599975585938
1126.32818701978	984.599975585938
1127.00873139111	992
1127.68918920548	983.799987792969
1128.3695604706	986.200012207031
1129.04984519419	982
1129.73004338394	987.799987792969
1130.41015504758	990
1131.09018019281	986
1131.77011882734	988.200012207031
1132.44997095888	986.599975585938
1133.12973659514	983
1133.80941574381	987.200012207031
1134.48900841263	983.799987792969
1135.16851460927	988.799987792969
1135.84793434147	986.400024414063
1136.52726761692	986.200012207031
1137.20651444333	980.400024414063
1137.8856748284	977
1138.56474877984	982.599975585938
1139.24373630536	984.400024414063
1139.92263741265	983.799987792969
1140.60145210943	990.400024414063
1141.28018040339	982.400024414063
1141.95882230225	977.799987792969
1142.6373778137	986.599975585938
1143.31584694545	985.799987792969
1143.99422970519	987.400024414063
1144.67252610064	987
1145.35073613949	991
1146.02885982944	990.599975585938
1146.7068971782	988.400024414063
1147.38484819347	989.200012207031
1148.06271288294	983.400024414063
1148.74049125432	985.200012207031
1149.41818331531	989
1150.0957890736	981.599975585938
1150.77330853689	985.799987792969
1151.45074171289	991
1152.12808860928	988.799987792969
1152.80534923378	991.400024414063
1153.48252359407	988.400024414063
1154.15961169786	992.599975585938
1154.83661355283	986.799987792969
1155.51352916669	985.799987792969
1156.19035854713	988.200012207031
1156.86710170185	987.599975585938
1157.54375863855	989.200012207031
1158.22032936491	992.200012207031
1158.89681388863	986
1159.57321221741	993
1160.24952435894	986
1160.92575032092	986.799987792969
1161.60189011103	986.599975585938
1162.27794373697	988.799987792969
1162.95391120644	979
1163.62979252712	978
1164.3055877067	973
1164.98129675288	982.400024414063
1165.65691967336	986.400024414063
1166.33245647581	983.799987792969
1167.00790716792	983.599975585938
1167.6832717574	990
1168.35855025193	987.200012207031
1169.0337426592	985.599975585938
1169.70884898689	985
1170.3838692427	990.799987792969
1171.05880343431	991.200012207031
1171.73365156941	989.799987792969
1172.40841365569	987.799987792969
1173.08308970083	987
1173.75767971253	990
1174.43218369847	990.200012207031
1175.10660166633	991
1175.7809336238	985.200012207031
1176.45517957857	989.400024414063
1177.12933953832	991.599975585938
1177.80341351073	995.400024414063
1178.47740150349	991.400024414063
1179.15130352429	992.400024414063
1179.8251195808	991.799987792969
1180.49884968071	992
1181.1724938317	993.599975585938
1181.84605204145	992.200012207031
1182.51952431766	996
1183.19291066799	991
1183.86621110013	993.599975585938
1184.53942562176	993.799987792969
1185.21255424057	992.400024414063
1185.88559696422	985.799987792969
1186.55855380041	991
1187.2314247568	991
1187.90420984109	994
1188.57690906095	993.799987792969
1189.24952242405	996.799987792969
1189.92204993808	994
1190.59449161071	1000.40002441406
1191.26684744962	1001.40002441406
1191.93911746249	993
1192.61130165699	993.799987792969
1193.28340004081	995.400024414063
1193.95541262161	990.599975585938
1194.62733940707	1002.40002441406
1195.29918040487	999.200012207031
1195.97093562269	998.400024414063
1196.64260506819	994.200012207031
1197.31418874905	999.799987792969
1197.98568667295	997.400024414063
1198.65709884755	996.400024414063
1199.32842528053	991.400024414063
1199.99966597957	992.599975585938
1200.67082095234	990.799987792969
1201.3418902065	995.200012207031
1202.01287374974	996.799987792969
1202.68377158971	995.200012207031
1203.3545837341	991.400024414063
1204.02531019057	987.799987792969
1204.6959509668	988.599975585938
1205.36650607045	991.200012207031
1206.03697550919	990.400024414063
1206.70735929069	989.400024414063
1207.37765742263	988.599975585938
1208.04786991266	994
1208.71799676846	989
1209.38803799769	996.200012207031
1210.05799360803	990.200012207031
1210.72786360714	992
1211.39764800268	985.200012207031
1212.06734680233	988
1212.73696001375	983.799987792969
1213.4064876446	989
1214.07592970255	989.799987792969
1214.74528619526	989.799987792969
1215.4145571304	985.200012207031
1216.08374251564	986.799987792969
1216.75284235863	988.599975585938
1217.42185666704	991.200012207031
1218.09078544854	989.599975585938
1218.75962871078	989.200012207031
1219.42838646143	993
1220.09705870816	994
1220.76564545861	990.200012207031
1221.43414672046	991.400024414063
1222.10256250136	986
1222.77089280898	990.400024414063
1223.43913765098	986.799987792969
1224.107297035	989.799987792969
1224.77537096873	987
1225.44335945981	984.400024414063
1226.1112625159	985.799987792969
1226.77908014467	992
1227.44681235376	989.200012207031
1228.11445915085	988.599975585938
1228.78202054357	988.200012207031
1229.44949653961	980.400024414063
1230.11688714659	983.799987792969
1230.7841923722	985
1231.45141222407	988.799987792969
1232.11854670988	989
1232.78559583726	987.599975585938
1233.45255961388	990.599975585938
1234.1194380474	989.599975585938
1234.78623114546	992.200012207031
1235.45293891572	991.200012207031
1236.11956136583	993.200012207031
1236.78609850345	994.799987792969
1237.45255033623	983.799987792969
1238.11891687182	988.799987792969
1238.78519811788	994
1239.45139408205	988.799987792969
1240.11750477198	987.200012207031
1240.78353019534	991.599975585938
1241.44947035976	989.200012207031
1242.11532527291	990.400024414063
1242.78109494242	994.799987792969
1243.44677937595	992.400024414063
1244.11237858115	992
1244.77789256567	989.799987792969
1245.44332133715	994.200012207031
1246.10866490325	993.599975585938
1246.7739232716	994.799987792969
1247.43909644987	990.200012207031
1248.10418444569	992.400024414063
1248.76918726671	988.799987792969
1249.43410492059	989.799987792969
1250.09893741496	986.200012207031
1250.76368475747	986.200012207031
1251.42834695576	989.599975585938
1252.09292401749	991.200012207031
1252.75741595029	992
1253.42182276182	993.200012207031
1254.08614445971	986
1254.75038105161	990
1255.41453254515	994.200012207031
1256.07859894799	998
1256.74258026777	986.400024414063
1257.40647651213	991.200012207031
1258.0702876887	989
1258.73401380514	989
1259.39765486908	989.599975585938
1260.06121088817	982.400024414063
1260.72468187004	989.799987792969
1261.38806782233	989.599975585938
1262.05136875269	997.799987792969
1262.71458466875	987.200012207031
1263.37771557815	992.799987792969
1264.04076148854	1000
1264.70372240753	993
1265.3665983428	987.200012207031
1266.02938930195	992.599975585938
1266.69209529263	988.799987792969
1267.35471632249	991
1268.01725239914	991.799987792969
1268.67970353024	988.799987792969
1269.34206972342	987.200012207031
1270.00435098631	988.799987792969
1270.66654732655	986.400024414063
1271.32865875177	989.200012207031
1271.9906852696	984.400024414063
1272.65262688768	988.799987792969
1273.31448361365	991
1273.97625545514	992.599975585938
1274.63794241978	993.799987792969
1275.2995445152	995.599975585938
1275.96106174903	990.599975585938
1276.62249412892	990.599975585938
1277.28384166248	996.400024414063
1277.94510435735	992.799987792969
1278.60628222116	996.200012207031
1279.26737526155	993
1279.92838348613	995.799987792969
1280.58930690255	992.599975585938
1281.25014551842	994.599975585938
1281.91089934139	994.200012207031
1282.57156837907	997.599975585938
1283.2321526391	989
1283.89265212911	986
1284.55306685671	992.599975585938
1285.21339682955	989.799987792969
1285.87364205525	990.799987792969
1286.53380254142	990.799987792969
1287.19387829571	985.599975585938
1287.85386932573	987.799987792969
1288.51377563911	992
1289.17359724348	988.599975585938
1289.83333414646	989.599975585938
1290.49298635567	988
1291.15255387874	991.599975585938
1291.8120367233	986.599975585938
1292.47143489696	991.599975585938
1293.13074840736	992.200012207031
1293.7899772621	986.799987792969
1294.44912146882	988.799987792969
1295.10818103513	990.400024414063
1295.76715596866	991.400024414063
1296.42604627704	989.200012207031
1297.08485196787	991
1297.74357304878	991.400024414063
1298.4022095274	986.599975585938
1299.06076141134	996.200012207031
1299.71922870821	990.200012207031
1300.37761142565	996.400024414063
1301.03590957126	1000.59997558594
1301.69412315268	993.799987792969
1302.3522521775	990.799987792969
1303.01029665336	992.599975585938
1303.66825658787	993.200012207031
1304.32613198865	992.400024414063
1304.98392286332	995
1305.64162921948	995.599975585938
1306.29925106476	1000.59997558594
1306.95678840677	1002
1307.61424125312	1001.79998779297
1308.27160961145	1000.59997558594
1308.92889348934	998.799987792969
1309.58609289443	1000.20001220703
1310.24320783432	1003
1310.90023831664	1002.79998779297
1311.55718434898	1000.59997558594
1312.21404593897	1003.40002441406
1312.87082309421	1000
1313.52751582233	997.599975585938
1314.18412413092	995.200012207031
1314.84064802761	999
1315.49708752	995.400024414063
1316.1534426157	996.599975585938
1316.80971332233	996
1317.46589964749	992
1318.1220015988	997.799987792969
1318.77801918386	990.599975585938
1319.43395241028	1002
1320.08980128567	1000.79998779297
1320.74556581764	1001.20001220703
1321.4012460138	995
1322.05684188176	998
1322.71235342911	999.799987792969
1323.36778066347	990.799987792969
1324.02312359245	991.799987792969
1324.67838222365	994.400024414063
1325.33355656468	996.799987792969
1325.98864662314	990.799987792969
1326.64365240663	994.200012207031
1327.29857392277	991.799987792969
1327.95341117915	992
1328.60816418339	991.599975585938
1329.26283294308	992.400024414063
1329.91741746582	993.799987792969
1330.57191775923	994.200012207031
1331.2263338309	995.599975585938
1331.88066568843	988.599975585938
1332.53491333943	989
1333.1890767915	997.200012207031
1333.84315605224	996.400024414063
1334.49715112925	999.599975585938
1335.15106203013	992.799987792969
1335.80488876249	996.799987792969
1336.45863133391	997
1337.112289752	990.799987792969
1337.76586402437	991.599975585938
1338.4193541586	991.400024414063
1339.0727601623	998
1339.72608204306	998.799987792969
1340.37931980849	991.799987792969
1341.03247346617	995.200012207031
1341.68554302372	992.400024414063
1342.33852848871	995.599975585938
1342.99142986876	995.799987792969
1343.64424717145	997.599975585938
1344.29698040438	1002.20001220703
1344.94962957515	1003.79998779297
1345.60219469135	998.799987792969
1346.25467576058	994.599975585938
1346.90707279042	1002
1347.55938578848	1001
1348.21161476235	1001.79998779297
1348.86375971962	1002.59997558594
1349.51582066787	1004
1350.16779761472	1005.20001220703
1350.81969056774	1001.40002441406
1351.47149953453	1001.40002441406
1352.12322452269	1004.79998779297
1352.77486553979	1003.59997558594
1353.42642259344	1011.20001220703
1354.07789569122	1017
1354.72928484072	1011
1355.38059004953	1013
1356.03181132525	1012.79998779297
1356.68294867545	1008.79998779297
1357.33400210773	1004
1357.98497162968	1010.59997558594
1358.63585724889	1009.20001220703
1359.28665897294	1007
1359.93737680942	1007.79998779297
1360.58801076591	1011
1361.23856085001	1011.59997558594
1361.88902706929	1007.59997558594
1362.53940943135	1009
1363.18970794377	1012.20001220703
1363.83992261413	1015
1364.49005345003	1009.79998779297
1365.14010045904	1008.79998779297
1365.79006364874	1004.40002441406
1366.43994302673	1004.40002441406
1367.08973860058	1003
1367.73945037788	1001.59997558594
1368.38907836621	997
1369.03862257315	1007.20001220703
1369.68808300629	1005.79998779297
1370.3374596732	996.400024414063
1370.98675258148	995.599975585938
1371.63596173868	989.599975585938
1372.28508715241	1002
1372.93412883024	998
1373.58308677974	996.200012207031
1374.2319610085	1001.20001220703
1374.8807515241	995.599975585938
1375.52945833412	997.200012207031
1376.17808144612	998
1376.82662086771	995.799987792969
1377.47507660644	998.200012207031
1378.12344866989	997.200012207031
1378.77173706565	991.400024414063
1379.41994180129	991
1380.06806288439	986.400024414063
1380.71610032252	983
1381.36405412326	986.799987792969
1382.01192429419	986
1382.65971084287	990.400024414063
1383.30741377688	986.400024414063
1383.95503310381	986.799987792969
1384.60256883121	990.799987792969
1385.25002096667	990.200012207031
1385.89738951775	991.799987792969
1386.54467449204	993.200012207031
1387.19187589709	994.599975585938
1387.8389937405	999.599975585938
1388.48602802982	1003.20001220703
1389.13297877262	998
1389.77984597649	993.599975585938
1390.42662964899	1000
1391.07332979768	994.400024414063
1391.71994643015	997.200012207031
1392.36647955395	991.400024414063
1393.01292917667	990
1393.65929530586	988
1394.3055779491	990.400024414063
1394.95177711395	989.799987792969
1395.59789280799	988.400024414063
1396.24392503877	985.799987792969
1396.88987381387	986.799987792969
1397.53573914086	988
1398.1815210273	989.599975585938
1398.82721948075	991.200012207031
1399.47283450878	982
1400.11836611897	989.799987792969
1400.76381431886	989
1401.40917911603	989.400024414063
1402.05446051805	991.799987792969
1402.69965853247	988.200012207031
1403.34477316686	994
1403.98980442878	995.799987792969
1404.6347523258	984.200012207031
1405.27961686548	994.799987792969
1405.92439805538	984.599975585938
1406.56909590306	986.799987792969
1407.21371041608	984.200012207031
1407.85824160202	983.599975585938
1408.50268946841	982.400024414063
1409.14705402284	986
1409.79133527285	986.799987792969
1410.43553322601	984.200012207031
1411.07964788987	984.599975585938
1411.723679272	980.599975585938
1412.36762737996	991
1413.01149222129	986.200012207031
1413.65527380357	987.799987792969
1414.29897213435	987.799987792969
1414.94258722118	996.799987792969
1415.58611907163	997.400024414063
1416.22956769325	991.400024414063
1416.87293309359	987.200012207031
1417.51621528021	987.799987792969
1418.15941426067	986.799987792969
1418.80253004253	987.400024414063
1419.44556263333	987.200012207031
1420.08851204063	988.400024414063
1420.731378272	988.400024414063
1421.37416133497	994.400024414063
1422.0168612371	994.200012207031
1422.65947798596	992.400024414063
1423.30201158908	990.799987792969
1423.94446205403	987
1424.58682938835	985.599975585938
1425.2291135996	987
1425.87131469532	993.200012207031
1426.51343268308	986.599975585938
1427.15546757042	991.200012207031
1427.79741936488	994.200012207031
1428.43928807403	991.799987792969
1429.0810737054	990.200012207031
1429.72277626656	992
1430.36439576504	988.799987792969
1431.00593220841	993.400024414063
1431.64738560419	993.400024414063
1432.28875595995	993.799987792969
1432.93004328324	996
1433.57124758159	988.799987792969
1434.21236886255	990.200012207031
1434.85340713368	991.599975585938
1435.49436240252	993
1436.13523467661	993.599975585938
1436.77602396349	989
1437.41673027073	986.799987792969
1438.05735360585	987.400024414063
1438.69789397641	990.599975585938
1439.33835138994	986.400024414063
1439.978725854	986.400024414063
1440.61901737612	986
1441.25922596385	987
1441.89935162473	982.200012207031
1442.53939436631	988.200012207031
1443.17935419612	989
1443.81923112171	984.799987792969
1444.45902515061	989.799987792969
1445.09873629038	990.400024414063
1445.73836454854	991.599975585938
1446.37790993265	992.799987792969
1447.01737245024	992.400024414063
1447.65675210885	986.599975585938
1448.29604891602	989.200012207031
1448.93526287928	985.799987792969
1449.57439400618	986.400024414063
1450.21344230426	991.799987792969
1450.85240778105	990
1451.49129044409	992
1452.13009030092	984.400024414063
1452.76880735907	993
1453.40744162608	988.200012207031
1454.04599310949	987.400024414063
1454.68446181683	982.599975585938
1455.32284775564	991
1455.96115093345	989.400024414063
1456.5993713578	991.200012207031
1457.23750903623	991.799987792969
1457.87556397626	989
1458.51353618543	992.400024414063
1459.15142567127	991
1459.78923244132	990.799987792969
1460.42695650311	989.799987792969
1461.06459786417	991
1461.70215653203	994
1462.33963251423	997.799987792969
1462.97702581829	995
1463.61433645175	998.599975585938
1464.25156442214	996.599975585938
1464.88870973699	995
1465.52577240382	996
1466.16275243017	994.599975585938
1466.79964982356	994.799987792969
1467.43646459154	990.400024414063
1468.07319674161	994.799987792969
1468.70984628132	988.400024414063
1469.34641321818	1001
1469.98289755974	1004
1470.6192993135	996.799987792969
1471.25561848701	995.400024414063
1471.89185508779	999
1472.52800912336	991
1473.16408060124	991
1473.80006952897	997.400024414063
1474.43597591407	997
1475.07179976406	997
1475.70754108647	995.799987792969
1476.34319988883	991.400024414063
1476.97877617865	991.200012207031
1477.61426996345	994.599975585938
1478.24968125077	993.200012207031
1478.88501004812	988.400024414063
1479.52025636303	995
1480.15542020302	994.599975585938
1480.79050157561	996.799987792969
1481.42550048832	992.200012207031
1482.06041694867	995.400024414063
1482.69525096418	993.599975585938
1483.33000254237	996.599975585938
1483.96467169077	1000.59997558594
1484.59925841689	997.400024414063
1485.23376272825	999
1485.86818463237	997.799987792969
1486.50252413677	1000.20001220703
1487.13678124896	994.400024414063
1487.77095597646	993.200012207031
1488.4050483268	995
1489.03905830749	987.200012207031
1489.67298592604	982.599975585938
1490.30683118996	991.599975585938
1490.9405941068	995.799987792969
1491.57427468403	988
1492.2078729292	994
1492.84138884981	995.200012207031
1493.47482245338	998.200012207031
1494.10817374742	991
1494.74144273944	993.599975585938
1495.37462943696	1001
1496.0077338475	999.200012207031
1496.64075597856	997.799987792969
1497.27369583765	1000.40002441406
1497.9065534323	999.599975585938
1498.53932877001	999
1499.17202185829	1004.20001220703
1499.80463270465	1005.40002441406
1500.43716131661	999.400024414063
1501.06960770167	1005.40002441406
1501.70197186735	1003.79998779297
1502.33425382116	1008.20001220703
1502.96645357059	1004
1503.59857112317	1000.20001220703
1504.23060648641	1002.59997558594
1504.8625596678	1002
1505.49443067486	1008
1506.1262195151	1001.79998779297
1506.75792619602	1000
1507.38955072513	997.599975585938
1508.02109310993	1000.20001220703
1508.65255335794	1005.79998779297
1509.28393147666	1000.20001220703
1509.91522747359	992.799987792969
1510.54644135624	998.799987792969
1511.17757313212	1002.40002441406
1511.80862280872	1001
1512.43959039356	990.200012207031
1513.07047589413	994.799987792969
1513.70127931795	992.799987792969
1514.33200067251	994.799987792969
1514.96263996531	994.400024414063
1515.59319720386	993.200012207031
1516.22367239567	993
1516.85406554822	990.400024414063
1517.48437666903	992.200012207031
1518.1146057656	993.400024414063
1518.74475284542	989.400024414063
1519.374817916	988.799987792969
1520.00480098483	984.400024414063
1520.63470205942	987.200012207031
1521.26452114726	984.599975585938
1521.89425825586	992.599975585938
1522.52391339271	986.799987792969
1523.15348656531	989
1523.78297778116	992.599975585938
1524.41238704775	992.599975585938
1525.04171437259	987.400024414063
1525.67095976317	991.400024414063
1526.30012322699	992
1526.92920477154	995
1527.55820440432	991.200012207031
1528.18712213283	986.599975585938
1528.81595796455	988.799987792969
1529.44471190699	989.400024414063
1530.07338396764	992.400024414063
1530.70197415399	992.799987792969
1531.33048247353	988.799987792969
1531.95890893377	987.200012207031
1532.58725354219	994.799987792969
1533.21551630629	992.799987792969
1533.84369723356	990.400024414063
1534.47179633148	996
1535.09981360757	990.599975585938
1535.72774906929	992.599975585938
1536.35560272415	991.200012207031
1536.98337457963	989.400024414063
1537.61106464323	991.200012207031
1538.23867292243	993.599975585938
1538.86619942473	993.599975585938
1539.49364415762	995.400024414063
1540.12100712857	991
1540.74828834509	987.599975585938
1541.37548781466	989.400024414063
1542.00260554478	993.799987792969
1542.62964154291	988.400024414063
1543.25659581655	992.599975585938
1543.8834683732	992.599975585938
1544.51025922034	990
1545.13696836544	988
1545.76359581601	987.799987792969
1546.39014157952	987.799987792969
1547.01660566345	992.799987792969
1547.64298807531	991.400024414063
1548.26928882255	987.599975585938
1548.89550791269	988.799987792969
1549.52164535318	981.400024414063
1550.14770115153	988.799987792969
1550.77367531521	988.400024414063
1551.39956785171	988.400024414063
1552.0253787685	990.200012207031
1552.65110807307	987.799987792969
1553.2767557729	993.400024414063
1553.90232187548	989.599975585938
1554.52780638828	992.400024414063
1555.15320931879	989.799987792969
1555.77853067447	995.799987792969
1556.40377046282	990
1557.02892869132	992.599975585938
1557.65400536744	990.799987792969
1558.27900049866	990.200012207031
1558.90391409247	992.799987792969
1559.52874615633	998.200012207031
1560.15349669773	998.400024414063
1560.77816572414	995.400024414063
1561.40275324305	993.599975585938
1562.02725926192	996.400024414063
1562.65168378824	993.200012207031
1563.27602682948	993.799987792969
1563.90028839311	991.400024414063
1564.52446848662	996.400024414063
1565.14856711748	992
1565.77258429316	990.599975585938
1566.39652002113	993.799987792969
1567.02037430887	995.400024414063
1567.64414716387	992.799987792969
1568.26783859357	995.599975585938
1568.89144860547	995.400024414063
1569.51497720703	990.599975585938
1570.13842440573	992.200012207031
1570.76179020904	997
1571.38507462442	991.400024414063
1572.00827765936	995.400024414063
1572.63139932132	993
1573.25443961777	999.400024414063
1573.87739855618	991.799987792969
1574.50027614402	994.799987792969
1575.12307238877	996.599975585938
1575.74578729789	991.400024414063
1576.36842087885	988.799987792969
1576.99097313912	995
1577.61344408616	995.400024414063
1578.23583372745	990.799987792969
1578.85814207046	992.400024414063
1579.48036912264	994.599975585938
1580.10251489147	992.599975585938
1580.72457938441	991.799987792969
1581.34656260893	990.799987792969
1581.9684645725	991.799987792969
1582.59028528258	993.200012207031
1583.21202474663	993.799987792969
1583.83368297212	993.599975585938
1584.45525996652	992.200012207031
1585.07675573728	988
1585.69817029188	983.599975585938
1586.31950363778	982.599975585938
1586.94075578243	983.400024414063
1587.5619267333	982.799987792969
1588.18301649786	985.400024414063
1588.80402508357	980.400024414063
1589.42495249788	978.400024414063
1590.04579874826	981.400024414063
1590.66656384217	981.200012207031
1591.28724778707	983.599975585938
1591.90785059042	988.599975585938
1592.52837225968	988.200012207031
1593.14881280232	987.599975585938
1593.76917222578	987.200012207031
1594.38945053753	977.200012207031
1595.00964774502	982.599975585938
1595.62976385573	983
1596.24979887709	988.799987792969
1596.86975281657	979.200012207031
1597.48962568164	982
1598.10941747974	989.599975585938
1598.72912821832	986.799987792969
1599.34875790486	983.400024414063
1599.9683065468	987.799987792969
1600.58777415159	989
1601.2071607267	988.599975585938
1601.82646627958	984.599975585938
1602.44569081769	982.799987792969
1603.06483434846	981.200012207031
1603.68389687937	984.200012207031
1604.30287841786	977.799987792969
1604.92177897139	986.400024414063
1605.54059854741	983
1606.15933715337	981.400024414063
1606.77799479672	974.200012207031
1607.39657148492	977
1608.01506722542	983
1608.63348202566	976
1609.2518158931	971.799987792969
1609.87006883519	982.400024414063
1610.48824085939	977.200012207031
1611.10633197312	972.799987792969
1611.72434218386	972.400024414063
1612.34227149904	972
1612.96011992612	974.400024414063
1613.57788747254	973.200012207031
1614.19557414575	976.799987792969
1614.8131799532	973.799987792969
1615.43070490234	975.400024414063
1616.04814900061	977.599975585938
1616.66551225545	979.599975585938
1617.28279467433	967.799987792969
1617.89999626467	974.400024414063
1618.51711703393	973.200012207031
1619.13415698955	967.799987792969
1619.75111613898	967
1620.36799448966	968.400024414063
1620.98479204903	971.799987792969
1621.60150882455	969.400024414063
1622.21814482364	967.200012207031
1622.83470005376	967.400024414063
1623.45117452235	966.799987792969
1624.06756823685	972.200012207031
1624.6838812047	966.599975585938
1625.30011343335	974.400024414063
1625.91626493022	972.799987792969
1626.53233570278	974
1627.14832575845	975.599975585938
1627.76423510468	973
1628.38006374891	973.599975585938
1628.99581169857	974.599975585938
1629.61147896111	969.200012207031
1630.22706554397	975.599975585938
1630.84257145457	972.599975585938
1631.45799670038	973.200012207031
1632.07334128881	969.400024414063
1632.6886052273	967.400024414063
1633.3037885233	971.200012207031
1633.91889118425	974.400024414063
1634.53391321757	972.799987792969
1635.1488546307	984.799987792969
1635.76371543108	980.599975585938
1636.37849562616	980.599975585938
1636.99319522335	988.400024414063
1637.60781423009	980.599975585938
1638.22235265383	981
1638.83681050198	985.200012207031
1639.451187782	980.200012207031
1640.0654845013	980.599975585938
1640.67970066734	982.799987792969
1641.29383628752	986
1641.9078913693	987.599975585938
1642.5218659201	981.599975585938
1643.13575994735	988
1643.74957345849	984.400024414063
1644.36330646094	993
1644.97695896213	988.200012207031
1645.59053096951	985.799987792969
1646.20402249049	989.200012207031
1646.8174335325	986.400024414063
1647.43076410298	987.599975585938
1648.04401420935	992.599975585938
1648.65718385905	987.200012207031
1649.2702730595	987.400024414063
1649.88328181812	985.400024414063
1650.49621014236	988.200012207031
1651.10905803963	987.400024414063
1651.72182551735	989.799987792969
1652.33451258297	987.200012207031
1652.9471192439	984.200012207031
1653.55964550757	988
1654.1720913814	983.799987792969
1654.78445687283	981.599975585938
1655.39674198926	974.400024414063
1656.00894673814	974.400024414063
1656.62107112688	974.599975585938
1657.23311516291	972.799987792969
1657.84507885365	970.200012207031
1658.45696220652	972
1659.06876522895	973.400024414063
1659.68048792835	970.200012207031
1660.29213031217	972.799987792969
1660.90369238779	971.200012207031
1661.51517416267	975
1662.12657564421	968.599975585938
1662.73789683984	973.400024414063
1663.34913775697	968.799987792969
1663.96029840303	968.400024414063
1664.57137878544	970
1665.18237891161	971.599975585938
1665.79329878897	966.799987792969
1666.40413842493	968.200012207031
1667.01489782691	964
1667.62557700233	970
1668.2361759586	963.200012207031
1668.84669470315	974.599975585938
1669.4571332434	961.400024414063
1670.06749158675	954.599975585938
1670.67776974062	963
1671.28796771243	958.200012207031
1671.8980855096	958.200012207031
1672.50812313954	957.400024414063
1673.11808060967	961.599975585938
1673.72795792739	956.400024414063
1674.33775510013	955.599975585938
1674.9474721353	967
1675.55710904031	962.799987792969
1676.16666582257	960.200012207031
1676.7761424895	967.799987792969
1677.38553904851	965.400024414063
1677.99485550702	963.799987792969
1678.60409187243	958.599975585938
1679.21324815215	961.599975585938
1679.8223243536	965.400024414063
1680.43132048419	960.599975585938
1681.04023655132	959.400024414063
1681.64907256241	958.400024414063
1682.25782852487	958.200012207031
1682.86650444611	955.599975585938
1683.47510033353	953.799987792969
1684.08361619455	956
1684.69205203657	963
1685.300407867	961.400024414063
1685.90868369325	961.400024414063
1686.51687952272	960.599975585938
1687.12499536283	956.799987792969
1687.73303122098	960.200012207031
1688.34098710457	962.400024414063
1688.94886302101	956.400024414063
1689.55665897772	959
1690.16437498208	955
1690.77201104152	959
1691.37956716342	959.599975585938
1691.9870433552	953.200012207031
1692.59443962426	957
1693.20175597801	958
1693.80899242384	956.200012207031
1694.41614896916	953
1695.02322562138	951.599975585938
1695.63022238789	954.599975585938
1696.23713927609	949.200012207031
1696.8439762934	953.400024414063
1697.4507334472	950
1698.05741074491	956
1698.66400819391	957.400024414063
1699.27052580161	956
1699.87696357542	953.799987792969
1700.48332152272	955.400024414063
1701.08959965092	955.599975585938
1701.69579796742	950.200012207031
1702.30191647962	954.400024414063
1702.90795519491	950.799987792969
1703.51391412069	948.400024414063
1704.11979326437	943.599975585938
1704.72559263332	943.599975585938
1705.33131223496	943.400024414063
1705.93695207668	946.200012207031
1706.54251216588	947.799987792969
1707.14799250994	945.799987792969
1707.75339311628	945.400024414063
1708.35871399227	943.799987792969
1708.96395514532	946
1709.56911658282	945.799987792969
