634.948122577771	1093.80004882813
635.690341530823	1102.40002441406
636.43246851086	1095
637.174503525845	1099.59997558594
637.916446583745	1107.40002441406
638.658297692538	1104.80004882813
639.400056860179	1100.59997558594
640.141724094637	1101.40002441406
640.883299403885	1099.80004882813
641.62478279588	1099.59997558594
642.366174278594	1099.59997558594
643.107473859989	1101
643.848681548029	1099.80004882813
644.589797350679	1092
645.330821275901	1091.19995117188
646.071753331665	1093
646.812593525922	1094.40002441406
647.553341866646	1102.59997558594
648.293998361798	1099.19995117188
649.03456301933	1104.59997558594
649.775035847216	1106.59997558594
650.515416853409	1108.59997558594
651.255706045874	1107.80004882813
651.995903432568	1097
652.736009021453	1102.19995117188
653.476022820486	1113
654.215944837629	1114
654.955775080842	1113.80004882813
655.695513558081	1110.19995117188
656.435160277301	1114.80004882813
657.174715246465	1103.80004882813
657.914178473527	1113.40002441406
658.653549966449	1112.19995117188
659.392829733176	1115.80004882813
660.132017781678	1115.59997558594
660.871114119901	1120
661.610118755803	1122.40002441406
662.349031697343	1128.80004882813
663.087852952468	1124.80004882813
663.826582529139	1117.40002441406
664.565220435305	1113
665.30376667892	1117
666.04222126794	1121
666.780584210316	1120.59997558594
667.518855514	1117.59997558594
668.25703518694	1106.80004882813
668.995123237096	1126.40002441406
669.733119672413	1132.80004882813
670.471024500842	1131.40002441406
671.208837730333	1133.80004882813
671.946559368839	1134
672.684189424308	1132.80004882813
673.421727904689	1115.80004882813
674.159174817929	1127.80004882813
674.896530171977	1126
675.633793974786	1139.80004882813
676.370966234295	1138.59997558594
677.108046958461	1141.19995117188
677.845036155219	1132.59997558594
678.581933832528	1129.19995117188
679.318739998323	1120
680.055454660558	1120
680.792077827172	1118.80004882813
681.528609506116	1127.80004882813
682.265049705331	1116.80004882813
683.001398432759	1126
683.737655696349	1131.40002441406
684.47382150404	1123.19995117188
685.20989586378	1116
685.945878783503	1122.59997558594
686.68177027116	1130.19995117188
687.417570334688	1130.40002441406
688.153278982032	1121.59997558594
688.888896221129	1124.59997558594
689.624422059921	1126.40002441406
690.359856506349	1126
691.095199568354	1124
691.830451253874	1118.40002441406
692.565611570844	1111
693.300680527212	1115.40002441406
694.03565813091	1120.80004882813
694.770544389877	1127.19995117188
695.505339312053	1116
696.240042905372	1113.19995117188
696.974655177772	1117
697.70917613719	1116.40002441406
698.443605791561	1120.59997558594
699.177944148826	1115.19995117188
699.912191216909	1118
700.646347003755	1114.40002441406
701.380411517295	1120.40002441406
702.114384765465	1118.19995117188
702.848266756195	1112.19995117188
703.582057497421	1107.19995117188
704.315756997074	1106.80004882813
705.049365263089	1112.19995117188
705.782882303399	1108.40002441406
706.516308125936	1117.19995117188
707.249642738626	1113.59997558594
707.982886149403	1116.40002441406
708.716038366204	1116.59997558594
709.449099396949	1111.80004882813
710.182069249577	1110.80004882813
710.914947932009	1108.40002441406
711.647735452181	1112.80004882813
712.380431818022	1113.80004882813
713.113037037454	1099.80004882813
713.845551118411	1117
714.577974068818	1107
715.310305896604	1109.59997558594
716.042546609694	1116.59997558594
716.774696216013	1121.19995117188
717.506754723493	1122.80004882813
718.238722140053	1128.40002441406
718.970598473624	1126.59997558594
719.702383732127	1115.80004882813
720.43407792349	1116.40002441406
721.165681055634	1118
721.897193136486	1124.80004882813
722.628614173966	1125
723.359944175997	1123
724.091183150505	1118.80004882813
724.822331105412	1121.19995117188
725.553388048638	1124
726.284353988106	1121.59997558594
727.015228931734	1119
727.746012887449	1123.40002441406
728.476705863162	1127.59997558594
729.207307866803	1119.59997558594
729.937818906289	1124
730.668238989535	1115.80004882813
731.398568124459	1108.19995117188
732.128806318986	1118.40002441406
732.858953581034	1117.19995117188
733.589009918514	1114
734.318975339348	1113.59997558594
735.048849851452	1131.19995117188
735.778633462744	1130.40002441406
736.508326181137	1132.40002441406
737.237928014549	1135
737.967438970897	1135.19995117188
738.696859058095	1125
739.426188284054	1125.19995117188
740.155426656692	1124
740.884574183922	1116
741.613630873659	1121.59997558594
742.342596733815	1123.59997558594
743.071471772302	1126.80004882813
743.800255997034	1126.19995117188
744.528949415921	1131
745.257552036877	1126.19995117188
745.986063867811	1125.80004882813
746.714484916638	1126.80004882813
747.442815191261	1121.80004882813
748.171054699597	1120.59997558594
748.899203449554	1115.40002441406
749.627261449039	1119.80004882813
750.355228705966	1110.40002441406
751.083105228239	1117.59997558594
751.810891023765	1126
752.538586100459	1129.59997558594
753.266190466218	1131.40002441406
753.99370412896	1127.80004882813
754.721127096582	1133.19995117188
755.448459377	1129
756.175700978114	1133.59997558594
756.902851907828	1145.80004882813
757.629912174055	1137.19995117188
758.356881784688	1137
759.083760747639	1137
759.810549070817	1137.80004882813
760.537246762113	1139
761.263853829442	1126.19995117188
761.990370280698	1131.80004882813
762.716796123791	1128
763.443131366618	1131
764.169376017082	1133.80004882813
764.895530083085	1133
765.621593572527	1133.40002441406
766.347566493312	1141.19995117188
767.073448853336	1147.40002441406
767.799240660502	1163
768.524941922707	1165.40002441406
769.250552647854	1171.59997558594
769.976072843836	1177.40002441406
770.701502518551	1174.59997558594
771.426841679905	1180.80004882813
772.152090335793	1180.19995117188
772.877248494107	1184.40002441406
773.602316162747	1165.40002441406
774.327293349609	1167
775.052180062592	1160.59997558594
775.776976309589	1168.59997558594
776.501682098496	1173.59997558594
777.226297437206	1163.59997558594
777.950822333616	1160
778.675256795621	1164.19995117188
779.399600831111	1162.80004882813
780.123854447983	1160
780.84801765413	1151.19995117188
781.572090457441	1148.80004882813
782.296072865811	1154
783.019964887131	1147.59997558594
783.743766529297	1135.80004882813
784.467477800194	1118.80004882813
785.191098707719	1119.59997558594
785.914629259756	1119.59997558594
786.638069464194	1119
787.361419328932	1122.80004882813
788.084678861852	1134
788.807848070845	1131.19995117188
789.530926963798	1129.59997558594
790.253915548602	1117.59997558594
790.976813833144	1123.19995117188
791.699621825307	1112.19995117188
792.422339532986	1112.19995117188
793.144966964061	1124.40002441406
793.86750412642	1116.19995117188
794.589951027946	1121.40002441406
795.312307676536	1118.40002441406
796.03457408006	1115.19995117188
796.756750246417	1120
797.478836183477	1131.40002441406
798.200831899137	1134
798.92273740127	1129
799.644552697769	1125
800.36627779651	1131.80004882813
801.087912705374	1121.19995117188
801.809457432251	1123.40002441406
802.530911985017	1127.80004882813
803.252276371558	1118.80004882813
803.973550599748	1123
804.694734677472	1128.19995117188
805.415828612611	1123.19995117188
806.136832413045	1127.19995117188
806.857746086646	1126.19995117188
807.578569641305	1138.40002441406
808.299303084892	1131
809.019946425289	1131.59997558594
809.740499670372	1126.19995117188
810.460962828022	1126
811.181335906114	1123.40002441406
811.901618912524	1132
812.621811855131	1125.59997558594
813.341914741809	1124.80004882813
814.061927580433	1120
814.781850378881	1127.80004882813
815.501683145025	1127.40002441406
816.221425886743	1124.40002441406
816.941078611903	1127.40002441406
817.660641328387	1133.80004882813
818.380114044065	1125.40002441406
819.099496766808	1131
819.818789504492	1120.59997558594
820.53799226499	1125.80004882813
821.257105056168	1115.80004882813
821.976127885904	1122.59997558594
822.695060762064	1130.80004882813
823.413903692525	1136
824.132656685151	1139.40002441406
824.851319747817	1145.59997558594
825.569892888388	1138.80004882813
826.288376114739	1130.40002441406
827.006769434737	1126.40002441406
827.725072856249	1139.40002441406
828.443286387142	1139.80004882813
829.161410035285	1132.19995117188
829.87944380855	1135
830.597387714798	1139.59997558594
831.315241761898	1129.80004882813
832.033005957715	1123.19995117188
832.750680310119	1131
833.468264826969	1135.40002441406
834.18575951614	1137.59997558594
834.903164385486	1135.40002441406
835.620479442878	1138.59997558594
836.337704696181	1131.80004882813
837.054840153255	1142.80004882813
837.771885821962	1140.19995117188
838.488841710172	1139.19995117188
839.20570782574	1129
839.922484176531	1125.59997558594
840.639170770409	1128.40002441406
841.355767615231	1130.59997558594
842.072274718864	1123.59997558594
842.788692089164	1126.40002441406
843.505019733993	1122.59997558594
844.221257661209	1124.40002441406
844.937405878676	1124.80004882813
845.65346439425	1134
846.369433215789	1130
847.085312351156	1122.19995117188
847.801101808205	1124.19995117188
848.516801594793	1119.59997558594
849.232411718781	1124.59997558594
849.947932188021	1123.80004882813
850.663363010376	1123.19995117188
851.378704193698	1119
852.093955745842	1131.59997558594
852.809117674669	1126.40002441406
853.524189988028	1130.19995117188
854.239172693778	1124.59997558594
854.954065799768	1122.19995117188
855.668869313857	1123.59997558594
856.383583243899	1119.40002441406
857.098207597743	1131.80004882813
857.812742383246	1132
858.527187608255	1128.59997558594
859.241543280628	1126.19995117188
859.955809408218	1129.59997558594
860.669985998868	1128.80004882813
861.384073060437	1135.59997558594
862.098070600772	1127
862.811978627724	1131.40002441406
863.52579714914	1136.19995117188
864.239526172873	1139.19995117188
864.953165706776	1127.19995117188
865.666715758687	1125.80004882813
866.380176336464	1126.19995117188
867.093547447951	1124.80004882813
867.806829100996	1127
868.520021303444	1126.40002441406
869.233124063149	1135.19995117188
869.94613738795	1139.40002441406
870.659061285693	1136.80004882813
871.37189576423	1136.40002441406
872.084640831403	1124.80004882813
872.797296495057	1122.80004882813
873.509862763039	1122.40002441406
874.22233964319	1127
874.934727143353	1122.19995117188
875.647025271374	1134.40002441406
876.359234035097	1130.40002441406
877.071353442361	1125.19995117188
877.783383501015	1129.59997558594
878.495324218895	1132.19995117188
879.207175603844	1130.40002441406
879.918937663705	1139.80004882813
880.630610406318	1134
881.342193839524	1128.80004882813
882.053687971161	1132.19995117188
882.765092809069	1132.59997558594
883.476408361091	1134.40002441406
884.187634635066	1121.59997558594
884.898771638828	1123
885.609819380221	1133
886.320777867076	1134.40002441406
887.031647107236	1133.19995117188
887.742427108536	1129.40002441406
888.453117878816	1128
889.16371942591	1134
889.874231757652	1127.59997558594
890.584654881883	1122.80004882813
891.294988806434	1131.80004882813
892.005233539141	1133
892.715389087837	1138
893.42545546036	1137
894.135432664543	1135
894.845320708216	1137.59997558594
895.555119599216	1126.19995117188
896.264829345375	1137
896.974449954526	1147.80004882813
897.683981434496	1150.19995117188
898.393423793125	1146.80004882813
899.102777038235	1137.80004882813
899.812041177664	1132
900.521216219239	1136
901.230302170793	1128.59997558594
901.939299040155	1127.59997558594
902.64820683515	1130.40002441406
903.357025563612	1130.40002441406
904.065755233368	1137.59997558594
904.774395852247	1142.40002441406
905.482947428076	1141.59997558594
906.191409968682	1138.19995117188
906.899783481897	1140.40002441406
907.608067975538	1140.19995117188
908.316263457443	1130.59997558594
909.02436993543	1133.80004882813
909.732387417327	1124.19995117188
910.440315910959	1128
911.148155424154	1125
911.855905964731	1137
912.563567540521	1139.59997558594
913.271140159339	1141.80004882813
913.978623829017	1136.19995117188
914.686018557374	1143
915.393324352237	1140
916.100541221421	1139.40002441406
916.807669172752	1132.80004882813
917.514708214054	1137.59997558594
918.221658353142	1140.40002441406
918.928519597843	1148.59997558594
919.635291955976	1148.80004882813
920.341975435358	1150.59997558594
921.048570043813	1142
921.75507578916	1141.40002441406
922.461492679212	1139.59997558594
923.167820721795	1145.19995117188
923.874059924726	1143
924.58021029582	1147.59997558594
925.286271842893	1139.19995117188
925.992244573769	1141
926.698128496262	1139.59997558594
927.403923618184	1143.19995117188
928.109629947355	1140.40002441406
928.815247491593	1141.19995117188
929.520776258708	1154.80004882813
930.226216256519	1146.59997558594
930.931567492841	1144.19995117188
931.636829975482	1147.59997558594
932.342003712263	1147
933.047088710995	1142.19995117188
933.752084979491	1138.19995117188
934.456992525564	1132.80004882813
935.161811357024	1131.59997558594
935.866541481688	1137.19995117188
936.571182907363	1129.80004882813
937.275735641861	1143.19995117188
937.980199692995	1140
938.684575068572	1134.80004882813
939.388861776411	1128.19995117188
940.093059824311	1129.19995117188
940.797169220085	1132.19995117188
941.501189971544	1120.19995117188
942.205122086495	1128.19995117188
942.908965572751	1113.80004882813
943.612720438111	1133
944.316386690391	1129
945.019964337391	1127.40002441406
945.723453386924	1136
946.426853846795	1140.80004882813
947.130165724808	1143
947.83338902877	1141.59997558594
948.536523766488	1135
949.239569945764	1137.19995117188
949.942527574402	1123.19995117188
950.64539666021	1128
951.348177210993	1128.40002441406
952.050869234548	1131.40002441406
952.753472738683	1118.80004882813
953.455987731199	1128.59997558594
954.158414219898	1124.80004882813
954.860752212587	1123.40002441406
955.563001717061	1123.19995117188
956.265162741124	1123.80004882813
956.967235292576	1115.19995117188
957.669219379224	1124.59997558594
958.371115008857	1124.59997558594
959.072922189283	1123.80004882813
959.774640928301	1119.80004882813
960.476271233708	1123.40002441406
961.177813113301	1118.40002441406
961.879266574882	1118.80004882813
962.580631626248	1127
963.281908275194	1123.40002441406
963.98309652952	1127.19995117188
964.684196397022	1125.80004882813
965.3852078855	1129.80004882813
966.086131002745	1129.80004882813
966.786965756555	1131.40002441406
967.487712154726	1137.19995117188
968.188370205055	1126.19995117188
968.888939915331	1133.80004882813
969.589421293352	1122.59997558594
970.289814346909	1115.80004882813
970.990119083801	1126.80004882813
971.690335511819	1124.19995117188
972.39046363875	1122.59997558594
973.090503472398	1136
973.790455020545	1127.40002441406
974.490318290987	1129.80004882813
975.190093291516	1125.40002441406
975.889780029923	1129.40002441406
976.589378513998	1134.40002441406
977.288888751527	1129.59997558594
977.988310750308	1139.40002441406
978.687644518122	1136.59997558594
979.386890062767	1136.40002441406
980.086047392025	1136
980.785116513689	1119.80004882813
981.484097435542	1133.59997558594
982.182990165377	1130
982.88179471098	1132.59997558594
983.580511080137	1130.59997558594
984.279139280632	1134.59997558594
984.977679320253	1134.59997558594
985.67613120679	1128.80004882813
986.374494948027	1131.80004882813
987.072770551745	1127.80004882813
987.770958025731	1122.80004882813
988.469057377772	1127.40002441406
989.167068615649	1128.19995117188
989.864991747145	1113.19995117188
990.562826780047	1118
991.260573722134	1128.59997558594
991.958232581195	1124.59997558594
992.655803365003	1121.40002441406
993.353286081346	1129.40002441406
994.050680738006	1137.40002441406
994.74798734276	1133.59997558594
995.44520590339	1133.80004882813
996.142336427681	1130.40002441406
996.839378923407	1125.80004882813
997.536333398348	1129
998.233199860289	1138.80004882813
998.929978317004	1137.59997558594
999.626668776274	1134.80004882813
1000.32327124587	1127
1001.01978573359	1134.19995117188
1001.71621224718	1126.19995117188
1002.41255079445	1123.59997558594
1003.10880138315	1125.19995117188
1003.80496402107	1123
1004.50103871599	1115.40002441406
1005.19702547567	1124.40002441406
1005.8929243079	1126.59997558594
1006.58873522045	1128
1007.2844582211	1126.80004882813
1007.98009331761	1131
1008.67564051776	1119.40002441406
1009.37109982933	1128.80004882813
1010.06647126009	1141.40002441406
1010.7617548178	1120.19995117188
1011.45695051026	1120.80004882813
1012.15205834522	1122.59997558594
1012.84707833045	1121.40002441406
1013.54201047373	1116
1014.23685478284	1126.59997558594
1014.93161126553	1134.80004882813
1015.62627992959	1125.59997558594
1016.32086078277	1123.19995117188
1017.01535383285	1129.19995117188
1017.70975908761	1117.59997558594
1018.40407655479	1119.59997558594
1019.09830624219	1129
1019.79244815755	1132.59997558594
1020.48650230866	1131.40002441406
1021.18046870328	1130.19995117188
1021.87434734917	1131.80004882813
1022.56813825411	1125.40002441406
1023.26184142584	1130.40002441406
1023.95545687216	1120.80004882813
1024.64898460082	1134.80004882813
1025.34242461957	1113.40002441406
1026.0357769362	1124.59997558594
1026.72904155846	1116.19995117188
1027.42221849412	1116.59997558594
1028.11530775094	1118.40002441406
1028.80830933668	1121.80004882813
1029.50122325911	1121.59997558594
1030.19404952599	1121
1030.88678814508	1121.40002441406
1031.57943912414	1119.40002441406
1032.27200247093	1117
1032.96447819323	1120.19995117188
1033.65686629878	1121.80004882813
1034.34916679534	1124.40002441406
1035.04137969068	1131.19995117188
1035.73350499256	1135
1036.42554270874	1136.59997558594
1037.11749284697	1136
1037.80935541501	1130.40002441406
1038.50113042062	1134.80004882813
1039.19281787156	1137.40002441406
1039.88441777559	1128.19995117188
1040.57593014046	1130.59997558594
1041.26735497393	1132.59997558594
1041.95869228376	1131
1042.6499420777	1137.19995117188
1043.3411043635	1131.80004882813
1044.03217914893	1129.59997558594
1044.72316644174	1135.19995117188
1045.41406624968	1123
1046.1048785805	1121
1046.79560344197	1121
1047.48624084182	1115.59997558594
1048.17679078783	1114.40002441406
1048.86725328774	1113
1049.55762834929	1115.59997558594
1050.24791598025	1116.19995117188
1050.93811618837	1121
1051.62822898139	1128.40002441406
1052.31825436707	1125.80004882813
1053.00819235315	1125.59997558594
1053.6980429474	1126.80004882813
1054.38780615755	1125.19995117188
1055.07748199136	1125.80004882813
1055.76707045658	1128
1056.45657156095	1141.80004882813
1057.14598531222	1141
1057.83531171814	1135.19995117188
1058.52455078646	1135.40002441406
1059.21370252494	1126
1059.90276694129	1130
1060.5917440433	1133.80004882813
1061.28063383868	1135.19995117188
1061.9694363352	1135.19995117188
1062.65815154059	1132.40002441406
1063.34677946261	1125.80004882813
1064.03532010899	1126.59997558594
1064.72377348748	1126.19995117188
1065.41213960583	1115.80004882813
1066.10041847177	1122.19995117188
1066.78861009306	1128.59997558594
1067.47671447743	1129
1068.16473163263	1129
1068.85266156639	1126.40002441406
1069.54050428647	1131.80004882813
1070.2282598006	1127.19995117188
1070.91592811652	1127.80004882813
1071.60350924198	1125
1072.29100318471	1138
1072.97840995245	1126
1073.66572955295	1128.19995117188
1074.35296199394	1126.40002441406
1075.04010728316	1127.19995117188
1075.72716542836	1123.40002441406
1076.41413643726	1124.59997558594
1077.10102031761	1120.19995117188
1077.78781707715	1118.59997558594
1078.4745267236	1118.19995117188
1079.16114926471	1124.59997558594
1079.84768470822	1119.59997558594
1080.53413306185	1123.59997558594
1081.22049433336	1132.40002441406
1081.90676853046	1128.59997558594
1082.5929556609	1131
1083.27905573241	1142.40002441406
1083.96506875272	1144.19995117188
1084.65099472957	1129.19995117188
1085.3368336707	1147.19995117188
1086.02258558383	1131.40002441406
1086.70825047669	1133.19995117188
1087.39382835703	1129.19995117188
1088.07931923257	1125.59997558594
1088.76472311104	1120.59997558594
1089.45004000018	1130
1090.13526990771	1123.40002441406
1090.82041284137	1137
1091.50546880889	1139.40002441406
1092.19043781799	1146.80004882813
1092.87531987642	1145.80004882813
1093.56011499188	1137.19995117188
1094.24482317212	1146.59997558594
1094.92944442486	1135.19995117188
1095.61397875783	1135.19995117188
1096.29842617876	1130.40002441406
1096.98278669537	1130.40002441406
1097.6670603154	1140
1098.35124704656	1129.59997558594
1099.03534689659	1136.80004882813
1099.71935987322	1130.19995117188
1100.40328598416	1128.40002441406
1101.08712523713	1135.19995117188
1101.77087763988	1129.40002441406
1102.45454320012	1130.80004882813
1103.13812192557	1130.59997558594
1103.82161382396	1126
1104.50501890301	1131.19995117188
1105.18833717045	1127
1105.87156863399	1137.59997558594
1106.55471330137	1127.19995117188
1107.2377711803	1122.80004882813
1107.9207422785	1124
1108.60362660369	1124.40002441406
1109.2864241636	1128.19995117188
1109.96913496594	1126.40002441406
1110.65175901844	1128.19995117188
1111.33429632882	1141.59997558594
1112.01674690479	1146.19995117188
1112.69911075408	1135.59997558594
1113.38138788439	1136.80004882813
1114.06357830346	1122.80004882813
1114.745682019	1127.19995117188
1115.42769903872	1131.59997558594
1116.10962937035	1135
1116.7914730216	1123.80004882813
1117.47323000018	1121.80004882813
1118.15490031382	1124
1118.83648397022	1124.59997558594
1119.51798097712	1123
1120.1993913422	1127
1120.88071507321	1134.19995117188
1121.56195217784	1126.19995117188
1122.24310266381	1132.80004882813
1122.92416653884	1139.19995117188
1123.60514381064	1146.59997558594
1124.28603448692	1149.59997558594
1124.9668385754	1142.59997558594
1125.64755608378	1143.19995117188
1126.32818701978	1141.19995117188
1127.00873139111	1143.40002441406
1127.68918920548	1138.19995117188
1128.3695604706	1127.80004882813
1129.04984519419	1136.40002441406
1129.73004338394	1137.40002441406
1130.41015504758	1143.59997558594
1131.09018019281	1141.40002441406
1131.77011882734	1148
1132.44997095888	1133.80004882813
1133.12973659514	1140
1133.80941574381	1138.59997558594
1134.48900841263	1137.80004882813
1135.16851460927	1138.59997558594
1135.84793434147	1130.59997558594
1136.52726761692	1126.40002441406
1137.20651444333	1126.40002441406
1137.8856748284	1138.59997558594
1138.56474877984	1135.19995117188
1139.24373630536	1140.40002441406
1139.92263741265	1134.80004882813
1140.60145210943	1127.80004882813
1141.28018040339	1121.19995117188
1141.95882230225	1126
1142.6373778137	1123
1143.31584694545	1121
1143.99422970519	1134.19995117188
1144.67252610064	1132.19995117188
1145.35073613949	1136.59997558594
1146.02885982944	1128.59997558594
1146.7068971782	1129
1147.38484819347	1133.19995117188
1148.06271288294	1124.80004882813
1148.74049125432	1136.19995117188
1149.41818331531	1132
1150.0957890736	1126.80004882813
1150.77330853689	1133.40002441406
1151.45074171289	1131
1152.12808860928	1132.40002441406
1152.80534923378	1123.80004882813
1153.48252359407	1131.19995117188
1154.15961169786	1131.40002441406
1154.83661355283	1129.40002441406
1155.51352916669	1133.80004882813
1156.19035854713	1129.59997558594
1156.86710170185	1131.59997558594
1157.54375863855	1127.19995117188
1158.22032936491	1116.19995117188
1158.89681388863	1117.59997558594
1159.57321221741	1119
1160.24952435894	1123.59997558594
1160.92575032092	1117.19995117188
1161.60189011103	1117
1162.27794373697	1118.59997558594
1162.95391120644	1122.80004882813
1163.62979252712	1133.59997558594
1164.3055877067	1132.80004882813
1164.98129675288	1140.40002441406
1165.65691967336	1144.40002441406
1166.33245647581	1136.40002441406
1167.00790716792	1132.40002441406
1167.6832717574	1146.40002441406
1168.35855025193	1141.80004882813
1169.0337426592	1136.19995117188
1169.70884898689	1132.40002441406
1170.3838692427	1129.59997558594
1171.05880343431	1133.59997558594
1171.73365156941	1131.59997558594
1172.40841365569	1129.40002441406
1173.08308970083	1142.80004882813
1173.75767971253	1146.59997558594
1174.43218369847	1145
1175.10660166633	1155.80004882813
1175.7809336238	1149.40002441406
1176.45517957857	1141.80004882813
1177.12933953832	1143.19995117188
1177.80341351073	1138.80004882813
1178.47740150349	1146.40002441406
1179.15130352429	1154.19995117188
1179.8251195808	1158.59997558594
1180.49884968071	1152.40002441406
1181.1724938317	1161.19995117188
1181.84605204145	1160.59997558594
1182.51952431766	1157.59997558594
1183.19291066799	1154.40002441406
1183.86621110013	1164.19995117188
1184.53942562176	1143.80004882813
1185.21255424057	1163.59997558594
1185.88559696422	1155.19995117188
1186.55855380041	1162.80004882813
1187.2314247568	1156.59997558594
1187.90420984109	1164
1188.57690906095	1164
1189.24952242405	1159.19995117188
1189.92204993808	1154.19995117188
1190.59449161071	1151.40002441406
1191.26684744962	1151.59997558594
1191.93911746249	1160.40002441406
1192.61130165699	1159.19995117188
1193.28340004081	1158.59997558594
1193.95541262161	1161.59997558594
1194.62733940707	1163.59997558594
1195.29918040487	1160.59997558594
1195.97093562269	1162.19995117188
1196.64260506819	1160.40002441406
1197.31418874905	1148.80004882813
1197.98568667295	1149.19995117188
1198.65709884755	1153.80004882813
1199.32842528053	1151.19995117188
1199.99966597957	1149
1200.67082095234	1143.59997558594
1201.3418902065	1145.59997558594
1202.01287374974	1148.19995117188
1202.68377158971	1150.80004882813
1203.3545837341	1158.80004882813
1204.02531019057	1151.59997558594
1204.6959509668	1145.19995117188
1205.36650607045	1143.80004882813
1206.03697550919	1139.19995117188
1206.70735929069	1135
1207.37765742263	1140.59997558594
1208.04786991266	1148.59997558594
1208.71799676846	1137.59997558594
1209.38803799769	1141.80004882813
1210.05799360803	1126.19995117188
1210.72786360714	1139.80004882813
1211.39764800268	1133.59997558594
1212.06734680233	1132
1212.73696001375	1136.40002441406
1213.4064876446	1137.40002441406
1214.07592970255	1145.59997558594
1214.74528619526	1140.40002441406
1215.4145571304	1134.19995117188
1216.08374251564	1125.59997558594
1216.75284235863	1129.80004882813
1217.42185666704	1128.19995117188
1218.09078544854	1130.80004882813
1218.75962871078	1128.59997558594
1219.42838646143	1133.19995117188
1220.09705870816	1134.40002441406
1220.76564545861	1129.19995117188
1221.43414672046	1123.59997558594
1222.10256250136	1136.40002441406
1222.77089280898	1139.19995117188
1223.43913765098	1124.80004882813
1224.107297035	1139
1224.77537096873	1136
1225.44335945981	1133
1226.1112625159	1126.59997558594
1226.77908014467	1134.59997558594
1227.44681235376	1130.40002441406
1228.11445915085	1131.40002441406
1228.78202054357	1131.19995117188
1229.44949653961	1122.19995117188
1230.11688714659	1128.19995117188
1230.7841923722	1148
1231.45141222407	1137
1232.11854670988	1133.80004882813
1232.78559583726	1134.80004882813
1233.45255961388	1137.19995117188
1234.1194380474	1141.19995117188
1234.78623114546	1134.40002441406
1235.45293891572	1132.80004882813
1236.11956136583	1140.19995117188
1236.78609850345	1139.80004882813
1237.45255033623	1134
1238.11891687182	1126.59997558594
1238.78519811788	1120.19995117188
1239.45139408205	1132.59997558594
1240.11750477198	1127.40002441406
1240.78353019534	1127.40002441406
1241.44947035976	1121.80004882813
1242.11532527291	1120.19995117188
1242.78109494242	1130.40002441406
1243.44677937595	1127.19995117188
1244.11237858115	1121.40002441406
1244.77789256567	1137
1245.44332133715	1127.80004882813
1246.10866490325	1128.59997558594
1246.7739232716	1122.80004882813
1247.43909644987	1126.80004882813
1248.10418444569	1120.40002441406
1248.76918726671	1121.80004882813
1249.43410492059	1121.59997558594
1250.09893741496	1119.59997558594
1250.76368475747	1116.40002441406
1251.42834695576	1117.59997558594
1252.09292401749	1118.80004882813
1252.75741595029	1124
1253.42182276182	1127.19995117188
1254.08614445971	1131.40002441406
1254.75038105161	1128.19995117188
1255.41453254515	1127.80004882813
1256.07859894799	1127.80004882813
1256.74258026777	1125.59997558594
1257.40647651213	1128
1258.0702876887	1124.80004882813
1258.73401380514	1115.40002441406
1259.39765486908	1115.80004882813
1260.06121088817	1121.80004882813
1260.72468187004	1115.19995117188
1261.38806782233	1119
1262.05136875269	1117.19995117188
1262.71458466875	1130
1263.37771557815	1130.19995117188
1264.04076148854	1127.80004882813
1264.70372240753	1124.19995117188
1265.3665983428	1124.19995117188
1266.02938930195	1109.80004882813
1266.69209529263	1120.59997558594
1267.35471632249	1127.40002441406
1268.01725239914	1116.19995117188
1268.67970353024	1113
1269.34206972342	1108
1270.00435098631	1109.80004882813
1270.66654732655	1111
1271.32865875177	1117.19995117188
1271.9906852696	1122
1272.65262688768	1129
1273.31448361365	1126.19995117188
1273.97625545514	1135.19995117188
1274.63794241978	1137.19995117188
1275.2995445152	1139.40002441406
1275.96106174903	1132
1276.62249412892	1133.80004882813
1277.28384166248	1136.40002441406
1277.94510435735	1140.59997558594
1278.60628222116	1132
1279.26737526155	1137.40002441406
1279.92838348613	1136
1280.58930690255	1131.80004882813
1281.25014551842	1136.19995117188
1281.91089934139	1129
1282.57156837907	1130
1283.2321526391	1128.40002441406
1283.89265212911	1125.59997558594
1284.55306685671	1129.80004882813
1285.21339682955	1131.59997558594
1285.87364205525	1132.19995117188
1286.53380254142	1137
1287.19387829571	1134.80004882813
1287.85386932573	1131.59997558594
1288.51377563911	1132
1289.17359724348	1132
1289.83333414646	1129.59997558594
1290.49298635567	1121.59997558594
1291.15255387874	1124.59997558594
1291.8120367233	1119.80004882813
1292.47143489696	1125
1293.13074840736	1127.40002441406
1293.7899772621	1118
1294.44912146882	1117.80004882813
1295.10818103513	1116.40002441406
1295.76715596866	1110.40002441406
1296.42604627704	1118.59997558594
1297.08485196787	1123.19995117188
1297.74357304878	1126.19995117188
1298.4022095274	1121.40002441406
1299.06076141134	1126
1299.71922870821	1128.19995117188
1300.37761142565	1138
1301.03590957126	1132.40002441406
1301.69412315268	1134
1302.3522521775	1123.80004882813
1303.01029665336	1126.19995117188
1303.66825658787	1129.59997558594
1304.32613198865	1131.40002441406
1304.98392286332	1127.59997558594
1305.64162921948	1134.40002441406
1306.29925106476	1140
1306.95678840677	1147.80004882813
1307.61424125312	1150.80004882813
1308.27160961145	1152.40002441406
1308.92889348934	1150.59997558594
1309.58609289443	1145.40002441406
1310.24320783432	1131.19995117188
1310.90023831664	1145.59997558594
1311.55718434898	1150
1312.21404593897	1148.59997558594
1312.87082309421	1149.40002441406
1313.52751582233	1146.19995117188
1314.18412413092	1146.19995117188
1314.84064802761	1148.59997558594
1315.49708752	1142
1316.1534426157	1150.40002441406
1316.80971332233	1138.40002441406
1317.46589964749	1144.59997558594
1318.1220015988	1141
1318.77801918386	1148.80004882813
1319.43395241028	1150.40002441406
1320.08980128567	1147.80004882813
1320.74556581764	1149.19995117188
1321.4012460138	1136
1322.05684188176	1141.40002441406
1322.71235342911	1143.19995117188
1323.36778066347	1145.40002441406
1324.02312359245	1132
1324.67838222365	1137.40002441406
1325.33355656468	1147.19995117188
1325.98864662314	1134.40002441406
1326.64365240663	1137.80004882813
1327.29857392277	1136.59997558594
1327.95341117915	1136
1328.60816418339	1144.80004882813
1329.26283294308	1134
1329.91741746582	1134.19995117188
1330.57191775923	1144.80004882813
1331.2263338309	1144
1331.88066568843	1141.80004882813
1332.53491333943	1144.59997558594
1333.1890767915	1147.80004882813
1333.84315605224	1144.80004882813
1334.49715112925	1143.59997558594
1335.15106203013	1137.80004882813
1335.80488876249	1142.19995117188
1336.45863133391	1137.40002441406
1337.112289752	1144.40002441406
1337.76586402437	1141.59997558594
1338.4193541586	1147.19995117188
1339.0727601623	1141.80004882813
1339.72608204306	1149
1340.37931980849	1145.80004882813
1341.03247346617	1145
1341.68554302372	1148.80004882813
1342.33852848871	1159
1342.99142986876	1148.80004882813
1343.64424717145	1153.19995117188
1344.29698040438	1157.19995117188
1344.94962957515	1158.80004882813
1345.60219469135	1155
1346.25467576058	1155.80004882813
1346.90707279042	1155.40002441406
1347.55938578848	1157.19995117188
1348.21161476235	1156.59997558594
1348.86375971962	1158.19995117188
1349.51582066787	1158.80004882813
1350.16779761472	1154.40002441406
1350.81969056774	1161.80004882813
1351.47149953453	1166.40002441406
1352.12322452269	1166.19995117188
1352.77486553979	1170.19995117188
1353.42642259344	1180.80004882813
1354.07789569122	1174
1354.72928484072	1167
1355.38059004953	1174.80004882813
1356.03181132525	1179.40002441406
1356.68294867545	1172.19995117188
1357.33400210773	1171.80004882813
1357.98497162968	1180
1358.63585724889	1186.19995117188
1359.28665897294	1188.19995117188
1359.93737680942	1188.19995117188
1360.58801076591	1184
1361.23856085001	1180.59997558594
1361.88902706929	1181.40002441406
1362.53940943135	1174.40002441406
1363.18970794377	1185
1363.83992261413	1187
1364.49005345003	1181.19995117188
1365.14010045904	1174.19995117188
1365.79006364874	1177
1366.43994302673	1175.80004882813
1367.08973860058	1175.59997558594
1367.73945037788	1160
1368.38907836621	1157.19995117188
1369.03862257315	1159
1369.68808300629	1152.59997558594
1370.3374596732	1146.19995117188
1370.98675258148	1146
1371.63596173868	1153.59997558594
1372.28508715241	1149.19995117188
1372.93412883024	1139.80004882813
1373.58308677974	1146.19995117188
1374.2319610085	1139.80004882813
1374.8807515241	1145.80004882813
1375.52945833412	1128
1376.17808144612	1132.59997558594
1376.82662086771	1138.19995117188
1377.47507660644	1132.19995117188
1378.12344866989	1131.40002441406
1378.77173706565	1128.80004882813
1379.41994180129	1128
1380.06806288439	1130
1380.71610032252	1129.59997558594
1381.36405412326	1124
1382.01192429419	1131.80004882813
1382.65971084287	1127.80004882813
1383.30741377688	1129
1383.95503310381	1123
1384.60256883121	1131.59997558594
1385.25002096667	1135.40002441406
1385.89738951775	1139.80004882813
1386.54467449204	1127.19995117188
1387.19187589709	1131.40002441406
1387.8389937405	1137.40002441406
1388.48602802982	1124
1389.13297877262	1132.19995117188
1389.77984597649	1135.40002441406
1390.42662964899	1133.19995117188
1391.07332979768	1125.40002441406
1391.71994643015	1117.40002441406
1392.36647955395	1123.59997558594
1393.01292917667	1122
1393.65929530586	1118.19995117188
1394.3055779491	1119.59997558594
1394.95177711395	1114.59997558594
1395.59789280799	1110.80004882813
1396.24392503877	1112.40002441406
1396.88987381387	1094.59997558594
1397.53573914086	1105.80004882813
1398.1815210273	1103
1398.82721948075	1101.19995117188
1399.47283450878	1097.59997558594
1400.11836611897	1098.59997558594
1400.76381431886	1106.59997558594
1401.40917911603	1110.40002441406
1402.05446051805	1111.19995117188
1402.69965853247	1109.40002441406
1403.34477316686	1106.59997558594
1403.98980442878	1100.80004882813
1404.6347523258	1101.19995117188
1405.27961686548	1107.59997558594
1405.92439805538	1107.80004882813
1406.56909590306	1103
1407.21371041608	1105.80004882813
1407.85824160202	1100.19995117188
1408.50268946841	1120.19995117188
1409.14705402284	1110.19995117188
1409.79133527285	1109.19995117188
1410.43553322601	1108
1411.07964788987	1112.19995117188
1411.723679272	1118.59997558594
1412.36762737996	1114.80004882813
1413.01149222129	1103
1413.65527380357	1110.59997558594
1414.29897213435	1108.80004882813
1414.94258722118	1107
1415.58611907163	1102
1416.22956769325	1108.19995117188
1416.87293309359	1116.59997558594
1417.51621528021	1122.19995117188
1418.15941426067	1114
1418.80253004253	1120.40002441406
1419.44556263333	1116.59997558594
1420.08851204063	1117.40002441406
1420.731378272	1117.59997558594
1421.37416133497	1116.59997558594
1422.0168612371	1123.19995117188
1422.65947798596	1116
1423.30201158908	1114.59997558594
1423.94446205403	1115
1424.58682938835	1122.80004882813
1425.2291135996	1117.40002441406
1425.87131469532	1116
1426.51343268308	1106.80004882813
1427.15546757042	1113.59997558594
1427.79741936488	1126.80004882813
1428.43928807403	1118.59997558594
1429.0810737054	1121
1429.72277626656	1114.19995117188
1430.36439576504	1118
1431.00593220841	1125.80004882813
1431.64738560419	1120.19995117188
1432.28875595995	1122.19995117188
1432.93004328324	1122.40002441406
1433.57124758159	1117.40002441406
1434.21236886255	1117.80004882813
1434.85340713368	1110.80004882813
1435.49436240252	1111.59997558594
1436.13523467661	1114.59997558594
1436.77602396349	1108.80004882813
1437.41673027073	1108.80004882813
1438.05735360585	1108.59997558594
1438.69789397641	1119
1439.33835138994	1108.59997558594
1439.978725854	1105.19995117188
1440.61901737612	1111
1441.25922596385	1114.19995117188
1441.89935162473	1108
1442.53939436631	1115.80004882813
1443.17935419612	1096.80004882813
1443.81923112171	1104.59997558594
1444.45902515061	1107.19995117188
1445.09873629038	1102.59997558594
1445.73836454854	1102.80004882813
1446.37790993265	1115.19995117188
1447.01737245024	1113.59997558594
1447.65675210885	1114.40002441406
1448.29604891602	1124
1448.93526287928	1130.19995117188
1449.57439400618	1127
1450.21344230426	1129
1450.85240778105	1115.19995117188
1451.49129044409	1120.40002441406
1452.13009030092	1126.80004882813
1452.76880735907	1122.59997558594
1453.40744162608	1126.80004882813
1454.04599310949	1118.19995117188
1454.68446181683	1116.59997558594
1455.32284775564	1116.80004882813
1455.96115093345	1117.40002441406
1456.5993713578	1115.19995117188
1457.23750903623	1108.19995117188
1457.87556397626	1110.80004882813
1458.51353618543	1109.80004882813
1459.15142567127	1122.59997558594
1459.78923244132	1114.40002441406
1460.42695650311	1121.40002441406
1461.06459786417	1123
1461.70215653203	1117
1462.33963251423	1118.19995117188
1462.97702581829	1110.80004882813
1463.61433645175	1118.40002441406
1464.25156442214	1104.59997558594
1464.88870973699	1108.19995117188
1465.52577240382	1118
1466.16275243017	1115
1466.79964982356	1115.19995117188
1467.43646459154	1115
1468.07319674161	1121.40002441406
1468.70984628132	1114.40002441406
1469.34641321818	1119.80004882813
1469.98289755974	1124.40002441406
1470.6192993135	1128
1471.25561848701	1127.59997558594
1471.89185508779	1115.59997558594
1472.52800912336	1114.80004882813
1473.16408060124	1112
1473.80006952897	1114.40002441406
1474.43597591407	1104.80004882813
1475.07179976406	1115.80004882813
1475.70754108647	1108.80004882813
1476.34319988883	1113.80004882813
1476.97877617865	1109.40002441406
1477.61426996345	1105.19995117188
1478.24968125077	1113.80004882813
1478.88501004812	1111.19995117188
1479.52025636303	1113.59997558594
1480.15542020302	1114.80004882813
1480.79050157561	1124
1481.42550048832	1115.80004882813
1482.06041694867	1122.80004882813
1482.69525096418	1113.80004882813
1483.33000254237	1110.19995117188
1483.96467169077	1107.19995117188
1484.59925841689	1112.19995117188
1485.23376272825	1113.59997558594
1485.86818463237	1114.59997558594
1486.50252413677	1110.40002441406
1487.13678124896	1116.59997558594
1487.77095597646	1115.59997558594
1488.4050483268	1115.19995117188
1489.03905830749	1124
1489.67298592604	1118.80004882813
1490.30683118996	1127
1490.9405941068	1126.80004882813
1491.57427468403	1134.80004882813
1492.2078729292	1122.19995117188
1492.84138884981	1125.40002441406
1493.47482245338	1123.80004882813
1494.10817374742	1124.19995117188
1494.74144273944	1123.19995117188
1495.37462943696	1119.59997558594
1496.0077338475	1123.19995117188
1496.64075597856	1116.59997558594
1497.27369583765	1118.80004882813
1497.9065534323	1116
1498.53932877001	1124.19995117188
1499.17202185829	1120.80004882813
1499.80463270465	1124
1500.43716131661	1121.40002441406
1501.06960770167	1129.80004882813
1501.70197186735	1127.40002441406
1502.33425382116	1127
1502.96645357059	1126
1503.59857112317	1135.19995117188
1504.23060648641	1131.19995117188
1504.8625596678	1137.40002441406
1505.49443067486	1134.40002441406
1506.1262195151	1138
1506.75792619602	1141
1507.38955072513	1142
1508.02109310993	1150.40002441406
1508.65255335794	1147.40002441406
1509.28393147666	1135.59997558594
1509.91522747359	1135.59997558594
1510.54644135624	1128.80004882813
1511.17757313212	1130.19995117188
1511.80862280872	1128.59997558594
1512.43959039356	1122
1513.07047589413	1122.80004882813
1513.70127931795	1114.80004882813
1514.33200067251	1124.40002441406
1514.96263996531	1123
1515.59319720386	1118
1516.22367239567	1114
1516.85406554822	1118.40002441406
1517.48437666903	1116.80004882813
1518.1146057656	1124.40002441406
1518.74475284542	1119.80004882813
1519.374817916	1118.40002441406
1520.00480098483	1119.40002441406
1520.63470205942	1119.40002441406
1521.26452114726	1116.59997558594
1521.89425825586	1118
1522.52391339271	1102.80004882813
1523.15348656531	1111.40002441406
1523.78297778116	1106.80004882813
1524.41238704775	1118.19995117188
1525.04171437259	1118.19995117188
1525.67095976317	1122.40002441406
1526.30012322699	1118
1526.92920477154	1115.59997558594
1527.55820440432	1120
1528.18712213283	1119.80004882813
1528.81595796455	1116.80004882813
1529.44471190699	1119.80004882813
1530.07338396764	1121.40002441406
1530.70197415399	1122.59997558594
1531.33048247353	1122.80004882813
1531.95890893377	1127.19995117188
1532.58725354219	1128.80004882813
1533.21551630629	1125.80004882813
1533.84369723356	1127.80004882813
1534.47179633148	1125.19995117188
1535.09981360757	1124.40002441406
1535.72774906929	1127.59997558594
1536.35560272415	1117.80004882813
1536.98337457963	1127.40002441406
1537.61106464323	1126.59997558594
1538.23867292243	1124.40002441406
1538.86619942473	1126.40002441406
1539.49364415762	1121.80004882813
1540.12100712857	1130.80004882813
1540.74828834509	1140
1541.37548781466	1132.40002441406
1542.00260554478	1126.19995117188
1542.62964154291	1115.19995117188
1543.25659581655	1118
1543.8834683732	1113.59997558594
1544.51025922034	1125
1545.13696836544	1119.19995117188
1545.76359581601	1116.80004882813
1546.39014157952	1129.40002441406
1547.01660566345	1121.40002441406
1547.64298807531	1118
1548.26928882255	1115.59997558594
1548.89550791269	1116.19995117188
1549.52164535318	1110.40002441406
1550.14770115153	1103
1550.77367531521	1108.59997558594
1551.39956785171	1106
1552.0253787685	1110.59997558594
1552.65110807307	1106
1553.2767557729	1113.19995117188
1553.90232187548	1108.80004882813
1554.52780638828	1108
1555.15320931879	1107.40002441406
1555.77853067447	1108.40002441406
1556.40377046282	1104.40002441406
1557.02892869132	1105
1557.65400536744	1110.59997558594
1558.27900049866	1107.59997558594
1558.90391409247	1116.80004882813
1559.52874615633	1114.19995117188
1560.15349669773	1113
1560.77816572414	1111.80004882813
1561.40275324305	1114.19995117188
1562.02725926192	1114.80004882813
1562.65168378824	1119.59997558594
1563.27602682948	1098.80004882813
1563.90028839311	1101.40002441406
1564.52446848662	1107.19995117188
1565.14856711748	1095.19995117188
1565.77258429316	1097.19995117188
1566.39652002113	1105.80004882813
1567.02037430887	1099.80004882813
1567.64414716387	1101.80004882813
1568.26783859357	1101.40002441406
1568.89144860547	1102
1569.51497720703	1090.80004882813
1570.13842440573	1097.80004882813
1570.76179020904	1100.59997558594
1571.38507462442	1096.19995117188
1572.00827765936	1105.40002441406
1572.63139932132	1100.40002441406
1573.25443961777	1100.19995117188
1573.87739855618	1114
1574.50027614402	1125.40002441406
1575.12307238877	1119.59997558594
1575.74578729789	1120
1576.36842087885	1125.40002441406
1576.99097313912	1115.19995117188
1577.61344408616	1122.80004882813
1578.23583372745	1116.59997558594
1578.85814207046	1115.19995117188
1579.48036912264	1116.59997558594
1580.10251489147	1105.19995117188
1580.72457938441	1107.19995117188
1581.34656260893	1114.40002441406
1581.9684645725	1113.40002441406
1582.59028528258	1106.40002441406
1583.21202474663	1103
1583.83368297212	1100.40002441406
1584.45525996652	1098.59997558594
1585.07675573728	1105.80004882813
1585.69817029188	1105.19995117188
1586.31950363778	1105.80004882813
1586.94075578243	1102.19995117188
1587.5619267333	1101.59997558594
1588.18301649786	1099.59997558594
1588.80402508357	1094.19995117188
1589.42495249788	1096.59997558594
1590.04579874826	1101.59997558594
1590.66656384217	1095
1591.28724778707	1099.59997558594
1591.90785059042	1100
1592.52837225968	1098
1593.14881280232	1092.19995117188
1593.76917222578	1100.19995117188
1594.38945053753	1102.59997558594
1595.00964774502	1095.59997558594
1595.62976385573	1093.19995117188
1596.24979887709	1093.59997558594
1596.86975281657	1102.59997558594
1597.48962568164	1097
1598.10941747974	1098.59997558594
1598.72912821832	1097.80004882813
1599.34875790486	1102.80004882813
1599.9683065468	1102.40002441406
1600.58777415159	1099.19995117188
1601.2071607267	1107.80004882813
1601.82646627958	1102.80004882813
1602.44569081769	1090
1603.06483434846	1094
1603.68389687937	1088.59997558594
1604.30287841786	1086
1604.92177897139	1084.80004882813
1605.54059854741	1077.80004882813
1606.15933715337	1086
1606.77799479672	1083.19995117188
1607.39657148492	1084.19995117188
1608.01506722542	1091.40002441406
1608.63348202566	1089
1609.2518158931	1091
1609.87006883519	1083.59997558594
1610.48824085939	1089.19995117188
1611.10633197312	1085.80004882813
1611.72434218386	1098.59997558594
1612.34227149904	1077.80004882813
1612.96011992612	1082.59997558594
1613.57788747254	1073
1614.19557414575	1075.40002441406
1614.8131799532	1070.19995117188
1615.43070490234	1075.40002441406
1616.04814900061	1068.40002441406
1616.66551225545	1073
1617.28279467433	1069.59997558594
1617.89999626467	1065.40002441406
1618.51711703393	1065.80004882813
1619.13415698955	1070.19995117188
1619.75111613898	1069
1620.36799448966	1073
1620.98479204903	1079.59997558594
1621.60150882455	1067.80004882813
1622.21814482364	1065.40002441406
1622.83470005376	1066.59997558594
1623.45117452235	1064
1624.06756823685	1072.80004882813
1624.6838812047	1076.59997558594
1625.30011343335	1068.19995117188
1625.91626493022	1070.40002441406
1626.53233570278	1076.59997558594
1627.14832575845	1066.19995117188
1627.76423510468	1065.19995117188
1628.38006374891	1071.19995117188
1628.99581169857	1065.19995117188
1629.61147896111	1069.80004882813
1630.22706554397	1066.19995117188
1630.84257145457	1065.59997558594
1631.45799670038	1068
1632.07334128881	1066.19995117188
1632.6886052273	1060.80004882813
1633.3037885233	1071.80004882813
1633.91889118425	1072.40002441406
1634.53391321757	1072.80004882813
1635.1488546307	1079.40002441406
1635.76371543108	1073.40002441406
1636.37849562616	1078.40002441406
1636.99319522335	1081.59997558594
1637.60781423009	1074.19995117188
1638.22235265383	1076.80004882813
1638.83681050198	1091.59997558594
1639.451187782	1081.40002441406
1640.0654845013	1083.19995117188
1640.67970066734	1082.80004882813
1641.29383628752	1077.59997558594
1641.9078913693	1081.40002441406
1642.5218659201	1080.40002441406
1643.13575994735	1079.59997558594
1643.74957345849	1080.59997558594
1644.36330646094	1082.19995117188
1644.97695896213	1089.80004882813
1645.59053096951	1088
1646.20402249049	1097.19995117188
1646.8174335325	1097
1647.43076410298	1105
1648.04401420935	1106.59997558594
1648.65718385905	1100.40002441406
1649.2702730595	1111.40002441406
1649.88328181812	1100.59997558594
1650.49621014236	1106.59997558594
1651.10905803963	1102.80004882813
1651.72182551735	1103.80004882813
1652.33451258297	1106.40002441406
1652.9471192439	1100.19995117188
1653.55964550757	1092.19995117188
1654.1720913814	1083.80004882813
1654.78445687283	1083.80004882813
1655.39674198926	1077.19995117188
1656.00894673814	1087.59997558594
1656.62107112688	1080.80004882813
1657.23311516291	1078.40002441406
1657.84507885365	1074.40002441406
1658.45696220652	1074.59997558594
1659.06876522895	1071.19995117188
1659.68048792835	1068.19995117188
1660.29213031217	1061.40002441406
1660.90369238779	1061.59997558594
1661.51517416267	1056.80004882813
1662.12657564421	1053
1662.73789683984	1053.40002441406
1663.34913775697	1048.80004882813
1663.96029840303	1045
1664.57137878544	1048.59997558594
1665.18237891161	1053.59997558594
1665.79329878897	1055
1666.40413842493	1050.40002441406
1667.01489782691	1045.59997558594
1667.62557700233	1044.59997558594
1668.2361759586	1038.80004882813
1668.84669470315	1033.59997558594
1669.4571332434	1035.80004882813
1670.06749158675	1032
1670.67776974062	1025.19995117188
1671.28796771243	1034.59997558594
1671.8980855096	1031.19995117188
1672.50812313954	1031.19995117188
1673.11808060967	1033.80004882813
1673.72795792739	1031
1674.33775510013	1028.19995117188
1674.9474721353	1039
1675.55710904031	1041.19995117188
1676.16666582257	1038
1676.7761424895	1035.40002441406
1677.38553904851	1038.59997558594
1677.99485550702	1045.59997558594
1678.60409187243	1039.19995117188
1679.21324815215	1031.40002441406
1679.8223243536	1035.19995117188
1680.43132048419	1023.59997558594
1681.04023655132	1025
1681.64907256241	1025.40002441406
1682.25782852487	1028
1682.86650444611	1029.40002441406
1683.47510033353	1033.59997558594
1684.08361619455	1032
1684.69205203657	1034.19995117188
1685.300407867	1036.40002441406
1685.90868369325	1032.19995117188
1686.51687952272	1028.40002441406
1687.12499536283	1025.19995117188
1687.73303122098	1024.59997558594
1688.34098710457	1019
1688.94886302101	1027.59997558594
1689.55665897772	1016.59997558594
1690.16437498208	1019.59997558594
1690.77201104152	1026.19995117188
1691.37956716342	1022.20001220703
1691.9870433552	1025
1692.59443962426	1025.40002441406
1693.20175597801	1027.19995117188
1693.80899242384	1032.40002441406
1694.41614896916	1025.40002441406
1695.02322562138	1019.79998779297
1695.63022238789	1028.19995117188
1696.23713927609	1027.80004882813
1696.8439762934	1021.20001220703
1697.4507334472	1017.40002441406
1698.05741074491	1018.59997558594
1698.66400819391	1020.40002441406
1699.27052580161	1018
1699.87696357542	1014.20001220703
1700.48332152272	1015.40002441406
1701.08959965092	1011.20001220703
1701.69579796742	1009.79998779297
1702.30191647962	1012.20001220703
1702.90795519491	1009.40002441406
1703.51391412069	1012
1704.11979326437	1009.20001220703
1704.72559263332	1009.20001220703
1705.33131223496	1016.20001220703
1705.93695207668	1010
1706.54251216588	1007.79998779297
1707.14799250994	1005.40002441406
1707.75339311628	1005.20001220703
1708.35871399227	1000.59997558594
1708.96395514532	1003.40002441406
1709.56911658282	999.200012207031
