634.948122577771	1282
635.690341530823	1282.19995117188
636.43246851086	1289.59997558594
637.174503525845	1300.19995117188
637.916446583745	1291
638.658297692538	1294.59997558594
639.400056860179	1307.80004882813
640.141724094637	1303.40002441406
640.883299403885	1314
641.62478279588	1317.59997558594
642.366174278594	1306.19995117188
643.107473859989	1305
643.848681548029	1311.19995117188
644.589797350679	1297.80004882813
645.330821275901	1303.19995117188
646.071753331665	1287.80004882813
646.812593525922	1288.40002441406
647.553341866646	1286.40002441406
648.293998361798	1290
649.03456301933	1289.40002441406
649.775035847216	1292.40002441406
650.515416853409	1290.40002441406
651.255706045874	1300.59997558594
651.995903432568	1294.59997558594
652.736009021453	1305.19995117188
653.476022820486	1310.80004882813
654.215944837629	1295.59997558594
654.955775080842	1293.40002441406
655.695513558081	1288
656.435160277301	1294.59997558594
657.174715246465	1290
657.914178473527	1297
658.653549966449	1305.40002441406
659.392829733176	1309.40002441406
660.132017781678	1307.19995117188
660.871114119901	1308.40002441406
661.610118755803	1317.40002441406
662.349031697343	1310.59997558594
663.087852952468	1316
663.826582529139	1322.80004882813
664.565220435305	1322.40002441406
665.30376667892	1332.80004882813
666.04222126794	1333.19995117188
666.780584210316	1323.59997558594
667.518855514	1317.40002441406
668.25703518694	1309.19995117188
668.995123237096	1307.40002441406
669.733119672413	1308
670.471024500842	1316
671.208837730333	1310
671.946559368839	1313.40002441406
672.684189424308	1324.80004882813
673.421727904689	1323.59997558594
674.159174817929	1304.19995117188
674.896530171977	1333.19995117188
675.633793974786	1327.40002441406
676.370966234295	1316.59997558594
677.108046958461	1309.40002441406
677.845036155219	1329.59997558594
678.581933832528	1318.59997558594
679.318739998323	1326.59997558594
680.055454660558	1338.59997558594
680.792077827172	1339.59997558594
681.528609506116	1351.19995117188
682.265049705331	1336.59997558594
683.001398432759	1331.59997558594
683.737655696349	1337.59997558594
684.47382150404	1334.40002441406
685.20989586378	1341.59997558594
685.945878783503	1341.40002441406
686.68177027116	1350.40002441406
687.417570334688	1354
688.153278982032	1342.59997558594
688.888896221129	1348
689.624422059921	1346.40002441406
690.359856506349	1343.19995117188
691.095199568354	1352.40002441406
691.830451253874	1340
692.565611570844	1357.80004882813
693.300680527212	1352
694.03565813091	1351.40002441406
694.770544389877	1340.40002441406
695.505339312053	1328.59997558594
696.240042905372	1320.59997558594
696.974655177772	1310.19995117188
697.70917613719	1311.40002441406
698.443605791561	1306.19995117188
699.177944148826	1312.59997558594
699.912191216909	1305.19995117188
700.646347003755	1310.59997558594
701.380411517295	1313.59997558594
702.114384765465	1319.80004882813
702.848266756195	1306.40002441406
703.582057497421	1307.80004882813
704.315756997074	1315.40002441406
705.049365263089	1315.80004882813
705.782882303399	1316.19995117188
706.516308125936	1316.40002441406
707.249642738626	1321
707.982886149403	1324.59997558594
708.716038366204	1324.80004882813
709.449099396949	1318.59997558594
710.182069249577	1313.59997558594
710.914947932009	1322.80004882813
711.647735452181	1323
712.380431818022	1318.19995117188
713.113037037454	1316.59997558594
713.845551118411	1311.40002441406
714.577974068818	1325.19995117188
715.310305896604	1333
716.042546609694	1317.40002441406
716.774696216013	1325.19995117188
717.506754723493	1327.40002441406
718.238722140053	1327.80004882813
718.970598473624	1318.19995117188
719.702383732127	1329.80004882813
720.43407792349	1311.19995117188
721.165681055634	1311.80004882813
721.897193136486	1311.40002441406
722.628614173966	1310.19995117188
723.359944175997	1312.80004882813
724.091183150505	1336.40002441406
724.822331105412	1315.59997558594
725.553388048638	1313.40002441406
726.284353988106	1314.59997558594
727.015228931734	1307.19995117188
727.746012887449	1307
728.476705863162	1299.59997558594
729.207307866803	1307.59997558594
729.937818906289	1319.40002441406
730.668238989535	1318
731.398568124459	1317
732.128806318986	1317.59997558594
732.858953581034	1310.80004882813
733.589009918514	1314.19995117188
734.318975339348	1328
735.048849851452	1326.59997558594
735.778633462744	1329.19995117188
736.508326181137	1318.19995117188
737.237928014549	1328.59997558594
737.967438970897	1326.80004882813
738.696859058095	1343
739.426188284054	1346.80004882813
740.155426656692	1344.80004882813
740.884574183922	1350.40002441406
741.613630873659	1351.19995117188
742.342596733815	1352.59997558594
743.071471772302	1348.80004882813
743.800255997034	1338.40002441406
744.528949415921	1335.59997558594
745.257552036877	1326.40002441406
745.986063867811	1331.19995117188
746.714484916638	1338.19995117188
747.442815191261	1327.80004882813
748.171054699597	1338.40002441406
748.899203449554	1334.40002441406
749.627261449039	1330.59997558594
750.355228705966	1332.19995117188
751.083105228239	1339
751.810891023765	1336.59997558594
752.538586100459	1333.19995117188
753.266190466218	1335.59997558594
753.99370412896	1333.19995117188
754.721127096582	1335.59997558594
755.448459377	1330.40002441406
756.175700978114	1330.59997558594
756.902851907828	1332.59997558594
757.629912174055	1334.19995117188
758.356881784688	1332.40002441406
759.083760747639	1338
759.810549070817	1341.19995117188
760.537246762113	1337
761.263853829442	1336.40002441406
761.990370280698	1338.80004882813
762.716796123791	1349.19995117188
763.443131366618	1351
764.169376017082	1352
764.895530083085	1352.19995117188
765.621593572527	1351.19995117188
766.347566493312	1355.40002441406
767.073448853336	1371
767.799240660502	1362.80004882813
768.524941922707	1370.80004882813
769.250552647854	1368.59997558594
769.976072843836	1384
770.701502518551	1395.80004882813
771.426841679905	1404.19995117188
772.152090335793	1405.80004882813
772.877248494107	1412.59997558594
773.602316162747	1402.59997558594
774.327293349609	1400.59997558594
775.052180062592	1401
775.776976309589	1389.59997558594
776.501682098496	1394
777.226297437206	1378
777.950822333616	1378.19995117188
778.675256795621	1383
779.399600831111	1383.59997558594
780.123854447983	1366.40002441406
780.84801765413	1371.19995117188
781.572090457441	1367
782.296072865811	1355.19995117188
783.019964887131	1357.80004882813
783.743766529297	1359.80004882813
784.467477800194	1360.59997558594
785.191098707719	1355.19995117188
785.914629259756	1355.59997558594
786.638069464194	1355.59997558594
787.361419328932	1353.80004882813
788.084678861852	1365
788.807848070845	1369.80004882813
789.530926963798	1349.19995117188
790.253915548602	1345.19995117188
790.976813833144	1345.80004882813
791.699621825307	1337.19995117188
792.422339532986	1357.19995117188
793.144966964061	1357
793.86750412642	1366.80004882813
794.589951027946	1365.59997558594
795.312307676536	1350.59997558594
796.03457408006	1361.19995117188
796.756750246417	1348.40002441406
797.478836183477	1342.19995117188
798.200831899137	1337.59997558594
798.92273740127	1336.80004882813
799.644552697769	1330.80004882813
800.36627779651	1340.19995117188
801.087912705374	1343.40002441406
801.809457432251	1343.19995117188
802.530911985017	1331.40002441406
803.252276371558	1330.40002441406
803.973550599748	1326.80004882813
804.694734677472	1328
805.415828612611	1325.19995117188
806.136832413045	1315.80004882813
806.857746086646	1339
807.578569641305	1336
808.299303084892	1338.59997558594
809.019946425289	1339
809.740499670372	1336
810.460962828022	1349
811.181335906114	1338.59997558594
811.901618912524	1329.59997558594
812.621811855131	1332.19995117188
813.341914741809	1336.80004882813
814.061927580433	1338
814.781850378881	1328
815.501683145025	1318.19995117188
816.221425886743	1321.19995117188
816.941078611903	1321.40002441406
817.660641328387	1329.40002441406
818.380114044065	1339
819.099496766808	1328.19995117188
819.818789504492	1320.40002441406
820.53799226499	1330.59997558594
821.257105056168	1336
821.976127885904	1333.19995117188
822.695060762064	1331
823.413903692525	1334.80004882813
824.132656685151	1341.40002441406
824.851319747817	1336.80004882813
825.569892888388	1331.40002441406
826.288376114739	1330
827.006769434737	1345.19995117188
827.725072856249	1342
828.443286387142	1336
829.161410035285	1331.19995117188
829.87944380855	1349
830.597387714798	1334
831.315241761898	1335
832.033005957715	1345
832.750680310119	1336.19995117188
833.468264826969	1339.80004882813
834.18575951614	1338.59997558594
834.903164385486	1327.80004882813
835.620479442878	1328.19995117188
836.337704696181	1316.40002441406
837.054840153255	1315.19995117188
837.771885821962	1311.80004882813
838.488841710172	1308.80004882813
839.20570782574	1316.59997558594
839.922484176531	1333.80004882813
840.639170770409	1323.59997558594
841.355767615231	1333.80004882813
842.072274718864	1338.19995117188
842.788692089164	1337
843.505019733993	1339.40002441406
844.221257661209	1325.80004882813
844.937405878676	1318
845.65346439425	1323.19995117188
846.369433215789	1321.19995117188
847.085312351156	1333
847.801101808205	1331.80004882813
848.516801594793	1325.19995117188
849.232411718781	1326
849.947932188021	1328
850.663363010376	1324.59997558594
851.378704193698	1325.40002441406
852.093955745842	1322.59997558594
852.809117674669	1324
853.524189988028	1332.80004882813
854.239172693778	1332.80004882813
854.954065799768	1331
855.668869313857	1327.80004882813
856.383583243899	1324
857.098207597743	1322.80004882813
857.812742383246	1318.59997558594
858.527187608255	1324.59997558594
859.241543280628	1322.40002441406
859.955809408218	1329
860.669985998868	1333.59997558594
861.384073060437	1344.59997558594
862.098070600772	1329.19995117188
862.811978627724	1343.40002441406
863.52579714914	1329.40002441406
864.239526172873	1323.80004882813
864.953165706776	1327.40002441406
865.666715758687	1333
866.380176336464	1335.40002441406
867.093547447951	1339
867.806829100996	1328.40002441406
868.520021303444	1329.40002441406
869.233124063149	1325.80004882813
869.94613738795	1316.19995117188
870.659061285693	1331.80004882813
871.37189576423	1330.19995117188
872.084640831403	1317.19995117188
872.797296495057	1320.19995117188
873.509862763039	1323.59997558594
874.22233964319	1314.59997558594
874.934727143353	1319
875.647025271374	1311.40002441406
876.359234035097	1317.80004882813
877.071353442361	1322.40002441406
877.783383501015	1320.80004882813
878.495324218895	1327.59997558594
879.207175603844	1334.80004882813
879.918937663705	1331
880.630610406318	1339
881.342193839524	1319.40002441406
882.053687971161	1327.40002441406
882.765092809069	1321.19995117188
883.476408361091	1307.59997558594
884.187634635066	1305.59997558594
884.898771638828	1319.59997558594
885.609819380221	1307.80004882813
886.320777867076	1313.80004882813
887.031647107236	1316.40002441406
887.742427108536	1306.40002441406
888.453117878816	1315.40002441406
889.16371942591	1308.40002441406
889.874231757652	1309.19995117188
890.584654881883	1331.59997558594
891.294988806434	1325
892.005233539141	1330
892.715389087837	1327.59997558594
893.42545546036	1345.80004882813
894.135432664543	1341.59997558594
894.845320708216	1341.40002441406
895.555119599216	1328
896.264829345375	1328.59997558594
896.974449954526	1325.59997558594
897.683981434496	1336.59997558594
898.393423793125	1322.40002441406
899.102777038235	1319.59997558594
899.812041177664	1328.59997558594
900.521216219239	1320.80004882813
901.230302170793	1322.59997558594
901.939299040155	1321.19995117188
902.64820683515	1340.59997558594
903.357025563612	1324.40002441406
904.065755233368	1332.80004882813
904.774395852247	1342.40002441406
905.482947428076	1328.80004882813
906.191409968682	1328.80004882813
906.899783481897	1324.19995117188
907.608067975538	1335.40002441406
908.316263457443	1332.40002441406
909.02436993543	1328.19995117188
909.732387417327	1320.59997558594
910.440315910959	1324.80004882813
911.148155424154	1320.59997558594
911.855905964731	1326
912.563567540521	1331.59997558594
913.271140159339	1335.59997558594
913.978623829017	1326
914.686018557374	1319
915.393324352237	1324.40002441406
916.100541221421	1332.19995117188
916.807669172752	1332.59997558594
917.514708214054	1334.59997558594
918.221658353142	1328
918.928519597843	1317.40002441406
919.635291955976	1319.59997558594
920.341975435358	1315.80004882813
921.048570043813	1317.19995117188
921.75507578916	1327.59997558594
922.461492679212	1328.19995117188
923.167820721795	1323.19995117188
923.874059924726	1326.59997558594
924.58021029582	1329.40002441406
925.286271842893	1318.19995117188
925.992244573769	1315.59997558594
926.698128496262	1320.59997558594
927.403923618184	1324.80004882813
928.109629947355	1315.80004882813
928.815247491593	1322.19995117188
929.520776258708	1315
930.226216256519	1316
930.931567492841	1330.59997558594
931.636829975482	1321.40002441406
932.342003712263	1317.59997558594
933.047088710995	1340.40002441406
933.752084979491	1333.40002441406
934.456992525564	1329.40002441406
935.161811357024	1323.40002441406
935.866541481688	1338.40002441406
936.571182907363	1320.40002441406
937.275735641861	1318.59997558594
937.980199692995	1323.80004882813
938.684575068572	1326.59997558594
939.388861776411	1326.40002441406
940.093059824311	1334.19995117188
940.797169220085	1342.40002441406
941.501189971544	1341
942.205122086495	1350
942.908965572751	1337.19995117188
943.612720438111	1341
944.316386690391	1331.19995117188
945.019964337391	1342.19995117188
945.723453386924	1328.59997558594
946.426853846795	1334.40002441406
947.130165724808	1319.19995117188
947.83338902877	1320.59997558594
948.536523766488	1314.59997558594
949.239569945764	1321.80004882813
949.942527574402	1317.19995117188
950.64539666021	1322.59997558594
951.348177210993	1318.80004882813
952.050869234548	1325.59997558594
952.753472738683	1312
953.455987731199	1319.59997558594
954.158414219898	1311.59997558594
954.860752212587	1315
955.563001717061	1312
956.265162741124	1320.59997558594
956.967235292576	1322.59997558594
957.669219379224	1327.40002441406
958.371115008857	1322.80004882813
959.072922189283	1319.40002441406
959.774640928301	1317
960.476271233708	1319.59997558594
961.177813113301	1309.80004882813
961.879266574882	1311.80004882813
962.580631626248	1311
963.281908275194	1323.19995117188
963.98309652952	1315.19995117188
964.684196397022	1319.19995117188
965.3852078855	1312.19995117188
966.086131002745	1318.80004882813
966.786965756555	1319.40002441406
967.487712154726	1311
968.188370205055	1315.40002441406
968.888939915331	1321.40002441406
969.589421293352	1322.59997558594
970.289814346909	1321.80004882813
970.990119083801	1330.19995117188
971.690335511819	1325.40002441406
972.39046363875	1328.19995117188
973.090503472398	1340.40002441406
973.790455020545	1322.80004882813
974.490318290987	1331.80004882813
975.190093291516	1323.19995117188
975.889780029923	1327.40002441406
976.589378513998	1321.19995117188
977.288888751527	1305.40002441406
977.988310750308	1314.19995117188
978.687644518122	1318
979.386890062767	1320.40002441406
980.086047392025	1311.80004882813
980.785116513689	1304
981.484097435542	1323.19995117188
982.182990165377	1329.80004882813
982.88179471098	1328.40002441406
983.580511080137	1329
984.279139280632	1332
984.977679320253	1329
985.67613120679	1323
986.374494948027	1324
987.072770551745	1320.19995117188
987.770958025731	1317.59997558594
988.469057377772	1315
989.167068615649	1312.59997558594
989.864991747145	1323.19995117188
990.562826780047	1314.59997558594
991.260573722134	1310.19995117188
991.958232581195	1313.19995117188
992.655803365003	1305.80004882813
993.353286081346	1316.40002441406
994.050680738006	1317.80004882813
994.74798734276	1308.80004882813
995.44520590339	1294
996.142336427681	1306.80004882813
996.839378923407	1304
997.536333398348	1309
998.233199860289	1304.40002441406
998.929978317004	1300.40002441406
999.626668776274	1298.19995117188
1000.32327124587	1300.19995117188
1001.01978573359	1301.80004882813
1001.71621224718	1302.59997558594
1002.41255079445	1294.59997558594
1003.10880138315	1291.19995117188
1003.80496402107	1308.40002441406
1004.50103871599	1296.40002441406
1005.19702547567	1318.80004882813
1005.8929243079	1299.19995117188
1006.58873522045	1293.40002441406
1007.2844582211	1300
1007.98009331761	1297.80004882813
1008.67564051776	1297
1009.37109982933	1302
1010.06647126009	1326
1010.7617548178	1307.19995117188
1011.45695051026	1321.19995117188
1012.15205834522	1315.19995117188
1012.84707833045	1308.40002441406
1013.54201047373	1311.59997558594
1014.23685478284	1309.59997558594
1014.93161126553	1320.80004882813
1015.62627992959	1312.80004882813
1016.32086078277	1301.19995117188
1017.01535383285	1313.80004882813
1017.70975908761	1313.40002441406
1018.40407655479	1328.40002441406
1019.09830624219	1314.19995117188
1019.79244815755	1302.80004882813
1020.48650230866	1298
1021.18046870328	1308.19995117188
1021.87434734917	1299
1022.56813825411	1308.40002441406
1023.26184142584	1296.19995117188
1023.95545687216	1309.59997558594
1024.64898460082	1303.80004882813
1025.34242461957	1309.19995117188
1026.0357769362	1309
1026.72904155846	1302.59997558594
1027.42221849412	1308
1028.11530775094	1299.19995117188
1028.80830933668	1298
1029.50122325911	1299.80004882813
1030.19404952599	1302.80004882813
1030.88678814508	1306
1031.57943912414	1298.59997558594
1032.27200247093	1301.19995117188
1032.96447819323	1293.40002441406
1033.65686629878	1289.40002441406
1034.34916679534	1282.40002441406
1035.04137969068	1298.59997558594
1035.73350499256	1292.59997558594
1036.42554270874	1291.19995117188
1037.11749284697	1299.19995117188
1037.80935541501	1302.59997558594
1038.50113042062	1298.80004882813
1039.19281787156	1294.19995117188
1039.88441777559	1303.19995117188
1040.57593014046	1309.19995117188
1041.26735497393	1298.59997558594
1041.95869228376	1306.19995117188
1042.6499420777	1299.59997558594
1043.3411043635	1295.80004882813
1044.03217914893	1296.19995117188
1044.72316644174	1288.59997558594
1045.41406624968	1294.19995117188
1046.1048785805	1285.19995117188
1046.79560344197	1283.59997558594
1047.48624084182	1277.59997558594
1048.17679078783	1271.80004882813
1048.86725328774	1281.19995117188
1049.55762834929	1284
1050.24791598025	1286
1050.93811618837	1292.19995117188
1051.62822898139	1290.80004882813
1052.31825436707	1296.40002441406
1053.00819235315	1289.80004882813
1053.6980429474	1291.40002441406
1054.38780615755	1289.80004882813
1055.07748199136	1283.40002441406
1055.76707045658	1288.40002441406
1056.45657156095	1292
1057.14598531222	1287.80004882813
1057.83531171814	1288.59997558594
1058.52455078646	1301.40002441406
1059.21370252494	1295
1059.90276694129	1297
1060.5917440433	1293.40002441406
1061.28063383868	1287.40002441406
1061.9694363352	1291.19995117188
1062.65815154059	1285.80004882813
1063.34677946261	1286.80004882813
1064.03532010899	1278.59997558594
1064.72377348748	1279.80004882813
1065.41213960583	1285
1066.10041847177	1288.40002441406
1066.78861009306	1283.80004882813
1067.47671447743	1299.40002441406
1068.16473163263	1293
1068.85266156639	1281.40002441406
1069.54050428647	1288.40002441406
1070.2282598006	1288.80004882813
1070.91592811652	1268.59997558594
1071.60350924198	1270.80004882813
1072.29100318471	1264.19995117188
1072.97840995245	1272.80004882813
1073.66572955295	1269
1074.35296199394	1278.59997558594
1075.04010728316	1283.40002441406
1075.72716542836	1283.19995117188
1076.41413643726	1289.19995117188
1077.10102031761	1285
1077.78781707715	1282.59997558594
1078.4745267236	1291.80004882813
1079.16114926471	1277.19995117188
1079.84768470822	1290.59997558594
1080.53413306185	1285.19995117188
1081.22049433336	1280.80004882813
1081.90676853046	1281.59997558594
1082.5929556609	1279.40002441406
1083.27905573241	1278.19995117188
1083.96506875272	1278.80004882813
1084.65099472957	1276.59997558594
1085.3368336707	1269.80004882813
1086.02258558383	1273
1086.70825047669	1287.19995117188
1087.39382835703	1287
1088.07931923257	1282
1088.76472311104	1277.59997558594
1089.45004000018	1278.80004882813
1090.13526990771	1287
1090.82041284137	1287.80004882813
1091.50546880889	1276.80004882813
1092.19043781799	1287.19995117188
1092.87531987642	1294.59997558594
1093.56011499188	1285.19995117188
1094.24482317212	1289.59997558594
1094.92944442486	1287.80004882813
1095.61397875783	1274.59997558594
1096.29842617876	1269.19995117188
1096.98278669537	1273
1097.6670603154	1279.40002441406
1098.35124704656	1278.40002441406
1099.03534689659	1287.59997558594
1099.71935987322	1292.19995117188
1100.40328598416	1287.59997558594
1101.08712523713	1286
1101.77087763988	1275.19995117188
1102.45454320012	1275.40002441406
1103.13812192557	1288.59997558594
1103.82161382396	1291.59997558594
1104.50501890301	1292.19995117188
1105.18833717045	1291.40002441406
1105.87156863399	1283.59997558594
1106.55471330137	1287.59997558594
1107.2377711803	1281.59997558594
1107.9207422785	1280
1108.60362660369	1272.80004882813
1109.2864241636	1275.40002441406
1109.96913496594	1263
1110.65175901844	1267.80004882813
1111.33429632882	1270.19995117188
1112.01674690479	1279.19995117188
1112.69911075408	1278
1113.38138788439	1288.59997558594
1114.06357830346	1280.40002441406
1114.745682019	1286.59997558594
1115.42769903872	1290.19995117188
1116.10962937035	1286.80004882813
1116.7914730216	1290.19995117188
1117.47323000018	1279.19995117188
1118.15490031382	1279.80004882813
1118.83648397022	1280.19995117188
1119.51798097712	1277
1120.1993913422	1281.80004882813
1120.88071507321	1285.80004882813
1121.56195217784	1284.80004882813
1122.24310266381	1285.80004882813
1122.92416653884	1287.40002441406
1123.60514381064	1289.40002441406
1124.28603448692	1290.19995117188
1124.9668385754	1292.59997558594
1125.64755608378	1296.80004882813
1126.32818701978	1295
1127.00873139111	1286.40002441406
1127.68918920548	1284.80004882813
1128.3695604706	1285.40002441406
1129.04984519419	1285.80004882813
1129.73004338394	1279
1130.41015504758	1288
1131.09018019281	1282
1131.77011882734	1280.59997558594
1132.44997095888	1280.19995117188
1133.12973659514	1274.80004882813
1133.80941574381	1273.59997558594
1134.48900841263	1285.19995117188
1135.16851460927	1286
1135.84793434147	1289.40002441406
1136.52726761692	1286
1137.20651444333	1281.80004882813
1137.8856748284	1276.80004882813
1138.56474877984	1286
1139.24373630536	1283.40002441406
1139.92263741265	1287
1140.60145210943	1289
1141.28018040339	1287
1141.95882230225	1271.80004882813
1142.6373778137	1267
1143.31584694545	1269.19995117188
1143.99422970519	1254.80004882813
1144.67252610064	1260
1145.35073613949	1260.19995117188
1146.02885982944	1264.59997558594
1146.7068971782	1266
1147.38484819347	1270
1148.06271288294	1271
1148.74049125432	1276.40002441406
1149.41818331531	1277
1150.0957890736	1277.80004882813
1150.77330853689	1276.80004882813
1151.45074171289	1276.59997558594
1152.12808860928	1263.40002441406
1152.80534923378	1265.80004882813
1153.48252359407	1270.40002441406
1154.15961169786	1264.40002441406
1154.83661355283	1266.19995117188
1155.51352916669	1265.19995117188
1156.19035854713	1270.40002441406
1156.86710170185	1259.40002441406
1157.54375863855	1259.40002441406
1158.22032936491	1267.80004882813
1158.89681388863	1276.59997558594
1159.57321221741	1279
1160.24952435894	1278.59997558594
1160.92575032092	1270.80004882813
1161.60189011103	1271.40002441406
1162.27794373697	1279.40002441406
1162.95391120644	1267.59997558594
1163.62979252712	1265.59997558594
1164.3055877067	1269.59997558594
1164.98129675288	1268.59997558594
1165.65691967336	1271.40002441406
1166.33245647581	1287.40002441406
1167.00790716792	1284
1167.6832717574	1284.59997558594
1168.35855025193	1286.80004882813
1169.0337426592	1289
1169.70884898689	1278.59997558594
1170.3838692427	1269.40002441406
1171.05880343431	1275.40002441406
1171.73365156941	1265
1172.40841365569	1274.80004882813
1173.08308970083	1269.19995117188
1173.75767971253	1270.59997558594
1174.43218369847	1277.40002441406
1175.10660166633	1281.80004882813
1175.7809336238	1265.80004882813
1176.45517957857	1262.59997558594
1177.12933953832	1266.40002441406
1177.80341351073	1264.59997558594
1178.47740150349	1264
1179.15130352429	1272.59997558594
1179.8251195808	1271.80004882813
1180.49884968071	1280.40002441406
1181.1724938317	1295.40002441406
1181.84605204145	1287
1182.51952431766	1293.19995117188
1183.19291066799	1287
1183.86621110013	1291.40002441406
1184.53942562176	1291.19995117188
1185.21255424057	1281.40002441406
1185.88559696422	1284.40002441406
1186.55855380041	1298
1187.2314247568	1299.59997558594
1187.90420984109	1303.59997558594
1188.57690906095	1289.40002441406
1189.24952242405	1294.80004882813
1189.92204993808	1283.59997558594
1190.59449161071	1291.19995117188
1191.26684744962	1290.59997558594
1191.93911746249	1295
1192.61130165699	1294
1193.28340004081	1291.80004882813
1193.95541262161	1286.40002441406
1194.62733940707	1284.59997558594
1195.29918040487	1279
1195.97093562269	1272
1196.64260506819	1269.19995117188
1197.31418874905	1270.40002441406
1197.98568667295	1276
1198.65709884755	1280.80004882813
1199.32842528053	1289.80004882813
1199.99966597957	1291
1200.67082095234	1281.40002441406
1201.3418902065	1275.19995117188
1202.01287374974	1281.19995117188
1202.68377158971	1280.80004882813
1203.3545837341	1282.59997558594
1204.02531019057	1279.80004882813
1204.6959509668	1281.59997558594
1205.36650607045	1265.40002441406
1206.03697550919	1268.19995117188
1206.70735929069	1264.59997558594
1207.37765742263	1270.19995117188
1208.04786991266	1263.59997558594
1208.71799676846	1255.59997558594
1209.38803799769	1257
1210.05799360803	1257.59997558594
1210.72786360714	1252.80004882813
1211.39764800268	1268
1212.06734680233	1268
1212.73696001375	1263.59997558594
1213.4064876446	1257
1214.07592970255	1267.59997558594
1214.74528619526	1259
1215.4145571304	1269
1216.08374251564	1255.19995117188
1216.75284235863	1253.40002441406
1217.42185666704	1246.19995117188
1218.09078544854	1244.19995117188
1218.75962871078	1256.80004882813
1219.42838646143	1237.19995117188
1220.09705870816	1254
1220.76564545861	1258
1221.43414672046	1253.80004882813
1222.10256250136	1252.80004882813
1222.77089280898	1262.59997558594
1223.43913765098	1257
1224.107297035	1265.19995117188
1224.77537096873	1265.80004882813
1225.44335945981	1266.19995117188
1226.1112625159	1261.59997558594
1226.77908014467	1265.80004882813
1227.44681235376	1258
1228.11445915085	1267.80004882813
1228.78202054357	1259.40002441406
1229.44949653961	1252.40002441406
1230.11688714659	1251.59997558594
1230.7841923722	1248.40002441406
1231.45141222407	1255.19995117188
1232.11854670988	1250.19995117188
1232.78559583726	1255.19995117188
1233.45255961388	1259
1234.1194380474	1256.59997558594
1234.78623114546	1254.19995117188
1235.45293891572	1247.59997558594
1236.11956136583	1244
1236.78609850345	1249.80004882813
1237.45255033623	1244
1238.11891687182	1242
1238.78519811788	1251.40002441406
1239.45139408205	1246.40002441406
1240.11750477198	1244.40002441406
1240.78353019534	1253.59997558594
1241.44947035976	1256
1242.11532527291	1247.59997558594
1242.78109494242	1254.19995117188
1243.44677937595	1256.19995117188
1244.11237858115	1250.80004882813
1244.77789256567	1243.40002441406
1245.44332133715	1247.59997558594
1246.10866490325	1244.80004882813
1246.7739232716	1244
1247.43909644987	1253.80004882813
1248.10418444569	1249.40002441406
1248.76918726671	1245.40002441406
1249.43410492059	1247.59997558594
1250.09893741496	1254.59997558594
1250.76368475747	1248.19995117188
1251.42834695576	1247.40002441406
1252.09292401749	1247.40002441406
1252.75741595029	1245.19995117188
1253.42182276182	1246.19995117188
1254.08614445971	1245.19995117188
1254.75038105161	1247.59997558594
1255.41453254515	1249.80004882813
1256.07859894799	1253
1256.74258026777	1245.40002441406
1257.40647651213	1254
1258.0702876887	1257.59997558594
1258.73401380514	1255.80004882813
1259.39765486908	1254.40002441406
1260.06121088817	1250
1260.72468187004	1254
1261.38806782233	1250.80004882813
1262.05136875269	1255.19995117188
1262.71458466875	1250.59997558594
1263.37771557815	1247.40002441406
1264.04076148854	1244
1264.70372240753	1247.19995117188
1265.3665983428	1250.40002441406
1266.02938930195	1254.59997558594
1266.69209529263	1251.40002441406
1267.35471632249	1251.59997558594
1268.01725239914	1249
1268.67970353024	1252
1269.34206972342	1251.19995117188
1270.00435098631	1256.40002441406
1270.66654732655	1254.59997558594
1271.32865875177	1248.80004882813
1271.9906852696	1264.80004882813
1272.65262688768	1254
1273.31448361365	1261.40002441406
1273.97625545514	1266
1274.63794241978	1261.80004882813
1275.2995445152	1258
1275.96106174903	1255.19995117188
1276.62249412892	1244.59997558594
1277.28384166248	1251.19995117188
1277.94510435735	1241.59997558594
1278.60628222116	1230.19995117188
1279.26737526155	1235.40002441406
1279.92838348613	1239.19995117188
1280.58930690255	1244.59997558594
1281.25014551842	1255.80004882813
1281.91089934139	1249.40002441406
1282.57156837907	1241.19995117188
1283.2321526391	1246.59997558594
1283.89265212911	1239.40002441406
1284.55306685671	1242.59997558594
1285.21339682955	1244.59997558594
1285.87364205525	1251.59997558594
1286.53380254142	1254.19995117188
1287.19387829571	1240.19995117188
1287.85386932573	1240.19995117188
1288.51377563911	1231
1289.17359724348	1240
1289.83333414646	1236.59997558594
1290.49298635567	1247.80004882813
1291.15255387874	1241.19995117188
1291.8120367233	1236.19995117188
1292.47143489696	1234.19995117188
1293.13074840736	1245.40002441406
1293.7899772621	1243.80004882813
1294.44912146882	1253.59997558594
1295.10818103513	1246.19995117188
1295.76715596866	1233.59997558594
1296.42604627704	1244.59997558594
1297.08485196787	1239.40002441406
1297.74357304878	1241.80004882813
1298.4022095274	1255.80004882813
1299.06076141134	1251.80004882813
1299.71922870821	1253
1300.37761142565	1247.40002441406
1301.03590957126	1248.80004882813
1301.69412315268	1235.19995117188
1302.3522521775	1255.80004882813
1303.01029665336	1258
1303.66825658787	1258.19995117188
1304.32613198865	1258.59997558594
1304.98392286332	1249.80004882813
1305.64162921948	1255.59997558594
1306.29925106476	1252.40002441406
1306.95678840677	1258.40002441406
1307.61424125312	1249.80004882813
1308.27160961145	1257
1308.92889348934	1267.19995117188
1309.58609289443	1258.59997558594
1310.24320783432	1255.80004882813
1310.90023831664	1268.59997558594
1311.55718434898	1268.19995117188
1312.21404593897	1262
1312.87082309421	1268
1313.52751582233	1262.19995117188
1314.18412413092	1265.19995117188
1314.84064802761	1270
1315.49708752	1266.40002441406
1316.1534426157	1262.19995117188
1316.80971332233	1270.80004882813
1317.46589964749	1272.59997558594
1318.1220015988	1265.59997558594
1318.77801918386	1259.80004882813
1319.43395241028	1268.40002441406
1320.08980128567	1266.19995117188
1320.74556581764	1261.19995117188
1321.4012460138	1263
1322.05684188176	1252.59997558594
1322.71235342911	1253.19995117188
1323.36778066347	1267
1324.02312359245	1259.59997558594
1324.67838222365	1259.80004882813
1325.33355656468	1254.19995117188
1325.98864662314	1252.59997558594
1326.64365240663	1248
1327.29857392277	1251.80004882813
1327.95341117915	1253.80004882813
1328.60816418339	1258
1329.26283294308	1257.80004882813
1329.91741746582	1259.80004882813
1330.57191775923	1257.80004882813
1331.2263338309	1247.80004882813
1331.88066568843	1257.80004882813
1332.53491333943	1259.19995117188
1333.1890767915	1255.59997558594
1333.84315605224	1253
1334.49715112925	1255.59997558594
1335.15106203013	1251.40002441406
1335.80488876249	1240.80004882813
1336.45863133391	1253.40002441406
1337.112289752	1247.59997558594
1337.76586402437	1247
1338.4193541586	1240
1339.0727601623	1241
1339.72608204306	1248.19995117188
1340.37931980849	1250.59997558594
1341.03247346617	1246.80004882813
1341.68554302372	1260.40002441406
1342.33852848871	1256.19995117188
1342.99142986876	1260.19995117188
1343.64424717145	1258.19995117188
1344.29698040438	1259.40002441406
1344.94962957515	1265
1345.60219469135	1253.40002441406
1346.25467576058	1252.19995117188
1346.90707279042	1253.40002441406
1347.55938578848	1266.19995117188
1348.21161476235	1267.19995117188
1348.86375971962	1267.19995117188
1349.51582066787	1268.80004882813
1350.16779761472	1272.80004882813
1350.81969056774	1262.80004882813
1351.47149953453	1253
1352.12322452269	1254.59997558594
1352.77486553979	1261.19995117188
1353.42642259344	1252.80004882813
1354.07789569122	1263.19995117188
1354.72928484072	1260.19995117188
1355.38059004953	1262
1356.03181132525	1260.19995117188
1356.68294867545	1269.40002441406
1357.33400210773	1279.59997558594
1357.98497162968	1284.19995117188
1358.63585724889	1298.19995117188
1359.28665897294	1293.40002441406
1359.93737680942	1294.19995117188
1360.58801076591	1300.59997558594
1361.23856085001	1298
1361.88902706929	1289
1362.53940943135	1295
1363.18970794377	1287
1363.83992261413	1303.59997558594
1364.49005345003	1304.80004882813
1365.14010045904	1296.19995117188
1365.79006364874	1303.40002441406
1366.43994302673	1289.19995117188
1367.08973860058	1283.40002441406
1367.73945037788	1272.80004882813
1368.38907836621	1278.59997558594
1369.03862257315	1258.80004882813
1369.68808300629	1265
1370.3374596732	1257.80004882813
1370.98675258148	1250.59997558594
1371.63596173868	1251
1372.28508715241	1237.40002441406
1372.93412883024	1245
1373.58308677974	1243.19995117188
1374.2319610085	1250.40002441406
1374.8807515241	1249.40002441406
1375.52945833412	1253.19995117188
1376.17808144612	1244.40002441406
1376.82662086771	1238.40002441406
1377.47507660644	1235.40002441406
1378.12344866989	1241.59997558594
1378.77173706565	1244
1379.41994180129	1229.40002441406
1380.06806288439	1228.59997558594
1380.71610032252	1238.19995117188
1381.36405412326	1237.19995117188
1382.01192429419	1222
1382.65971084287	1229.80004882813
1383.30741377688	1224.19995117188
1383.95503310381	1221.19995117188
1384.60256883121	1233.59997558594
1385.25002096667	1233
1385.89738951775	1237.40002441406
1386.54467449204	1233.40002441406
1387.19187589709	1227.59997558594
1387.8389937405	1211.80004882813
1388.48602802982	1216.40002441406
1389.13297877262	1220.40002441406
1389.77984597649	1221.59997558594
1390.42662964899	1230.19995117188
1391.07332979768	1212.59997558594
1391.71994643015	1205.80004882813
1392.36647955395	1200.59997558594
1393.01292917667	1209.40002441406
1393.65929530586	1210
1394.3055779491	1214.40002441406
1394.95177711395	1212.19995117188
1395.59789280799	1218.19995117188
1396.24392503877	1213.80004882813
1396.88987381387	1215.59997558594
1397.53573914086	1213.59997558594
1398.1815210273	1218.80004882813
1398.82721948075	1211.19995117188
1399.47283450878	1211.59997558594
1400.11836611897	1215.59997558594
1400.76381431886	1217.40002441406
1401.40917911603	1214.59997558594
1402.05446051805	1223
1402.69965853247	1221.40002441406
1403.34477316686	1227.80004882813
1403.98980442878	1226.19995117188
1404.6347523258	1211
1405.27961686548	1209.40002441406
1405.92439805538	1212.80004882813
1406.56909590306	1201.80004882813
1407.21371041608	1221.40002441406
1407.85824160202	1215.19995117188
1408.50268946841	1211.40002441406
1409.14705402284	1209.59997558594
1409.79133527285	1215.80004882813
1410.43553322601	1210
1411.07964788987	1216.59997558594
1411.723679272	1214.59997558594
1412.36762737996	1218.19995117188
1413.01149222129	1215.19995117188
1413.65527380357	1216.59997558594
1414.29897213435	1214.19995117188
1414.94258722118	1217.59997558594
1415.58611907163	1226.59997558594
1416.22956769325	1225.40002441406
1416.87293309359	1214
1417.51621528021	1217.40002441406
1418.15941426067	1200.59997558594
1418.80253004253	1216.19995117188
1419.44556263333	1223.40002441406
1420.08851204063	1214.80004882813
1420.731378272	1221.19995117188
1421.37416133497	1213.19995117188
1422.0168612371	1197.19995117188
1422.65947798596	1208.59997558594
1423.30201158908	1216.40002441406
1423.94446205403	1208.80004882813
1424.58682938835	1223.40002441406
1425.2291135996	1221.59997558594
1425.87131469532	1228
1426.51343268308	1222.19995117188
1427.15546757042	1231.59997558594
1427.79741936488	1232
1428.43928807403	1218
1429.0810737054	1222.40002441406
1429.72277626656	1223.59997558594
1430.36439576504	1210.40002441406
1431.00593220841	1212.19995117188
1431.64738560419	1219
1432.28875595995	1222
1432.93004328324	1212.59997558594
1433.57124758159	1210
1434.21236886255	1216
1434.85340713368	1208.80004882813
1435.49436240252	1213.59997558594
1436.13523467661	1220
1436.77602396349	1232.40002441406
1437.41673027073	1222
1438.05735360585	1222.59997558594
1438.69789397641	1228
1439.33835138994	1215.19995117188
1439.978725854	1221.19995117188
1440.61901737612	1227.59997558594
1441.25922596385	1225.80004882813
1441.89935162473	1223
1442.53939436631	1222
1443.17935419612	1222.19995117188
1443.81923112171	1208
1444.45902515061	1213
1445.09873629038	1213.59997558594
1445.73836454854	1202.59997558594
1446.37790993265	1205.19995117188
1447.01737245024	1214.80004882813
1447.65675210885	1214
1448.29604891602	1212.59997558594
1448.93526287928	1201.59997558594
1449.57439400618	1219.80004882813
1450.21344230426	1218.19995117188
1450.85240778105	1219
1451.49129044409	1221
1452.13009030092	1212.59997558594
1452.76880735907	1217.80004882813
1453.40744162608	1210.59997558594
1454.04599310949	1218.40002441406
1454.68446181683	1213
1455.32284775564	1211
1455.96115093345	1199.19995117188
1456.5993713578	1202.59997558594
1457.23750903623	1204
1457.87556397626	1212.40002441406
1458.51353618543	1214
1459.15142567127	1205
1459.78923244132	1197
1460.42695650311	1211
1461.06459786417	1213
1461.70215653203	1205.40002441406
1462.33963251423	1206.40002441406
1462.97702581829	1203
1463.61433645175	1204.40002441406
1464.25156442214	1207
1464.88870973699	1216.59997558594
1465.52577240382	1210.19995117188
1466.16275243017	1207.19995117188
1466.79964982356	1204.19995117188
1467.43646459154	1192.19995117188
1468.07319674161	1202
1468.70984628132	1203
1469.34641321818	1205.40002441406
1469.98289755974	1204.19995117188
1470.6192993135	1203.59997558594
1471.25561848701	1218.19995117188
1471.89185508779	1218.59997558594
1472.52800912336	1215
1473.16408060124	1202.59997558594
1473.80006952897	1215.40002441406
1474.43597591407	1204.40002441406
1475.07179976406	1206.80004882813
1475.70754108647	1193.40002441406
1476.34319988883	1201
1476.97877617865	1202.80004882813
1477.61426996345	1207.80004882813
1478.24968125077	1211.19995117188
1478.88501004812	1199.59997558594
1479.52025636303	1198.59997558594
1480.15542020302	1198.80004882813
1480.79050157561	1197.80004882813
1481.42550048832	1198
1482.06041694867	1212.19995117188
1482.69525096418	1205.19995117188
1483.33000254237	1203
1483.96467169077	1214.19995117188
1484.59925841689	1202.59997558594
1485.23376272825	1208.19995117188
1485.86818463237	1206.59997558594
1486.50252413677	1209
1487.13678124896	1207.80004882813
1487.77095597646	1205.80004882813
1488.4050483268	1203.59997558594
1489.03905830749	1209.40002441406
1489.67298592604	1205.80004882813
1490.30683118996	1203.19995117188
1490.9405941068	1204.80004882813
1491.57427468403	1214.40002441406
1492.2078729292	1210
1492.84138884981	1210.19995117188
1493.47482245338	1211.59997558594
1494.10817374742	1216.19995117188
1494.74144273944	1212.19995117188
1495.37462943696	1220
1496.0077338475	1210.19995117188
1496.64075597856	1215
1497.27369583765	1216.19995117188
1497.9065534323	1218.40002441406
1498.53932877001	1208.19995117188
1499.17202185829	1198.19995117188
1499.80463270465	1201.19995117188
1500.43716131661	1215.19995117188
1501.06960770167	1215.59997558594
1501.70197186735	1215.40002441406
1502.33425382116	1228.40002441406
1502.96645357059	1224.19995117188
1503.59857112317	1230.40002441406
1504.23060648641	1229.19995117188
1504.8625596678	1229.19995117188
1505.49443067486	1219.40002441406
1506.1262195151	1223.59997558594
1506.75792619602	1231
1507.38955072513	1232.59997558594
1508.02109310993	1230.80004882813
1508.65255335794	1221.59997558594
1509.28393147666	1231.80004882813
1509.91522747359	1237.19995117188
1510.54644135624	1242.19995117188
1511.17757313212	1236.19995117188
1511.80862280872	1221.59997558594
1512.43959039356	1231.40002441406
1513.07047589413	1251.40002441406
1513.70127931795	1230.59997558594
1514.33200067251	1244
1514.96263996531	1229.59997558594
1515.59319720386	1231.59997558594
1516.22367239567	1220.40002441406
1516.85406554822	1215.59997558594
1517.48437666903	1219.19995117188
1518.1146057656	1214.40002441406
1518.74475284542	1203
1519.374817916	1206.40002441406
1520.00480098483	1206.40002441406
1520.63470205942	1204.19995117188
1521.26452114726	1202.59997558594
1521.89425825586	1200.19995117188
1522.52391339271	1208.59997558594
1523.15348656531	1196.19995117188
1523.78297778116	1206.19995117188
1524.41238704775	1204.40002441406
1525.04171437259	1202.80004882813
1525.67095976317	1209.80004882813
1526.30012322699	1214.19995117188
1526.92920477154	1204
1527.55820440432	1206
1528.18712213283	1205.40002441406
1528.81595796455	1209
1529.44471190699	1208
1530.07338396764	1216.59997558594
1530.70197415399	1210.19995117188
1531.33048247353	1204.40002441406
1531.95890893377	1208.80004882813
1532.58725354219	1205
1533.21551630629	1196.80004882813
1533.84369723356	1208
1534.47179633148	1207
1535.09981360757	1212.19995117188
1535.72774906929	1205
1536.35560272415	1214.19995117188
1536.98337457963	1208.80004882813
1537.61106464323	1207
1538.23867292243	1209.40002441406
1538.86619942473	1199.80004882813
1539.49364415762	1204.59997558594
1540.12100712857	1206.80004882813
1540.74828834509	1209.59997558594
1541.37548781466	1203.19995117188
1542.00260554478	1204.40002441406
1542.62964154291	1197.59997558594
1543.25659581655	1197.19995117188
1543.8834683732	1193.80004882813
1544.51025922034	1195.40002441406
1545.13696836544	1188.19995117188
1545.76359581601	1188.19995117188
1546.39014157952	1193.59997558594
1547.01660566345	1191.19995117188
1547.64298807531	1199
1548.26928882255	1209
1548.89550791269	1200.19995117188
1549.52164535318	1202.59997558594
1550.14770115153	1206
1550.77367531521	1197.40002441406
1551.39956785171	1201
1552.0253787685	1198.59997558594
1552.65110807307	1190.40002441406
1553.2767557729	1188
1553.90232187548	1194
1554.52780638828	1183.40002441406
1555.15320931879	1203.80004882813
1555.77853067447	1195.19995117188
1556.40377046282	1200
1557.02892869132	1196.80004882813
1557.65400536744	1182.59997558594
1558.27900049866	1194.19995117188
1558.90391409247	1194.40002441406
1559.52874615633	1199.80004882813
1560.15349669773	1197.40002441406
1560.77816572414	1197.40002441406
1561.40275324305	1203.59997558594
1562.02725926192	1192.59997558594
1562.65168378824	1199.19995117188
1563.27602682948	1199.19995117188
1563.90028839311	1198
1564.52446848662	1182.40002441406
1565.14856711748	1191.40002441406
1565.77258429316	1185
1566.39652002113	1193.59997558594
1567.02037430887	1184.19995117188
1567.64414716387	1188.19995117188
1568.26783859357	1186.19995117188
1568.89144860547	1187.40002441406
1569.51497720703	1185.40002441406
1570.13842440573	1185.59997558594
1570.76179020904	1198
1571.38507462442	1193.19995117188
1572.00827765936	1194.80004882813
1572.63139932132	1195.19995117188
1573.25443961777	1197.40002441406
1573.87739855618	1196.40002441406
1574.50027614402	1193.59997558594
1575.12307238877	1200.59997558594
1575.74578729789	1198.40002441406
1576.36842087885	1181.40002441406
1576.99097313912	1199
1577.61344408616	1196.40002441406
1578.23583372745	1194.80004882813
1578.85814207046	1201.59997558594
1579.48036912264	1187.80004882813
1580.10251489147	1193.19995117188
1580.72457938441	1196.40002441406
1581.34656260893	1191.40002441406
1581.9684645725	1185.40002441406
1582.59028528258	1181.59997558594
1583.21202474663	1176
1583.83368297212	1179.80004882813
1584.45525996652	1188.59997558594
1585.07675573728	1188
1585.69817029188	1182.19995117188
1586.31950363778	1187
1586.94075578243	1178
1587.5619267333	1182
1588.18301649786	1173
1588.80402508357	1179.59997558594
1589.42495249788	1177.19995117188
1590.04579874826	1161.40002441406
1590.66656384217	1166.80004882813
1591.28724778707	1172
1591.90785059042	1168.80004882813
1592.52837225968	1168.59997558594
1593.14881280232	1174.80004882813
1593.76917222578	1179.80004882813
1594.38945053753	1171.40002441406
1595.00964774502	1175.80004882813
1595.62976385573	1173.59997558594
1596.24979887709	1167.19995117188
1596.86975281657	1175.19995117188
1597.48962568164	1176.40002441406
1598.10941747974	1173.19995117188
1598.72912821832	1180
1599.34875790486	1169.40002441406
1599.9683065468	1172.40002441406
1600.58777415159	1171.80004882813
1601.2071607267	1169.40002441406
1601.82646627958	1170.80004882813
1602.44569081769	1181.19995117188
1603.06483434846	1178
1603.68389687937	1178.19995117188
1604.30287841786	1175
1604.92177897139	1160.40002441406
1605.54059854741	1157.59997558594
1606.15933715337	1148.80004882813
1606.77799479672	1156.19995117188
1607.39657148492	1144.19995117188
1608.01506722542	1159.19995117188
1608.63348202566	1163.40002441406
1609.2518158931	1149.59997558594
1609.87006883519	1155.40002441406
1610.48824085939	1158.40002441406
1611.10633197312	1152.59997558594
1611.72434218386	1144.59997558594
1612.34227149904	1148.19995117188
1612.96011992612	1155.80004882813
1613.57788747254	1159
1614.19557414575	1151.59997558594
1614.8131799532	1154.59997558594
1615.43070490234	1148.59997558594
1616.04814900061	1152.19995117188
1616.66551225545	1143.80004882813
1617.28279467433	1146
1617.89999626467	1153.40002441406
1618.51711703393	1144.19995117188
1619.13415698955	1141.19995117188
1619.75111613898	1142.80004882813
1620.36799448966	1148.80004882813
1620.98479204903	1146.80004882813
1621.60150882455	1142.59997558594
1622.21814482364	1142
1622.83470005376	1135.59997558594
1623.45117452235	1128.59997558594
1624.06756823685	1138.19995117188
1624.6838812047	1125.59997558594
1625.30011343335	1129.80004882813
1625.91626493022	1135
1626.53233570278	1134.59997558594
1627.14832575845	1139.40002441406
1627.76423510468	1135
1628.38006374891	1137
1628.99581169857	1122.59997558594
1629.61147896111	1132
1630.22706554397	1129.19995117188
1630.84257145457	1139
1631.45799670038	1145.80004882813
1632.07334128881	1134.80004882813
1632.6886052273	1139.19995117188
1633.3037885233	1143.19995117188
1633.91889118425	1142.19995117188
1634.53391321757	1141
1635.1488546307	1137.59997558594
1635.76371543108	1121.80004882813
1636.37849562616	1126
1636.99319522335	1131.40002441406
1637.60781423009	1130.59997558594
1638.22235265383	1133
1638.83681050198	1132.19995117188
1639.451187782	1143.40002441406
1640.0654845013	1142.59997558594
1640.67970066734	1143
1641.29383628752	1139.80004882813
1641.9078913693	1140.80004882813
1642.5218659201	1142
1643.13575994735	1141.59997558594
1643.74957345849	1145.40002441406
1644.36330646094	1142.40002441406
1644.97695896213	1143.40002441406
1645.59053096951	1152.80004882813
1646.20402249049	1155
1646.8174335325	1157
1647.43076410298	1159.80004882813
1648.04401420935	1160
1648.65718385905	1154.40002441406
1649.2702730595	1159
1649.88328181812	1157.40002441406
1650.49621014236	1158
1651.10905803963	1159
1651.72182551735	1160.80004882813
1652.33451258297	1156.80004882813
1652.9471192439	1158
1653.55964550757	1154.40002441406
1654.1720913814	1146.40002441406
1654.78445687283	1150.40002441406
1655.39674198926	1148
1656.00894673814	1140
1656.62107112688	1140
1657.23311516291	1134
1657.84507885365	1139
1658.45696220652	1129.19995117188
1659.06876522895	1125
1659.68048792835	1127.59997558594
1660.29213031217	1116.40002441406
1660.90369238779	1114.40002441406
1661.51517416267	1117.40002441406
1662.12657564421	1120.59997558594
1662.73789683984	1114.80004882813
1663.34913775697	1120
1663.96029840303	1115.19995117188
1664.57137878544	1115.59997558594
1665.18237891161	1108.59997558594
1665.79329878897	1121.59997558594
1666.40413842493	1117.80004882813
1667.01489782691	1117
1667.62557700233	1108.80004882813
1668.2361759586	1113
1668.84669470315	1109.40002441406
1669.4571332434	1111.59997558594
1670.06749158675	1106.80004882813
1670.67776974062	1107.40002441406
1671.28796771243	1102.59997558594
1671.8980855096	1090
1672.50812313954	1097.40002441406
1673.11808060967	1094.19995117188
1673.72795792739	1098
1674.33775510013	1098.19995117188
1674.9474721353	1096.59997558594
1675.55710904031	1094.59997558594
1676.16666582257	1094
1676.7761424895	1085
1677.38553904851	1089.80004882813
1677.99485550702	1088.59997558594
1678.60409187243	1093
1679.21324815215	1094.80004882813
1679.8223243536	1097.80004882813
1680.43132048419	1096.59997558594
1681.04023655132	1099
1681.64907256241	1092.59997558594
1682.25782852487	1087.40002441406
1682.86650444611	1101.19995117188
1683.47510033353	1095.40002441406
1684.08361619455	1096.80004882813
1684.69205203657	1094.80004882813
1685.300407867	1091.40002441406
1685.90868369325	1082.19995117188
1686.51687952272	1084.59997558594
1687.12499536283	1084.40002441406
1687.73303122098	1086.59997558594
1688.34098710457	1076.80004882813
1688.94886302101	1082.19995117188
1689.55665897772	1086
1690.16437498208	1082.80004882813
1690.77201104152	1077.19995117188
1691.37956716342	1075
1691.9870433552	1074.40002441406
1692.59443962426	1080.59997558594
1693.20175597801	1084.59997558594
1693.80899242384	1076.59997558594
1694.41614896916	1081.59997558594
1695.02322562138	1077
1695.63022238789	1085.19995117188
1696.23713927609	1076.19995117188
1696.8439762934	1078.19995117188
1697.4507334472	1081.40002441406
1698.05741074491	1080.19995117188
1698.66400819391	1081
1699.27052580161	1078.80004882813
1699.87696357542	1076.40002441406
1700.48332152272	1072.80004882813
1701.08959965092	1066.59997558594
1701.69579796742	1068.40002441406
1702.30191647962	1063.40002441406
1702.90795519491	1070.80004882813
1703.51391412069	1067.40002441406
1704.11979326437	1064.40002441406
1704.72559263332	1066.80004882813
1705.33131223496	1070.40002441406
1705.93695207668	1067.19995117188
1706.54251216588	1065
1707.14799250994	1062.80004882813
1707.75339311628	1068
1708.35871399227	1059.80004882813
1708.96395514532	1063.40002441406
1709.56911658282	1070.59997558594
