634.948122577771	1171.59997558594
635.690341530823	1184.80004882813
636.43246851086	1185.40002441406
637.174503525845	1189.80004882813
637.916446583745	1187
638.658297692538	1176.80004882813
639.400056860179	1178.19995117188
640.141724094637	1176.59997558594
640.883299403885	1171.59997558594
641.62478279588	1178.59997558594
642.366174278594	1175.59997558594
643.107473859989	1165.80004882813
643.848681548029	1169.80004882813
644.589797350679	1168
645.330821275901	1168.40002441406
646.071753331665	1172.40002441406
646.812593525922	1173.40002441406
647.553341866646	1176.59997558594
648.293998361798	1173.40002441406
649.03456301933	1168.59997558594
649.775035847216	1188
650.515416853409	1188
651.255706045874	1191.40002441406
651.995903432568	1189.40002441406
652.736009021453	1196.40002441406
653.476022820486	1192
654.215944837629	1192
654.955775080842	1202.59997558594
655.695513558081	1190.19995117188
656.435160277301	1197.40002441406
657.174715246465	1198
657.914178473527	1189
658.653549966449	1182.80004882813
659.392829733176	1184.40002441406
660.132017781678	1189.80004882813
660.871114119901	1197.80004882813
661.610118755803	1199.80004882813
662.349031697343	1199.19995117188
663.087852952468	1197.80004882813
663.826582529139	1209
664.565220435305	1196.59997558594
665.30376667892	1189
666.04222126794	1204.40002441406
666.780584210316	1203.19995117188
667.518855514	1208.80004882813
668.25703518694	1207.19995117188
668.995123237096	1206.40002441406
669.733119672413	1209.19995117188
670.471024500842	1195.40002441406
671.208837730333	1195.40002441406
671.946559368839	1196.80004882813
672.684189424308	1195
673.421727904689	1201.40002441406
674.159174817929	1191.19995117188
674.896530171977	1199.59997558594
675.633793974786	1212.40002441406
676.370966234295	1206.19995117188
677.108046958461	1209.80004882813
677.845036155219	1201.80004882813
678.581933832528	1207.80004882813
679.318739998323	1216.80004882813
680.055454660558	1223.80004882813
680.792077827172	1220.80004882813
681.528609506116	1216.19995117188
682.265049705331	1212.19995117188
683.001398432759	1199.59997558594
683.737655696349	1207.80004882813
684.47382150404	1194
685.20989586378	1188
685.945878783503	1190
686.68177027116	1196
687.417570334688	1202.40002441406
688.153278982032	1192
688.888896221129	1196.40002441406
689.624422059921	1189.19995117188
690.359856506349	1193.19995117188
691.095199568354	1199
691.830451253874	1201.40002441406
692.565611570844	1205.59997558594
693.300680527212	1217.59997558594
694.03565813091	1218.40002441406
694.770544389877	1222.40002441406
695.505339312053	1205.59997558594
696.240042905372	1210
696.974655177772	1209
697.70917613719	1211.40002441406
698.443605791561	1214.59997558594
699.177944148826	1221.59997558594
699.912191216909	1214.19995117188
700.646347003755	1215.19995117188
701.380411517295	1213.40002441406
702.114384765465	1207
702.848266756195	1202.19995117188
703.582057497421	1205.19995117188
704.315756997074	1209
705.049365263089	1207.80004882813
705.782882303399	1209.80004882813
706.516308125936	1219.40002441406
707.249642738626	1235
707.982886149403	1229
708.716038366204	1214.59997558594
709.449099396949	1213.40002441406
710.182069249577	1200.80004882813
710.914947932009	1199.59997558594
711.647735452181	1195.40002441406
712.380431818022	1198.40002441406
713.113037037454	1203.80004882813
713.845551118411	1203
714.577974068818	1207.80004882813
715.310305896604	1208.80004882813
716.042546609694	1220
716.774696216013	1213.80004882813
717.506754723493	1202.19995117188
718.238722140053	1202.19995117188
718.970598473624	1210.59997558594
719.702383732127	1205.59997558594
720.43407792349	1219
721.165681055634	1227.19995117188
721.897193136486	1212.40002441406
722.628614173966	1228.80004882813
723.359944175997	1223.80004882813
724.091183150505	1234.59997558594
724.822331105412	1217.80004882813
725.553388048638	1200.80004882813
726.284353988106	1206.19995117188
727.015228931734	1207
727.746012887449	1200.40002441406
728.476705863162	1187.40002441406
729.207307866803	1215
729.937818906289	1220.40002441406
730.668238989535	1213.59997558594
731.398568124459	1226.19995117188
732.128806318986	1227.40002441406
732.858953581034	1221
733.589009918514	1222.80004882813
734.318975339348	1221.19995117188
735.048849851452	1213.40002441406
735.778633462744	1225.19995117188
736.508326181137	1224.59997558594
737.237928014549	1229
737.967438970897	1227.40002441406
738.696859058095	1212.80004882813
739.426188284054	1228
740.155426656692	1220.80004882813
740.884574183922	1219.59997558594
741.613630873659	1215.59997558594
742.342596733815	1218
743.071471772302	1217.19995117188
743.800255997034	1216.19995117188
744.528949415921	1209.59997558594
745.257552036877	1214.40002441406
745.986063867811	1220.59997558594
746.714484916638	1217.59997558594
747.442815191261	1228.80004882813
748.171054699597	1227.19995117188
748.899203449554	1228.80004882813
749.627261449039	1216
750.355228705966	1221.80004882813
751.083105228239	1227.40002441406
751.810891023765	1231.40002441406
752.538586100459	1227.59997558594
753.266190466218	1235.80004882813
753.99370412896	1218.59997558594
754.721127096582	1224
755.448459377	1226.40002441406
756.175700978114	1216
756.902851907828	1218.80004882813
757.629912174055	1224.80004882813
758.356881784688	1215.80004882813
759.083760747639	1218.19995117188
759.810549070817	1216
760.537246762113	1228
761.263853829442	1221.80004882813
761.990370280698	1223.80004882813
762.716796123791	1230.19995117188
763.443131366618	1232
764.169376017082	1231.19995117188
764.895530083085	1237
765.621593572527	1244.80004882813
766.347566493312	1239.40002441406
767.073448853336	1246.19995117188
767.799240660502	1251.80004882813
768.524941922707	1258.59997558594
769.250552647854	1254.59997558594
769.976072843836	1248.59997558594
770.701502518551	1253
771.426841679905	1259.40002441406
772.152090335793	1267.80004882813
772.877248494107	1266.59997558594
773.602316162747	1273.59997558594
774.327293349609	1283.59997558594
775.052180062592	1281.40002441406
775.776976309589	1283.80004882813
776.501682098496	1280
777.226297437206	1271.80004882813
777.950822333616	1264.19995117188
778.675256795621	1254.59997558594
779.399600831111	1243
780.123854447983	1243
780.84801765413	1252.59997558594
781.572090457441	1249.80004882813
782.296072865811	1239.19995117188
783.019964887131	1238
783.743766529297	1241.19995117188
784.467477800194	1234.19995117188
785.191098707719	1231.80004882813
785.914629259756	1234
786.638069464194	1230.59997558594
787.361419328932	1226.80004882813
788.084678861852	1224.19995117188
788.807848070845	1235
789.530926963798	1235
790.253915548602	1230.19995117188
790.976813833144	1230.59997558594
791.699621825307	1239.80004882813
792.422339532986	1238.40002441406
793.144966964061	1244.59997558594
793.86750412642	1246.40002441406
794.589951027946	1235.19995117188
795.312307676536	1231.59997558594
796.03457408006	1223
796.756750246417	1227.40002441406
797.478836183477	1213.59997558594
798.200831899137	1221.59997558594
798.92273740127	1212.19995117188
799.644552697769	1230.80004882813
800.36627779651	1233.19995117188
801.087912705374	1230.80004882813
801.809457432251	1232.80004882813
802.530911985017	1227.80004882813
803.252276371558	1247.19995117188
803.973550599748	1239.59997558594
804.694734677472	1229.40002441406
805.415828612611	1239
806.136832413045	1231.59997558594
806.857746086646	1220.19995117188
807.578569641305	1217.80004882813
808.299303084892	1227.59997558594
809.019946425289	1213
809.740499670372	1223
810.460962828022	1222
811.181335906114	1219.80004882813
811.901618912524	1220.80004882813
812.621811855131	1228.59997558594
813.341914741809	1221.19995117188
814.061927580433	1223.80004882813
814.781850378881	1223.19995117188
815.501683145025	1216.80004882813
816.221425886743	1228.19995117188
816.941078611903	1242.40002441406
817.660641328387	1234.19995117188
818.380114044065	1236
819.099496766808	1245
819.818789504492	1233
820.53799226499	1224.19995117188
821.257105056168	1226.80004882813
821.976127885904	1230.40002441406
822.695060762064	1234.40002441406
823.413903692525	1231.19995117188
824.132656685151	1232.80004882813
824.851319747817	1243.40002441406
825.569892888388	1238.19995117188
826.288376114739	1238.40002441406
827.006769434737	1232.19995117188
827.725072856249	1231
828.443286387142	1232.19995117188
829.161410035285	1226
829.87944380855	1218.19995117188
830.597387714798	1232.19995117188
831.315241761898	1244
832.033005957715	1241.59997558594
832.750680310119	1230.59997558594
833.468264826969	1240.19995117188
834.18575951614	1239.59997558594
834.903164385486	1232.59997558594
835.620479442878	1231.59997558594
836.337704696181	1227.19995117188
837.054840153255	1238.19995117188
837.771885821962	1226.19995117188
838.488841710172	1221.59997558594
839.20570782574	1214.19995117188
839.922484176531	1215.19995117188
840.639170770409	1215
841.355767615231	1219.19995117188
842.072274718864	1234.40002441406
842.788692089164	1227.19995117188
843.505019733993	1234
844.221257661209	1226.59997558594
844.937405878676	1225.19995117188
845.65346439425	1233
846.369433215789	1232.40002441406
847.085312351156	1226.19995117188
847.801101808205	1226.80004882813
848.516801594793	1222.19995117188
849.232411718781	1218.80004882813
849.947932188021	1222.19995117188
850.663363010376	1224.59997558594
851.378704193698	1233.59997558594
852.093955745842	1240
852.809117674669	1240.59997558594
853.524189988028	1243.59997558594
854.239172693778	1237.19995117188
854.954065799768	1235.80004882813
855.668869313857	1234.80004882813
856.383583243899	1227.19995117188
857.098207597743	1227.40002441406
857.812742383246	1223.80004882813
858.527187608255	1228.80004882813
859.241543280628	1232.80004882813
859.955809408218	1235.59997558594
860.669985998868	1230
861.384073060437	1226.40002441406
862.098070600772	1234.19995117188
862.811978627724	1225.19995117188
863.52579714914	1231
864.239526172873	1229.19995117188
864.953165706776	1231.19995117188
865.666715758687	1234.59997558594
866.380176336464	1229.19995117188
867.093547447951	1233.59997558594
867.806829100996	1226.59997558594
868.520021303444	1223.59997558594
869.233124063149	1228.59997558594
869.94613738795	1224.40002441406
870.659061285693	1233.59997558594
871.37189576423	1237.40002441406
872.084640831403	1223.40002441406
872.797296495057	1230
873.509862763039	1218.19995117188
874.22233964319	1228
874.934727143353	1233.59997558594
875.647025271374	1219.80004882813
876.359234035097	1224.80004882813
877.071353442361	1237
877.783383501015	1224.19995117188
878.495324218895	1231.40002441406
879.207175603844	1220
879.918937663705	1234.40002441406
880.630610406318	1228
881.342193839524	1219
882.053687971161	1229.19995117188
882.765092809069	1220.40002441406
883.476408361091	1219.19995117188
884.187634635066	1212.40002441406
884.898771638828	1211.59997558594
885.609819380221	1212
886.320777867076	1210.80004882813
887.031647107236	1212
887.742427108536	1222.80004882813
888.453117878816	1237
889.16371942591	1232.59997558594
889.874231757652	1233.40002441406
890.584654881883	1233.40002441406
891.294988806434	1233.40002441406
892.005233539141	1233.40002441406
892.715389087837	1219
893.42545546036	1221.59997558594
894.135432664543	1223.40002441406
894.845320708216	1224
895.555119599216	1227
896.264829345375	1228.80004882813
896.974449954526	1224.19995117188
897.683981434496	1227.19995117188
898.393423793125	1239.59997558594
899.102777038235	1231.40002441406
899.812041177664	1220.59997558594
900.521216219239	1234.80004882813
901.230302170793	1234
901.939299040155	1233
902.64820683515	1233.59997558594
903.357025563612	1230.59997558594
904.065755233368	1219.40002441406
904.774395852247	1231.59997558594
905.482947428076	1220.80004882813
906.191409968682	1227.59997558594
906.899783481897	1231.40002441406
907.608067975538	1226.40002441406
908.316263457443	1236.59997558594
909.02436993543	1230.80004882813
909.732387417327	1232
910.440315910959	1222.80004882813
911.148155424154	1225.80004882813
911.855905964731	1231.19995117188
912.563567540521	1233.40002441406
913.271140159339	1230.80004882813
913.978623829017	1235.59997558594
914.686018557374	1234.80004882813
915.393324352237	1232.40002441406
916.100541221421	1228.40002441406
916.807669172752	1233.40002441406
917.514708214054	1237.80004882813
918.221658353142	1233.19995117188
918.928519597843	1229.59997558594
919.635291955976	1228
920.341975435358	1237
921.048570043813	1225
921.75507578916	1224.59997558594
922.461492679212	1218
923.167820721795	1222.19995117188
923.874059924726	1224.80004882813
924.58021029582	1222
925.286271842893	1232.19995117188
925.992244573769	1237.40002441406
926.698128496262	1233.19995117188
927.403923618184	1235.59997558594
928.109629947355	1235.19995117188
928.815247491593	1224.80004882813
929.520776258708	1233.19995117188
930.226216256519	1218
930.931567492841	1224.40002441406
931.636829975482	1229.80004882813
932.342003712263	1227
933.047088710995	1230.19995117188
933.752084979491	1229.80004882813
934.456992525564	1234.80004882813
935.161811357024	1227
935.866541481688	1228
936.571182907363	1220.80004882813
937.275735641861	1225.80004882813
937.980199692995	1223.19995117188
938.684575068572	1229
939.388861776411	1223.40002441406
940.093059824311	1230
940.797169220085	1237.80004882813
941.501189971544	1235.80004882813
942.205122086495	1235.80004882813
942.908965572751	1235.59997558594
943.612720438111	1234.40002441406
944.316386690391	1230.19995117188
945.019964337391	1212.19995117188
945.723453386924	1209.59997558594
946.426853846795	1217.40002441406
947.130165724808	1217.80004882813
947.83338902877	1227.59997558594
948.536523766488	1230.40002441406
949.239569945764	1228
949.942527574402	1238.40002441406
950.64539666021	1244.59997558594
951.348177210993	1247.40002441406
952.050869234548	1225.59997558594
952.753472738683	1222.40002441406
953.455987731199	1228.59997558594
954.158414219898	1226.19995117188
954.860752212587	1225.59997558594
955.563001717061	1224.40002441406
956.265162741124	1213
956.967235292576	1218.40002441406
957.669219379224	1216
958.371115008857	1219
959.072922189283	1227.80004882813
959.774640928301	1234.40002441406
960.476271233708	1218.19995117188
961.177813113301	1239
961.879266574882	1234.59997558594
962.580631626248	1224.80004882813
963.281908275194	1228.80004882813
963.98309652952	1224.59997558594
964.684196397022	1220.59997558594
965.3852078855	1218.40002441406
966.086131002745	1222.40002441406
966.786965756555	1228.19995117188
967.487712154726	1227.59997558594
968.188370205055	1232.59997558594
968.888939915331	1233
969.589421293352	1224.59997558594
970.289814346909	1225.19995117188
970.990119083801	1221.80004882813
971.690335511819	1228.40002441406
972.39046363875	1233.80004882813
973.090503472398	1234.80004882813
973.790455020545	1243
974.490318290987	1235.19995117188
975.190093291516	1233.80004882813
975.889780029923	1227.19995117188
976.589378513998	1234.19995117188
977.288888751527	1224
977.988310750308	1230
978.687644518122	1236.40002441406
979.386890062767	1216.80004882813
980.086047392025	1226.40002441406
980.785116513689	1220.19995117188
981.484097435542	1225.80004882813
982.182990165377	1227
982.88179471098	1226.59997558594
983.580511080137	1217
984.279139280632	1221
984.977679320253	1226.80004882813
985.67613120679	1229.40002441406
986.374494948027	1217.80004882813
987.072770551745	1223.80004882813
987.770958025731	1214
988.469057377772	1219.40002441406
989.167068615649	1215.19995117188
989.864991747145	1224.80004882813
990.562826780047	1224.59997558594
991.260573722134	1217.40002441406
991.958232581195	1213.80004882813
992.655803365003	1214.19995117188
993.353286081346	1215.40002441406
994.050680738006	1210
994.74798734276	1211
995.44520590339	1218.40002441406
996.142336427681	1222.19995117188
996.839378923407	1207.19995117188
997.536333398348	1214.19995117188
998.233199860289	1217
998.929978317004	1217.59997558594
999.626668776274	1224.59997558594
1000.32327124587	1227.40002441406
1001.01978573359	1214.19995117188
1001.71621224718	1230.80004882813
1002.41255079445	1221
1003.10880138315	1217.59997558594
1003.80496402107	1214.40002441406
1004.50103871599	1225.80004882813
1005.19702547567	1219.19995117188
1005.8929243079	1212.19995117188
1006.58873522045	1220.19995117188
1007.2844582211	1224.80004882813
1007.98009331761	1226.19995117188
1008.67564051776	1228.59997558594
1009.37109982933	1218.40002441406
1010.06647126009	1217.40002441406
1010.7617548178	1217.59997558594
1011.45695051026	1206.40002441406
1012.15205834522	1217.40002441406
1012.84707833045	1217.59997558594
1013.54201047373	1224.40002441406
1014.23685478284	1214.59997558594
1014.93161126553	1203
1015.62627992959	1212.59997558594
1016.32086078277	1220.40002441406
1017.01535383285	1217.80004882813
1017.70975908761	1218.40002441406
1018.40407655479	1232
1019.09830624219	1215.19995117188
1019.79244815755	1222
1020.48650230866	1223.40002441406
1021.18046870328	1224.59997558594
1021.87434734917	1229.59997558594
1022.56813825411	1229.19995117188
1023.26184142584	1214.40002441406
1023.95545687216	1228
1024.64898460082	1224.59997558594
1025.34242461957	1219.40002441406
1026.0357769362	1225.40002441406
1026.72904155846	1230.80004882813
1027.42221849412	1222.80004882813
1028.11530775094	1222.59997558594
1028.80830933668	1216.80004882813
1029.50122325911	1223.59997558594
1030.19404952599	1214.59997558594
1030.88678814508	1221.59997558594
1031.57943912414	1221.19995117188
1032.27200247093	1220.80004882813
1032.96447819323	1225.59997558594
1033.65686629878	1217.40002441406
1034.34916679534	1213.59997558594
1035.04137969068	1211.40002441406
1035.73350499256	1208.80004882813
1036.42554270874	1215
1037.11749284697	1202
1037.80935541501	1210
1038.50113042062	1215.19995117188
1039.19281787156	1210.40002441406
1039.88441777559	1210.40002441406
1040.57593014046	1205
1041.26735497393	1202.80004882813
1041.95869228376	1215.80004882813
1042.6499420777	1222.80004882813
1043.3411043635	1209.19995117188
1044.03217914893	1212.80004882813
1044.72316644174	1205.80004882813
1045.41406624968	1216.40002441406
1046.1048785805	1204.80004882813
1046.79560344197	1212.80004882813
1047.48624084182	1215.80004882813
1048.17679078783	1223
1048.86725328774	1206.40002441406
1049.55762834929	1218.59997558594
1050.24791598025	1217.40002441406
1050.93811618837	1217.59997558594
1051.62822898139	1211.19995117188
1052.31825436707	1216
1053.00819235315	1223.40002441406
1053.6980429474	1213.40002441406
1054.38780615755	1215.19995117188
1055.07748199136	1212.40002441406
1055.76707045658	1210
1056.45657156095	1202.19995117188
1057.14598531222	1201.59997558594
1057.83531171814	1204.19995117188
1058.52455078646	1206.19995117188
1059.21370252494	1205.40002441406
1059.90276694129	1205.19995117188
1060.5917440433	1217.59997558594
1061.28063383868	1221.40002441406
1061.9694363352	1223
1062.65815154059	1212.19995117188
1063.34677946261	1215
1064.03532010899	1203.80004882813
1064.72377348748	1207
1065.41213960583	1214.19995117188
1066.10041847177	1204.59997558594
1066.78861009306	1202.19995117188
1067.47671447743	1217.80004882813
1068.16473163263	1204.19995117188
1068.85266156639	1212
1069.54050428647	1210.19995117188
1070.2282598006	1207.80004882813
1070.91592811652	1212
1071.60350924198	1200.19995117188
1072.29100318471	1205
1072.97840995245	1199.80004882813
1073.66572955295	1197
1074.35296199394	1195.19995117188
1075.04010728316	1196.40002441406
1075.72716542836	1212.40002441406
1076.41413643726	1206.59997558594
1077.10102031761	1209.40002441406
1077.78781707715	1206
1078.4745267236	1203.19995117188
1079.16114926471	1208.59997558594
1079.84768470822	1212.40002441406
1080.53413306185	1211
1081.22049433336	1206.40002441406
1081.90676853046	1203.80004882813
1082.5929556609	1206
1083.27905573241	1214.80004882813
1083.96506875272	1225
1084.65099472957	1216
1085.3368336707	1215.80004882813
1086.02258558383	1205.40002441406
1086.70825047669	1202.59997558594
1087.39382835703	1210.40002441406
1088.07931923257	1226
1088.76472311104	1230.19995117188
1089.45004000018	1231.19995117188
1090.13526990771	1230
1090.82041284137	1238
1091.50546880889	1224.19995117188
1092.19043781799	1220.19995117188
1092.87531987642	1227
1093.56011499188	1229.19995117188
1094.24482317212	1223.80004882813
1094.92944442486	1212.19995117188
1095.61397875783	1208.19995117188
1096.29842617876	1195.19995117188
1096.98278669537	1198.40002441406
1097.6670603154	1202.59997558594
1098.35124704656	1203.40002441406
1099.03534689659	1203.80004882813
1099.71935987322	1214.40002441406
1100.40328598416	1216.59997558594
1101.08712523713	1206
1101.77087763988	1201.59997558594
1102.45454320012	1204.40002441406
1103.13812192557	1200
1103.82161382396	1210
1104.50501890301	1216.80004882813
1105.18833717045	1216
1105.87156863399	1216.40002441406
1106.55471330137	1209.80004882813
1107.2377711803	1194.80004882813
1107.9207422785	1190
1108.60362660369	1195.40002441406
1109.2864241636	1194.19995117188
1109.96913496594	1197.40002441406
1110.65175901844	1202.80004882813
1111.33429632882	1213.40002441406
1112.01674690479	1213.40002441406
1112.69911075408	1212.80004882813
1113.38138788439	1219.19995117188
1114.06357830346	1225.19995117188
1114.745682019	1232
1115.42769903872	1234.19995117188
1116.10962937035	1221.80004882813
1116.7914730216	1227
1117.47323000018	1218
1118.15490031382	1222
1118.83648397022	1225.19995117188
1119.51798097712	1215.19995117188
1120.1993913422	1215.40002441406
1120.88071507321	1216.40002441406
1121.56195217784	1223.19995117188
1122.24310266381	1221.19995117188
1122.92416653884	1230
1123.60514381064	1232
1124.28603448692	1227.59997558594
1124.9668385754	1217.59997558594
1125.64755608378	1214.40002441406
1126.32818701978	1221.40002441406
1127.00873139111	1217.80004882813
1127.68918920548	1212.40002441406
1128.3695604706	1211.80004882813
1129.04984519419	1223.40002441406
1129.73004338394	1228.59997558594
1130.41015504758	1226.59997558594
1131.09018019281	1225.80004882813
1131.77011882734	1211.59997558594
1132.44997095888	1217.19995117188
1133.12973659514	1201
1133.80941574381	1192.40002441406
1134.48900841263	1211.40002441406
1135.16851460927	1203.40002441406
1135.84793434147	1206.19995117188
1136.52726761692	1216.40002441406
1137.20651444333	1211.19995117188
1137.8856748284	1218.80004882813
1138.56474877984	1222.19995117188
1139.24373630536	1220
1139.92263741265	1215.19995117188
1140.60145210943	1216
1141.28018040339	1207.80004882813
1141.95882230225	1199.19995117188
1142.6373778137	1205.40002441406
1143.31584694545	1203.80004882813
1143.99422970519	1206.19995117188
1144.67252610064	1209.19995117188
1145.35073613949	1199.59997558594
1146.02885982944	1213
1146.7068971782	1215.59997558594
1147.38484819347	1207.59997558594
1148.06271288294	1212.40002441406
1148.74049125432	1213.80004882813
1149.41818331531	1214.19995117188
1150.0957890736	1208
1150.77330853689	1203.40002441406
1151.45074171289	1205.59997558594
1152.12808860928	1203.40002441406
1152.80534923378	1221.80004882813
1153.48252359407	1223.40002441406
1154.15961169786	1221.40002441406
1154.83661355283	1224.80004882813
1155.51352916669	1214.80004882813
1156.19035854713	1208.59997558594
1156.86710170185	1206.59997558594
1157.54375863855	1211.59997558594
1158.22032936491	1213.80004882813
1158.89681388863	1203.19995117188
1159.57321221741	1204.40002441406
1160.24952435894	1201.40002441406
1160.92575032092	1192.59997558594
1161.60189011103	1176.19995117188
1162.27794373697	1184.40002441406
1162.95391120644	1190
1163.62979252712	1194.80004882813
1164.3055877067	1192.19995117188
1164.98129675288	1194.80004882813
1165.65691967336	1201.40002441406
1166.33245647581	1193.59997558594
1167.00790716792	1205.80004882813
1167.6832717574	1214.40002441406
1168.35855025193	1211.19995117188
1169.0337426592	1198.59997558594
1169.70884898689	1201
1170.3838692427	1197.40002441406
1171.05880343431	1198.59997558594
1171.73365156941	1206
1172.40841365569	1207
1173.08308970083	1203
1173.75767971253	1210.40002441406
1174.43218369847	1200.59997558594
1175.10660166633	1212.80004882813
1175.7809336238	1204.80004882813
1176.45517957857	1202.19995117188
1177.12933953832	1203.59997558594
1177.80341351073	1209.40002441406
1178.47740150349	1216.80004882813
1179.15130352429	1232.80004882813
1179.8251195808	1240.80004882813
1180.49884968071	1236.19995117188
1181.1724938317	1233
1181.84605204145	1226
1182.51952431766	1238.19995117188
1183.19291066799	1234.19995117188
1183.86621110013	1242.80004882813
1184.53942562176	1229.40002441406
1185.21255424057	1225.40002441406
1185.88559696422	1229
1186.55855380041	1214.40002441406
1187.2314247568	1220.59997558594
1187.90420984109	1223.19995117188
1188.57690906095	1221.19995117188
1189.24952242405	1219.80004882813
1189.92204993808	1222.19995117188
1190.59449161071	1224
1191.26684744962	1223.59997558594
1191.93911746249	1218
1192.61130165699	1213.19995117188
1193.28340004081	1200.40002441406
1193.95541262161	1206.40002441406
1194.62733940707	1210.19995117188
1195.29918040487	1210.80004882813
1195.97093562269	1209.40002441406
1196.64260506819	1219.19995117188
1197.31418874905	1218
1197.98568667295	1221.59997558594
1198.65709884755	1212.40002441406
1199.32842528053	1207.80004882813
1199.99966597957	1212.40002441406
1200.67082095234	1212
1201.3418902065	1211
1202.01287374974	1211
1202.68377158971	1208.59997558594
1203.3545837341	1210.40002441406
1204.02531019057	1211
1204.6959509668	1207.80004882813
1205.36650607045	1210.59997558594
1206.03697550919	1217.59997558594
1206.70735929069	1209.59997558594
1207.37765742263	1216.40002441406
1208.04786991266	1211.19995117188
1208.71799676846	1210
1209.38803799769	1209.59997558594
1210.05799360803	1207.19995117188
1210.72786360714	1208
1211.39764800268	1212
1212.06734680233	1208
1212.73696001375	1226.59997558594
1213.4064876446	1214
1214.07592970255	1206.40002441406
1214.74528619526	1205
1215.4145571304	1202.59997558594
1216.08374251564	1213.80004882813
1216.75284235863	1203
1217.42185666704	1197.40002441406
1218.09078544854	1187.59997558594
1218.75962871078	1183.80004882813
1219.42838646143	1194.19995117188
1220.09705870816	1194.19995117188
1220.76564545861	1192.40002441406
1221.43414672046	1202.80004882813
1222.10256250136	1189.59997558594
1222.77089280898	1205.80004882813
1223.43913765098	1203.40002441406
1224.107297035	1214.19995117188
1224.77537096873	1200.80004882813
1225.44335945981	1209.19995117188
1226.1112625159	1202.80004882813
1226.77908014467	1202.80004882813
1227.44681235376	1201.40002441406
1228.11445915085	1203.19995117188
1228.78202054357	1198.19995117188
1229.44949653961	1202.19995117188
1230.11688714659	1201
1230.7841923722	1195.40002441406
1231.45141222407	1197.19995117188
1232.11854670988	1204.19995117188
1232.78559583726	1200.40002441406
1233.45255961388	1204.59997558594
1234.1194380474	1201.80004882813
1234.78623114546	1200.80004882813
1235.45293891572	1203
1236.11956136583	1202.59997558594
1236.78609850345	1205.59997558594
1237.45255033623	1210
1238.11891687182	1208.40002441406
1238.78519811788	1207.59997558594
1239.45139408205	1208.40002441406
1240.11750477198	1203
1240.78353019534	1213.80004882813
1241.44947035976	1206
1242.11532527291	1203.80004882813
1242.78109494242	1210.19995117188
1243.44677937595	1204
1244.11237858115	1201.19995117188
1244.77789256567	1201.59997558594
1245.44332133715	1210
1246.10866490325	1203.40002441406
1246.7739232716	1206.40002441406
1247.43909644987	1210.19995117188
1248.10418444569	1198.59997558594
1248.76918726671	1206.40002441406
1249.43410492059	1210.19995117188
1250.09893741496	1197.19995117188
1250.76368475747	1193.40002441406
1251.42834695576	1191.59997558594
1252.09292401749	1186.80004882813
1252.75741595029	1187.40002441406
1253.42182276182	1180
1254.08614445971	1177.80004882813
1254.75038105161	1191.80004882813
1255.41453254515	1195.40002441406
1256.07859894799	1193.40002441406
1256.74258026777	1186.19995117188
1257.40647651213	1190.40002441406
1258.0702876887	1193.59997558594
1258.73401380514	1194.40002441406
1259.39765486908	1200
1260.06121088817	1203.19995117188
1260.72468187004	1211
1261.38806782233	1205.80004882813
1262.05136875269	1205.80004882813
1262.71458466875	1206
1263.37771557815	1201
1264.04076148854	1196.59997558594
1264.70372240753	1200.40002441406
1265.3665983428	1197
1266.02938930195	1194.19995117188
1266.69209529263	1203
1267.35471632249	1206.80004882813
1268.01725239914	1199.59997558594
1268.67970353024	1189.59997558594
1269.34206972342	1197.59997558594
1270.00435098631	1200.80004882813
1270.66654732655	1195.19995117188
1271.32865875177	1208
1271.9906852696	1202.19995117188
1272.65262688768	1197
1273.31448361365	1201.40002441406
1273.97625545514	1204
1274.63794241978	1198.80004882813
1275.2995445152	1193.80004882813
1275.96106174903	1203
1276.62249412892	1197.40002441406
1277.28384166248	1192
1277.94510435735	1199.59997558594
1278.60628222116	1200.59997558594
1279.26737526155	1207
1279.92838348613	1194.80004882813
1280.58930690255	1202.80004882813
1281.25014551842	1206.19995117188
1281.91089934139	1201
1282.57156837907	1204.40002441406
1283.2321526391	1200.80004882813
1283.89265212911	1192.80004882813
1284.55306685671	1195.80004882813
1285.21339682955	1192.40002441406
1285.87364205525	1186.80004882813
1286.53380254142	1193.80004882813
1287.19387829571	1180
1287.85386932573	1185.40002441406
1288.51377563911	1188
1289.17359724348	1191.80004882813
1289.83333414646	1193.59997558594
1290.49298635567	1197
1291.15255387874	1198.80004882813
1291.8120367233	1209.19995117188
1292.47143489696	1212.59997558594
1293.13074840736	1214.19995117188
1293.7899772621	1217.80004882813
1294.44912146882	1208
1295.10818103513	1213.80004882813
1295.76715596866	1213.59997558594
1296.42604627704	1208
1297.08485196787	1211.40002441406
1297.74357304878	1202.40002441406
1298.4022095274	1201.59997558594
1299.06076141134	1198.19995117188
1299.71922870821	1207.19995117188
1300.37761142565	1198
1301.03590957126	1201.40002441406
1301.69412315268	1201.19995117188
1302.3522521775	1201.40002441406
1303.01029665336	1199.80004882813
1303.66825658787	1194.19995117188
1304.32613198865	1202.80004882813
1304.98392286332	1206.80004882813
1305.64162921948	1202
1306.29925106476	1216.59997558594
1306.95678840677	1204.19995117188
1307.61424125312	1207.80004882813
1308.27160961145	1212.80004882813
1308.92889348934	1210.59997558594
1309.58609289443	1212.59997558594
1310.24320783432	1210.80004882813
1310.90023831664	1215
1311.55718434898	1206
1312.21404593897	1206.80004882813
1312.87082309421	1196.80004882813
1313.52751582233	1202.80004882813
1314.18412413092	1208.59997558594
1314.84064802761	1199.59997558594
1315.49708752	1197.59997558594
1316.1534426157	1216.19995117188
1316.80971332233	1214.59997558594
1317.46589964749	1203.80004882813
1318.1220015988	1206.40002441406
1318.77801918386	1200.80004882813
1319.43395241028	1202.59997558594
1320.08980128567	1201.19995117188
1320.74556581764	1208.40002441406
1321.4012460138	1202.40002441406
1322.05684188176	1191.80004882813
1322.71235342911	1197.19995117188
1323.36778066347	1203.19995117188
1324.02312359245	1204
1324.67838222365	1210
1325.33355656468	1217.19995117188
1325.98864662314	1206
1326.64365240663	1201
1327.29857392277	1195.19995117188
1327.95341117915	1200.40002441406
1328.60816418339	1201.19995117188
1329.26283294308	1195.40002441406
1329.91741746582	1191.19995117188
1330.57191775923	1188.59997558594
1331.2263338309	1208.80004882813
1331.88066568843	1200.19995117188
1332.53491333943	1210
1333.1890767915	1198.40002441406
1333.84315605224	1195.19995117188
1334.49715112925	1194.19995117188
1335.15106203013	1198.59997558594
1335.80488876249	1199
1336.45863133391	1196.19995117188
1337.112289752	1187.59997558594
1337.76586402437	1194.19995117188
1338.4193541586	1203
1339.0727601623	1199
1339.72608204306	1189.59997558594
1340.37931980849	1190
1341.03247346617	1197.40002441406
1341.68554302372	1193.59997558594
1342.33852848871	1196.80004882813
1342.99142986876	1203.40002441406
1343.64424717145	1189.19995117188
1344.29698040438	1200.19995117188
1344.94962957515	1201
1345.60219469135	1198.19995117188
1346.25467576058	1195
1346.90707279042	1179.19995117188
1347.55938578848	1190.40002441406
1348.21161476235	1195.59997558594
1348.86375971962	1202.19995117188
1349.51582066787	1205
1350.16779761472	1210.40002441406
1350.81969056774	1212.59997558594
1351.47149953453	1203.40002441406
1352.12322452269	1220.59997558594
1352.77486553979	1218
1353.42642259344	1214.19995117188
1354.07789569122	1226
1354.72928484072	1220.59997558594
1355.38059004953	1212.19995117188
1356.03181132525	1219.19995117188
1356.68294867545	1212.80004882813
1357.33400210773	1219.19995117188
1357.98497162968	1220.19995117188
1358.63585724889	1213.19995117188
1359.28665897294	1214.40002441406
1359.93737680942	1222.40002441406
1360.58801076591	1234.40002441406
1361.23856085001	1233.59997558594
1361.88902706929	1245.59997558594
1362.53940943135	1247.80004882813
1363.18970794377	1251.59997558594
1363.83992261413	1234.59997558594
1364.49005345003	1234.59997558594
1365.14010045904	1227.19995117188
1365.79006364874	1232.80004882813
1366.43994302673	1221.40002441406
1367.08973860058	1217.59997558594
1367.73945037788	1214
1368.38907836621	1207.59997558594
1369.03862257315	1198.19995117188
1369.68808300629	1194
1370.3374596732	1204.59997558594
1370.98675258148	1197.59997558594
1371.63596173868	1195.59997558594
1372.28508715241	1203.40002441406
1372.93412883024	1197.80004882813
1373.58308677974	1202.59997558594
1374.2319610085	1191.80004882813
1374.8807515241	1197.59997558594
1375.52945833412	1195.80004882813
1376.17808144612	1201.40002441406
1376.82662086771	1207.80004882813
1377.47507660644	1202.80004882813
1378.12344866989	1209.59997558594
1378.77173706565	1205.40002441406
1379.41994180129	1203.80004882813
1380.06806288439	1197.19995117188
1380.71610032252	1191.80004882813
1381.36405412326	1186.59997558594
1382.01192429419	1182.40002441406
1382.65971084287	1187.40002441406
1383.30741377688	1178.80004882813
1383.95503310381	1174.59997558594
1384.60256883121	1178.80004882813
1385.25002096667	1185.40002441406
1385.89738951775	1177.40002441406
1386.54467449204	1170.19995117188
1387.19187589709	1177.19995117188
1387.8389937405	1170.19995117188
1388.48602802982	1161
1389.13297877262	1162
1389.77984597649	1163.80004882813
1390.42662964899	1172
1391.07332979768	1174.80004882813
1391.71994643015	1175
1392.36647955395	1163
1393.01292917667	1171.40002441406
1393.65929530586	1164
1394.3055779491	1165.19995117188
1394.95177711395	1166.19995117188
1395.59789280799	1151.40002441406
1396.24392503877	1153
1396.88987381387	1163.59997558594
1397.53573914086	1161.59997558594
1398.1815210273	1160.19995117188
1398.82721948075	1161
1399.47283450878	1161
1400.11836611897	1173.80004882813
1400.76381431886	1173.40002441406
1401.40917911603	1165.80004882813
1402.05446051805	1172.19995117188
1402.69965853247	1165.59997558594
1403.34477316686	1167
1403.98980442878	1173.19995117188
1404.6347523258	1176.19995117188
1405.27961686548	1174.40002441406
1405.92439805538	1170.40002441406
1406.56909590306	1171.59997558594
1407.21371041608	1170.19995117188
1407.85824160202	1173.19995117188
1408.50268946841	1178.59997558594
1409.14705402284	1178.40002441406
1409.79133527285	1177
1410.43553322601	1174.40002441406
1411.07964788987	1172.59997558594
1411.723679272	1175.80004882813
1412.36762737996	1168.40002441406
1413.01149222129	1170.19995117188
1413.65527380357	1170.59997558594
1414.29897213435	1160.40002441406
1414.94258722118	1162.80004882813
1415.58611907163	1167.80004882813
1416.22956769325	1167.59997558594
1416.87293309359	1172.19995117188
1417.51621528021	1160.59997558594
1418.15941426067	1174
1418.80253004253	1171
1419.44556263333	1164
1420.08851204063	1171.19995117188
1420.731378272	1170.59997558594
1421.37416133497	1163.19995117188
1422.0168612371	1163.59997558594
1422.65947798596	1164.59997558594
1423.30201158908	1165.80004882813
1423.94446205403	1160
1424.58682938835	1164.19995117188
1425.2291135996	1155.80004882813
1425.87131469532	1162.40002441406
1426.51343268308	1160.40002441406
1427.15546757042	1166.19995117188
1427.79741936488	1156.80004882813
1428.43928807403	1161.40002441406
1429.0810737054	1166.59997558594
1429.72277626656	1164
1430.36439576504	1164
1431.00593220841	1180
1431.64738560419	1176
1432.28875595995	1178
1432.93004328324	1179.19995117188
1433.57124758159	1174
1434.21236886255	1170.19995117188
1434.85340713368	1167.40002441406
1435.49436240252	1158.59997558594
1436.13523467661	1157.59997558594
1436.77602396349	1160
1437.41673027073	1164.59997558594
1438.05735360585	1166.59997558594
1438.69789397641	1151.80004882813
1439.33835138994	1160.40002441406
1439.978725854	1156
1440.61901737612	1170.19995117188
1441.25922596385	1169.80004882813
1441.89935162473	1159.40002441406
1442.53939436631	1161.40002441406
1443.17935419612	1167.80004882813
1443.81923112171	1172.59997558594
1444.45902515061	1164.40002441406
1445.09873629038	1171.80004882813
1445.73836454854	1169
1446.37790993265	1172.19995117188
1447.01737245024	1171
1447.65675210885	1176.59997558594
1448.29604891602	1172
1448.93526287928	1162
1449.57439400618	1157.80004882813
1450.21344230426	1165.40002441406
1450.85240778105	1163
1451.49129044409	1166.19995117188
1452.13009030092	1163.40002441406
1452.76880735907	1170.40002441406
1453.40744162608	1169.59997558594
1454.04599310949	1170.40002441406
1454.68446181683	1163.80004882813
1455.32284775564	1166.80004882813
1455.96115093345	1161
1456.5993713578	1162.19995117188
1457.23750903623	1162
1457.87556397626	1162
1458.51353618543	1162.40002441406
1459.15142567127	1172
1459.78923244132	1161
1460.42695650311	1159
1461.06459786417	1172.59997558594
1461.70215653203	1173
1462.33963251423	1170.59997558594
1462.97702581829	1175.40002441406
1463.61433645175	1169.40002441406
1464.25156442214	1179.40002441406
1464.88870973699	1175
1465.52577240382	1170.59997558594
1466.16275243017	1177.80004882813
1466.79964982356	1165
1467.43646459154	1157.59997558594
1468.07319674161	1175.59997558594
1468.70984628132	1183.59997558594
1469.34641321818	1183.40002441406
1469.98289755974	1181.19995117188
1470.6192993135	1176.80004882813
1471.25561848701	1173.19995117188
1471.89185508779	1183.59997558594
1472.52800912336	1175.80004882813
1473.16408060124	1184.40002441406
1473.80006952897	1173
1474.43597591407	1165.80004882813
1475.07179976406	1172
1475.70754108647	1167.59997558594
1476.34319988883	1173.59997558594
1476.97877617865	1174.80004882813
1477.61426996345	1171.59997558594
1478.24968125077	1165.40002441406
1478.88501004812	1167.59997558594
1479.52025636303	1155.80004882813
1480.15542020302	1161.40002441406
1480.79050157561	1162.19995117188
1481.42550048832	1159
1482.06041694867	1160.80004882813
1482.69525096418	1171
1483.33000254237	1157.80004882813
1483.96467169077	1177.80004882813
1484.59925841689	1158.19995117188
1485.23376272825	1169.40002441406
1485.86818463237	1164.59997558594
1486.50252413677	1167
1487.13678124896	1162.40002441406
1487.77095597646	1165.59997558594
1488.4050483268	1168.40002441406
1489.03905830749	1159.59997558594
1489.67298592604	1171
1490.30683118996	1168.80004882813
1490.9405941068	1164.80004882813
1491.57427468403	1165.80004882813
1492.2078729292	1171.40002441406
1492.84138884981	1173
1493.47482245338	1180.19995117188
1494.10817374742	1178.59997558594
1494.74144273944	1178.80004882813
1495.37462943696	1178.80004882813
1496.0077338475	1176
1496.64075597856	1182.80004882813
1497.27369583765	1184.19995117188
1497.9065534323	1178.59997558594
1498.53932877001	1172.59997558594
1499.17202185829	1175.80004882813
1499.80463270465	1175.59997558594
1500.43716131661	1180.19995117188
1501.06960770167	1174.59997558594
1501.70197186735	1182
1502.33425382116	1192.40002441406
1502.96645357059	1191
1503.59857112317	1197.59997558594
1504.23060648641	1196
1504.8625596678	1201
1505.49443067486	1192.80004882813
1506.1262195151	1191
1506.75792619602	1181.40002441406
1507.38955072513	1200.80004882813
1508.02109310993	1189.40002441406
1508.65255335794	1192.19995117188
1509.28393147666	1187.80004882813
1509.91522747359	1189.80004882813
1510.54644135624	1179.59997558594
1511.17757313212	1175.59997558594
1511.80862280872	1170.40002441406
1512.43959039356	1177.19995117188
1513.07047589413	1183.59997558594
1513.70127931795	1172.40002441406
1514.33200067251	1173
1514.96263996531	1175.40002441406
1515.59319720386	1174.19995117188
1516.22367239567	1172.59997558594
1516.85406554822	1175.80004882813
1517.48437666903	1167.40002441406
1518.1146057656	1167
1518.74475284542	1159.59997558594
1519.374817916	1162.59997558594
1520.00480098483	1164.59997558594
1520.63470205942	1163.19995117188
1521.26452114726	1175.80004882813
1521.89425825586	1168.59997558594
1522.52391339271	1165.40002441406
1523.15348656531	1163.19995117188
1523.78297778116	1168.80004882813
1524.41238704775	1166.80004882813
1525.04171437259	1173.40002441406
1525.67095976317	1160.80004882813
1526.30012322699	1160.19995117188
1526.92920477154	1166.59997558594
1527.55820440432	1167.40002441406
1528.18712213283	1170.59997558594
1528.81595796455	1159.80004882813
1529.44471190699	1160.40002441406
1530.07338396764	1157.59997558594
1530.70197415399	1160.19995117188
1531.33048247353	1167.19995117188
1531.95890893377	1155.40002441406
1532.58725354219	1157.40002441406
1533.21551630629	1158.19995117188
1533.84369723356	1168.80004882813
1534.47179633148	1170.59997558594
1535.09981360757	1162.40002441406
1535.72774906929	1166.40002441406
1536.35560272415	1165.40002441406
1536.98337457963	1173
1537.61106464323	1168.59997558594
1538.23867292243	1166.19995117188
1538.86619942473	1159.19995117188
1539.49364415762	1148.19995117188
1540.12100712857	1143.40002441406
1540.74828834509	1148.80004882813
1541.37548781466	1155.59997558594
1542.00260554478	1154.40002441406
1542.62964154291	1149.80004882813
1543.25659581655	1144.40002441406
1543.8834683732	1153.59997558594
1544.51025922034	1155.19995117188
1545.13696836544	1165.59997558594
1545.76359581601	1150.59997558594
1546.39014157952	1148.19995117188
1547.01660566345	1146
1547.64298807531	1153.80004882813
1548.26928882255	1161
1548.89550791269	1143
1549.52164535318	1148.19995117188
1550.14770115153	1151.19995117188
1550.77367531521	1140.80004882813
1551.39956785171	1150
1552.0253787685	1145.80004882813
1552.65110807307	1140.80004882813
1553.2767557729	1137.80004882813
1553.90232187548	1143.19995117188
1554.52780638828	1144
1555.15320931879	1144.59997558594
1555.77853067447	1145.80004882813
1556.40377046282	1149.59997558594
1557.02892869132	1145.19995117188
1557.65400536744	1151
1558.27900049866	1143.40002441406
1558.90391409247	1139.59997558594
1559.52874615633	1141.19995117188
1560.15349669773	1141
1560.77816572414	1137.19995117188
1561.40275324305	1139.19995117188
1562.02725926192	1149
1562.65168378824	1147.19995117188
1563.27602682948	1150.80004882813
1563.90028839311	1147.80004882813
1564.52446848662	1152.40002441406
1565.14856711748	1155.59997558594
1565.77258429316	1153.40002441406
1566.39652002113	1154
1567.02037430887	1159.59997558594
1567.64414716387	1158.59997558594
1568.26783859357	1159.40002441406
1568.89144860547	1161.40002441406
1569.51497720703	1157.59997558594
1570.13842440573	1158.80004882813
1570.76179020904	1161
1571.38507462442	1159.19995117188
1572.00827765936	1164.19995117188
1572.63139932132	1178.19995117188
1573.25443961777	1156.80004882813
1573.87739855618	1159
1574.50027614402	1162.59997558594
1575.12307238877	1160.19995117188
1575.74578729789	1151.80004882813
1576.36842087885	1150.40002441406
1576.99097313912	1147.80004882813
1577.61344408616	1145
1578.23583372745	1144.59997558594
1578.85814207046	1150
1579.48036912264	1153.59997558594
1580.10251489147	1152.40002441406
1580.72457938441	1156.19995117188
1581.34656260893	1146.59997558594
1581.9684645725	1140
1582.59028528258	1142.80004882813
1583.21202474663	1145.40002441406
1583.83368297212	1137.59997558594
1584.45525996652	1142
1585.07675573728	1126.59997558594
1585.69817029188	1134.80004882813
1586.31950363778	1139.80004882813
1586.94075578243	1137
1587.5619267333	1140.59997558594
1588.18301649786	1144
1588.80402508357	1141.40002441406
1589.42495249788	1146.80004882813
1590.04579874826	1147.19995117188
1590.66656384217	1153.59997558594
1591.28724778707	1141
1591.90785059042	1148.40002441406
1592.52837225968	1134.19995117188
1593.14881280232	1136
1593.76917222578	1134.80004882813
1594.38945053753	1129.80004882813
1595.00964774502	1132
1595.62976385573	1137.19995117188
1596.24979887709	1129.59997558594
1596.86975281657	1134
1597.48962568164	1135.59997558594
1598.10941747974	1143
1598.72912821832	1139.40002441406
1599.34875790486	1134
1599.9683065468	1133
1600.58777415159	1132.80004882813
1601.2071607267	1124.19995117188
1601.82646627958	1120.59997558594
1602.44569081769	1136.80004882813
1603.06483434846	1133.40002441406
1603.68389687937	1131.59997558594
1604.30287841786	1128
1604.92177897139	1123.19995117188
1605.54059854741	1119.59997558594
1606.15933715337	1112.19995117188
1606.77799479672	1116.19995117188
1607.39657148492	1111.59997558594
1608.01506722542	1104.59997558594
1608.63348202566	1109.80004882813
1609.2518158931	1106.80004882813
1609.87006883519	1114.19995117188
1610.48824085939	1103.40002441406
1611.10633197312	1107.80004882813
1611.72434218386	1115.19995117188
1612.34227149904	1103
1612.96011992612	1110.40002441406
1613.57788747254	1113
1614.19557414575	1116.40002441406
1614.8131799532	1107.59997558594
1615.43070490234	1114.59997558594
1616.04814900061	1106.40002441406
1616.66551225545	1094.59997558594
1617.28279467433	1096
1617.89999626467	1094.59997558594
1618.51711703393	1094.59997558594
1619.13415698955	1092.80004882813
1619.75111613898	1114.19995117188
1620.36799448966	1110.40002441406
1620.98479204903	1112.40002441406
1621.60150882455	1111.80004882813
1622.21814482364	1107
1622.83470005376	1114.19995117188
1623.45117452235	1109.80004882813
1624.06756823685	1111.59997558594
1624.6838812047	1114.80004882813
1625.30011343335	1107
1625.91626493022	1112
1626.53233570278	1107.40002441406
1627.14832575845	1109.59997558594
1627.76423510468	1114.19995117188
1628.38006374891	1118.40002441406
1628.99581169857	1117.59997558594
1629.61147896111	1121.19995117188
1630.22706554397	1119.40002441406
1630.84257145457	1109.80004882813
1631.45799670038	1108.59997558594
1632.07334128881	1109.40002441406
1632.6886052273	1111.80004882813
1633.3037885233	1104.40002441406
1633.91889118425	1106.19995117188
1634.53391321757	1107.40002441406
1635.1488546307	1103.40002441406
1635.76371543108	1115
1636.37849562616	1120.59997558594
1636.99319522335	1119.80004882813
1637.60781423009	1112.80004882813
1638.22235265383	1108.80004882813
1638.83681050198	1110.59997558594
1639.451187782	1108.80004882813
1640.0654845013	1114
1640.67970066734	1114.80004882813
1641.29383628752	1110.80004882813
1641.9078913693	1114.40002441406
1642.5218659201	1111.59997558594
1643.13575994735	1113
1643.74957345849	1120
1644.36330646094	1113.19995117188
1644.97695896213	1122.40002441406
1645.59053096951	1119.59997558594
1646.20402249049	1131.59997558594
1646.8174335325	1128.80004882813
1647.43076410298	1132.80004882813
1648.04401420935	1134.80004882813
1648.65718385905	1129
1649.2702730595	1132.19995117188
1649.88328181812	1127.19995117188
1650.49621014236	1130.80004882813
1651.10905803963	1130
1651.72182551735	1116.19995117188
1652.33451258297	1119
1652.9471192439	1121.80004882813
1653.55964550757	1122.19995117188
1654.1720913814	1111.80004882813
1654.78445687283	1108.59997558594
1655.39674198926	1110
1656.00894673814	1100.59997558594
1656.62107112688	1093.40002441406
1657.23311516291	1088.59997558594
1657.84507885365	1095.80004882813
1658.45696220652	1093
1659.06876522895	1099.59997558594
1659.68048792835	1096.19995117188
1660.29213031217	1099
1660.90369238779	1092.80004882813
1661.51517416267	1107
1662.12657564421	1102.80004882813
1662.73789683984	1102.40002441406
1663.34913775697	1101.19995117188
1663.96029840303	1104.59997558594
1664.57137878544	1091
1665.18237891161	1085.80004882813
1665.79329878897	1086
1666.40413842493	1079.40002441406
1667.01489782691	1083.59997558594
1667.62557700233	1070.59997558594
1668.2361759586	1078.80004882813
1668.84669470315	1070.59997558594
1669.4571332434	1076.40002441406
1670.06749158675	1074.80004882813
1670.67776974062	1072.59997558594
1671.28796771243	1076.40002441406
1671.8980855096	1062.80004882813
1672.50812313954	1068
1673.11808060967	1070.40002441406
1673.72795792739	1071.40002441406
1674.33775510013	1070
1674.9474721353	1077.80004882813
1675.55710904031	1090.59997558594
1676.16666582257	1087
1676.7761424895	1081.19995117188
1677.38553904851	1078.19995117188
1677.99485550702	1077
1678.60409187243	1076.40002441406
1679.21324815215	1083.40002441406
1679.8223243536	1076
1680.43132048419	1076.80004882813
1681.04023655132	1074.59997558594
1681.64907256241	1082.59997558594
1682.25782852487	1074
1682.86650444611	1075.19995117188
1683.47510033353	1078
1684.08361619455	1070.80004882813
1684.69205203657	1064.40002441406
1685.300407867	1071
1685.90868369325	1066.19995117188
1686.51687952272	1059.19995117188
1687.12499536283	1064.19995117188
1687.73303122098	1057
1688.34098710457	1053.80004882813
1688.94886302101	1059.40002441406
1689.55665897772	1053.80004882813
1690.16437498208	1062.80004882813
1690.77201104152	1063
1691.37956716342	1052.80004882813
1691.9870433552	1056.80004882813
1692.59443962426	1057.40002441406
1693.20175597801	1052.19995117188
1693.80899242384	1048.80004882813
1694.41614896916	1053
1695.02322562138	1049.59997558594
1695.63022238789	1048.59997558594
1696.23713927609	1046.59997558594
1696.8439762934	1046.59997558594
1697.4507334472	1051
1698.05741074491	1048
1698.66400819391	1058
1699.27052580161	1054.80004882813
1699.87696357542	1061
1700.48332152272	1058
1701.08959965092	1055
1701.69579796742	1057.59997558594
1702.30191647962	1051.59997558594
1702.90795519491	1049.59997558594
1703.51391412069	1042.19995117188
1704.11979326437	1043.19995117188
1704.72559263332	1038.59997558594
1705.33131223496	1036
1705.93695207668	1047
1706.54251216588	1038.59997558594
1707.14799250994	1043.59997558594
1707.75339311628	1044
1708.35871399227	1043.40002441406
1708.96395514532	1035.59997558594
1709.56911658282	1039.40002441406
