634.948122577771	1626.80004882813
635.690341530823	1630.19995117188
636.43246851086	1622.59997558594
637.174503525845	1624.80004882813
637.916446583745	1635
638.658297692538	1612
639.400056860179	1622.59997558594
640.141724094637	1603.80004882813
640.883299403885	1615.80004882813
641.62478279588	1609.80004882813
642.366174278594	1604.40002441406
643.107473859989	1602.40002441406
643.848681548029	1597.19995117188
644.589797350679	1615.59997558594
645.330821275901	1621.19995117188
646.071753331665	1627.19995117188
646.812593525922	1637.40002441406
647.553341866646	1641.40002441406
648.293998361798	1631.59997558594
649.03456301933	1637.19995117188
649.775035847216	1637.59997558594
650.515416853409	1647.19995117188
651.255706045874	1667.40002441406
651.995903432568	1661.59997558594
652.736009021453	1667.40002441406
653.476022820486	1669.80004882813
654.215944837629	1667
654.955775080842	1657
655.695513558081	1638.80004882813
656.435160277301	1636
657.174715246465	1658.59997558594
657.914178473527	1649.40002441406
658.653549966449	1656.59997558594
659.392829733176	1637
660.132017781678	1614.19995117188
660.871114119901	1623.80004882813
661.610118755803	1632.80004882813
662.349031697343	1643
663.087852952468	1653
663.826582529139	1652.80004882813
664.565220435305	1656
665.30376667892	1648.80004882813
666.04222126794	1641
666.780584210316	1656.59997558594
667.518855514	1647
668.25703518694	1640.19995117188
668.995123237096	1655.19995117188
669.733119672413	1658.19995117188
670.471024500842	1653
671.208837730333	1669.59997558594
671.946559368839	1677.80004882813
672.684189424308	1677.40002441406
673.421727904689	1685.59997558594
674.159174817929	1678
674.896530171977	1688
675.633793974786	1694
676.370966234295	1693
677.108046958461	1682.80004882813
677.845036155219	1677
678.581933832528	1672.19995117188
679.318739998323	1696.80004882813
680.055454660558	1681.80004882813
680.792077827172	1708.80004882813
681.528609506116	1692.40002441406
682.265049705331	1690.19995117188
683.001398432759	1673.59997558594
683.737655696349	1680.59997558594
684.47382150404	1679
685.20989586378	1679.59997558594
685.945878783503	1673.59997558594
686.68177027116	1664.40002441406
687.417570334688	1678
688.153278982032	1671
688.888896221129	1683.80004882813
689.624422059921	1677.59997558594
690.359856506349	1682.80004882813
691.095199568354	1698.59997558594
691.830451253874	1698.80004882813
692.565611570844	1701
693.300680527212	1700.19995117188
694.03565813091	1700.59997558594
694.770544389877	1695.80004882813
695.505339312053	1691.80004882813
696.240042905372	1694.59997558594
696.974655177772	1691
697.70917613719	1693.19995117188
698.443605791561	1698.59997558594
699.177944148826	1706
699.912191216909	1707
700.646347003755	1697.19995117188
701.380411517295	1697.40002441406
702.114384765465	1676.40002441406
702.848266756195	1669.40002441406
703.582057497421	1653.40002441406
704.315756997074	1657.80004882813
705.049365263089	1683.59997558594
705.782882303399	1690.19995117188
706.516308125936	1692
707.249642738626	1709.19995117188
707.982886149403	1719.40002441406
708.716038366204	1728.59997558594
709.449099396949	1734
710.182069249577	1707.19995117188
710.914947932009	1691
711.647735452181	1653
712.380431818022	1664
713.113037037454	1672.59997558594
713.845551118411	1683.80004882813
714.577974068818	1675.40002441406
715.310305896604	1675.59997558594
716.042546609694	1690.40002441406
716.774696216013	1683.40002441406
717.506754723493	1697.40002441406
718.238722140053	1686.40002441406
718.970598473624	1680.80004882813
719.702383732127	1692.40002441406
720.43407792349	1682.19995117188
721.165681055634	1696.59997558594
721.897193136486	1706
722.628614173966	1693.59997558594
723.359944175997	1717.80004882813
724.091183150505	1738
724.822331105412	1737.19995117188
725.553388048638	1724.80004882813
726.284353988106	1711.80004882813
727.015228931734	1689.59997558594
727.746012887449	1697.19995117188
728.476705863162	1693
729.207307866803	1691.19995117188
729.937818906289	1691.19995117188
730.668238989535	1696.40002441406
731.398568124459	1719.80004882813
732.128806318986	1711.59997558594
732.858953581034	1704
733.589009918514	1699
734.318975339348	1710.80004882813
735.048849851452	1713
735.778633462744	1715.40002441406
736.508326181137	1707.59997558594
737.237928014549	1712
737.967438970897	1687.19995117188
738.696859058095	1692.80004882813
739.426188284054	1693.40002441406
740.155426656692	1725.59997558594
740.884574183922	1726.19995117188
741.613630873659	1737
742.342596733815	1710.40002441406
743.071471772302	1714.19995117188
743.800255997034	1687.59997558594
744.528949415921	1700.80004882813
745.257552036877	1701.59997558594
745.986063867811	1702
746.714484916638	1704.40002441406
747.442815191261	1693.59997558594
748.171054699597	1715.40002441406
748.899203449554	1719.80004882813
749.627261449039	1725
750.355228705966	1729.40002441406
751.083105228239	1724
751.810891023765	1726.80004882813
752.538586100459	1723
753.266190466218	1722
753.99370412896	1740.59997558594
754.721127096582	1740.80004882813
755.448459377	1722.19995117188
756.175700978114	1733
756.902851907828	1723
757.629912174055	1730.80004882813
758.356881784688	1731.19995117188
759.083760747639	1727
759.810549070817	1741.80004882813
760.537246762113	1723.80004882813
761.263853829442	1746.80004882813
761.990370280698	1734.19995117188
762.716796123791	1745.59997558594
763.443131366618	1737.19995117188
764.169376017082	1739.40002441406
764.895530083085	1738.80004882813
765.621593572527	1729.59997558594
766.347566493312	1740.40002441406
767.073448853336	1745.40002441406
767.799240660502	1773
768.524941922707	1817.19995117188
769.250552647854	1837.19995117188
769.976072843836	1809.40002441406
770.701502518551	1844
771.426841679905	1823
772.152090335793	1811
772.877248494107	1815.59997558594
773.602316162747	1821.40002441406
774.327293349609	1814.40002441406
775.052180062592	1817.59997558594
775.776976309589	1811.40002441406
776.501682098496	1807.19995117188
777.226297437206	1795.59997558594
777.950822333616	1799.19995117188
778.675256795621	1776.59997558594
779.399600831111	1781.80004882813
780.123854447983	1765
780.84801765413	1746.40002441406
781.572090457441	1753
782.296072865811	1732.19995117188
783.019964887131	1719
783.743766529297	1705
784.467477800194	1705.80004882813
785.191098707719	1702
785.914629259756	1701.59997558594
786.638069464194	1726.40002441406
787.361419328932	1730.59997558594
788.084678861852	1722.40002441406
788.807848070845	1717.59997558594
789.530926963798	1705.40002441406
790.253915548602	1712
790.976813833144	1711.80004882813
791.699621825307	1716.19995117188
792.422339532986	1737.40002441406
793.144966964061	1744
793.86750412642	1751.80004882813
794.589951027946	1747.40002441406
795.312307676536	1764.80004882813
796.03457408006	1752
796.756750246417	1713.19995117188
797.478836183477	1720.80004882813
798.200831899137	1699.40002441406
798.92273740127	1715
799.644552697769	1719.40002441406
800.36627779651	1718.40002441406
801.087912705374	1721.80004882813
801.809457432251	1725.19995117188
802.530911985017	1720.80004882813
803.252276371558	1721.59997558594
803.973550599748	1721.19995117188
804.694734677472	1718.19995117188
805.415828612611	1726.59997558594
806.136832413045	1736.59997558594
806.857746086646	1730.80004882813
807.578569641305	1720.40002441406
808.299303084892	1719.80004882813
809.019946425289	1730.40002441406
809.740499670372	1731.80004882813
810.460962828022	1725
811.181335906114	1716.80004882813
811.901618912524	1705.19995117188
812.621811855131	1712
813.341914741809	1719.80004882813
814.061927580433	1703.59997558594
814.781850378881	1711.80004882813
815.501683145025	1713.59997558594
816.221425886743	1716.40002441406
816.941078611903	1726.80004882813
817.660641328387	1735
818.380114044065	1755.40002441406
819.099496766808	1750.59997558594
819.818789504492	1747.19995117188
820.53799226499	1720.59997558594
821.257105056168	1725
821.976127885904	1726
822.695060762064	1725.40002441406
823.413903692525	1699.40002441406
824.132656685151	1725.59997558594
824.851319747817	1736.59997558594
825.569892888388	1733.80004882813
826.288376114739	1722.40002441406
827.006769434737	1711.80004882813
827.725072856249	1730.59997558594
828.443286387142	1738
829.161410035285	1722.40002441406
829.87944380855	1709.19995117188
830.597387714798	1730.59997558594
831.315241761898	1747.80004882813
832.033005957715	1736
832.750680310119	1741.80004882813
833.468264826969	1732.59997558594
834.18575951614	1723.59997558594
834.903164385486	1713.19995117188
835.620479442878	1706.40002441406
836.337704696181	1713.19995117188
837.054840153255	1710.19995117188
837.771885821962	1712.19995117188
838.488841710172	1720.59997558594
839.20570782574	1721.40002441406
839.922484176531	1717.80004882813
840.639170770409	1706.59997558594
841.355767615231	1714.59997558594
842.072274718864	1695.40002441406
842.788692089164	1700.40002441406
843.505019733993	1713.80004882813
844.221257661209	1707.19995117188
844.937405878676	1700.19995117188
845.65346439425	1699.80004882813
846.369433215789	1703.19995117188
847.085312351156	1713.80004882813
847.801101808205	1716.40002441406
848.516801594793	1727.80004882813
849.232411718781	1700.80004882813
849.947932188021	1693.40002441406
850.663363010376	1706.40002441406
851.378704193698	1691.59997558594
852.093955745842	1722
852.809117674669	1709.59997558594
853.524189988028	1723.40002441406
854.239172693778	1721.59997558594
854.954065799768	1726.40002441406
855.668869313857	1707.40002441406
856.383583243899	1713
857.098207597743	1725.19995117188
857.812742383246	1723
858.527187608255	1703.59997558594
859.241543280628	1701.59997558594
859.955809408218	1713.40002441406
860.669985998868	1724.80004882813
861.384073060437	1725.59997558594
862.098070600772	1720.40002441406
862.811978627724	1713.19995117188
863.52579714914	1724
864.239526172873	1717.59997558594
864.953165706776	1728.80004882813
865.666715758687	1749.19995117188
866.380176336464	1721.80004882813
867.093547447951	1727
867.806829100996	1734.19995117188
868.520021303444	1735.40002441406
869.233124063149	1736.40002441406
869.94613738795	1725.40002441406
870.659061285693	1711.19995117188
871.37189576423	1718
872.084640831403	1723
872.797296495057	1716.80004882813
873.509862763039	1715.59997558594
874.22233964319	1713.40002441406
874.934727143353	1704
875.647025271374	1724.59997558594
876.359234035097	1727.19995117188
877.071353442361	1718.59997558594
877.783383501015	1713.19995117188
878.495324218895	1705
879.207175603844	1700.40002441406
879.918937663705	1695
880.630610406318	1700.40002441406
881.342193839524	1686.59997558594
882.053687971161	1699.19995117188
882.765092809069	1698.19995117188
883.476408361091	1682.80004882813
884.187634635066	1685.80004882813
884.898771638828	1688
885.609819380221	1671
886.320777867076	1674.59997558594
887.031647107236	1682.40002441406
887.742427108536	1685.19995117188
888.453117878816	1691.80004882813
889.16371942591	1702.59997558594
889.874231757652	1707
890.584654881883	1729.19995117188
891.294988806434	1727.59997558594
892.005233539141	1726.80004882813
892.715389087837	1728.19995117188
893.42545546036	1723.59997558594
894.135432664543	1708.40002441406
894.845320708216	1726.19995117188
895.555119599216	1717.80004882813
896.264829345375	1710.59997558594
896.974449954526	1720.19995117188
897.683981434496	1729.40002441406
898.393423793125	1732
899.102777038235	1727
899.812041177664	1718.40002441406
900.521216219239	1732.40002441406
901.230302170793	1736.59997558594
901.939299040155	1715.59997558594
902.64820683515	1722.40002441406
903.357025563612	1714.19995117188
904.065755233368	1698.19995117188
904.774395852247	1694.59997558594
905.482947428076	1698.59997558594
906.191409968682	1692.80004882813
906.899783481897	1701
907.608067975538	1675.19995117188
908.316263457443	1680.40002441406
909.02436993543	1696
909.732387417327	1675.40002441406
910.440315910959	1704.19995117188
911.148155424154	1699.40002441406
911.855905964731	1708.59997558594
912.563567540521	1702.40002441406
913.271140159339	1701.59997558594
913.978623829017	1715.80004882813
914.686018557374	1713.59997558594
915.393324352237	1734
916.100541221421	1743.80004882813
916.807669172752	1757
917.514708214054	1762.80004882813
918.221658353142	1764.59997558594
918.928519597843	1744
919.635291955976	1726.59997558594
920.341975435358	1713.80004882813
921.048570043813	1698.59997558594
921.75507578916	1678.40002441406
922.461492679212	1669
923.167820721795	1682
923.874059924726	1678.19995117188
924.58021029582	1686.80004882813
925.286271842893	1695.80004882813
925.992244573769	1704
926.698128496262	1707.80004882813
927.403923618184	1715.19995117188
928.109629947355	1706.80004882813
928.815247491593	1716.59997558594
929.520776258708	1712.40002441406
930.226216256519	1705.59997558594
930.931567492841	1709.40002441406
931.636829975482	1721
932.342003712263	1712
933.047088710995	1729.19995117188
933.752084979491	1705
934.456992525564	1710.19995117188
935.161811357024	1704.40002441406
935.866541481688	1701.80004882813
936.571182907363	1704.59997558594
937.275735641861	1700.40002441406
937.980199692995	1696
938.684575068572	1682.80004882813
939.388861776411	1685.19995117188
940.093059824311	1691.40002441406
940.797169220085	1684.19995117188
941.501189971544	1687.40002441406
942.205122086495	1696.80004882813
942.908965572751	1703.40002441406
943.612720438111	1686.19995117188
944.316386690391	1694.59997558594
945.019964337391	1692
945.723453386924	1683.59997558594
946.426853846795	1682.59997558594
947.130165724808	1693.80004882813
947.83338902877	1702.19995117188
948.536523766488	1717
949.239569945764	1711.80004882813
949.942527574402	1696.40002441406
950.64539666021	1713.80004882813
951.348177210993	1705
952.050869234548	1720
952.753472738683	1711.80004882813
953.455987731199	1679.40002441406
954.158414219898	1687
954.860752212587	1695.80004882813
955.563001717061	1692.40002441406
956.265162741124	1691
956.967235292576	1685.19995117188
957.669219379224	1662.40002441406
958.371115008857	1671
959.072922189283	1685.59997558594
959.774640928301	1692
960.476271233708	1703.59997558594
961.177813113301	1710.19995117188
961.879266574882	1701
962.580631626248	1696.19995117188
963.281908275194	1697.40002441406
963.98309652952	1699.40002441406
964.684196397022	1711.19995117188
965.3852078855	1677.19995117188
966.086131002745	1686.40002441406
966.786965756555	1681.19995117188
967.487712154726	1696
968.188370205055	1677
968.888939915331	1669.59997558594
969.589421293352	1676.40002441406
970.289814346909	1667.19995117188
970.990119083801	1680.59997558594
971.690335511819	1674.40002441406
972.39046363875	1688
973.090503472398	1695.59997558594
973.790455020545	1702.19995117188
974.490318290987	1719.19995117188
975.190093291516	1715.80004882813
975.889780029923	1700.40002441406
976.589378513998	1702.59997558594
977.288888751527	1685.40002441406
977.988310750308	1687
978.687644518122	1694.40002441406
979.386890062767	1681.19995117188
980.086047392025	1689.19995117188
980.785116513689	1713
981.484097435542	1704
982.182990165377	1700.80004882813
982.88179471098	1691.59997558594
983.580511080137	1676.59997558594
984.279139280632	1681.59997558594
984.977679320253	1656.59997558594
985.67613120679	1678.80004882813
986.374494948027	1668.59997558594
987.072770551745	1684
987.770958025731	1672.80004882813
988.469057377772	1670.59997558594
989.167068615649	1675.19995117188
989.864991747145	1676.40002441406
990.562826780047	1696.80004882813
991.260573722134	1687
991.958232581195	1698.40002441406
992.655803365003	1700.19995117188
993.353286081346	1674
994.050680738006	1680
994.74798734276	1674.59997558594
995.44520590339	1674.19995117188
996.142336427681	1684.59997558594
996.839378923407	1665.40002441406
997.536333398348	1671.40002441406
998.233199860289	1700
998.929978317004	1684.80004882813
999.626668776274	1696.80004882813
1000.32327124587	1697.59997558594
1001.01978573359	1694.40002441406
1001.71621224718	1697.59997558594
1002.41255079445	1682
1003.10880138315	1700
1003.80496402107	1678.40002441406
1004.50103871599	1680.40002441406
1005.19702547567	1678.40002441406
1005.8929243079	1673.19995117188
1006.58873522045	1667.80004882813
1007.2844582211	1674
1007.98009331761	1684.80004882813
1008.67564051776	1675
1009.37109982933	1662.80004882813
1010.06647126009	1671
1010.7617548178	1663.40002441406
1011.45695051026	1651.19995117188
1012.15205834522	1675.59997558594
1012.84707833045	1674.80004882813
1013.54201047373	1663.80004882813
1014.23685478284	1662
1014.93161126553	1662
1015.62627992959	1648
1016.32086078277	1654.80004882813
1017.01535383285	1675
1017.70975908761	1689
1018.40407655479	1690.59997558594
1019.09830624219	1676.59997558594
1019.79244815755	1684.80004882813
1020.48650230866	1677.80004882813
1021.18046870328	1668.19995117188
1021.87434734917	1676.19995117188
1022.56813825411	1667.80004882813
1023.26184142584	1677.59997558594
1023.95545687216	1704.80004882813
1024.64898460082	1691.40002441406
1025.34242461957	1679.80004882813
1026.0357769362	1691.59997558594
1026.72904155846	1681.80004882813
1027.42221849412	1688.59997558594
1028.11530775094	1693
1028.80830933668	1680.59997558594
1029.50122325911	1667.59997558594
1030.19404952599	1666.59997558594
1030.88678814508	1671
1031.57943912414	1677.19995117188
1032.27200247093	1686.19995117188
1032.96447819323	1679.80004882813
1033.65686629878	1670.59997558594
1034.34916679534	1678
1035.04137969068	1668.40002441406
1035.73350499256	1665.40002441406
1036.42554270874	1660.59997558594
1037.11749284697	1671
1037.80935541501	1673
1038.50113042062	1671
1039.19281787156	1665.59997558594
1039.88441777559	1645.80004882813
1040.57593014046	1646.19995117188
1041.26735497393	1643
1041.95869228376	1648.40002441406
1042.6499420777	1646.59997558594
1043.3411043635	1656.59997558594
1044.03217914893	1649.59997558594
1044.72316644174	1631
1045.41406624968	1641.80004882813
1046.1048785805	1652.59997558594
1046.79560344197	1650.59997558594
1047.48624084182	1660.59997558594
1048.17679078783	1668.19995117188
1048.86725328774	1660.19995117188
1049.55762834929	1657.80004882813
1050.24791598025	1643
1050.93811618837	1650
1051.62822898139	1640
1052.31825436707	1645.19995117188
1053.00819235315	1666.40002441406
1053.6980429474	1661.59997558594
1054.38780615755	1664.59997558594
1055.07748199136	1664.40002441406
1055.76707045658	1654.40002441406
1056.45657156095	1654.19995117188
1057.14598531222	1669.40002441406
1057.83531171814	1663.19995117188
1058.52455078646	1670.40002441406
1059.21370252494	1671
1059.90276694129	1653.19995117188
1060.5917440433	1670
1061.28063383868	1650.80004882813
1061.9694363352	1656
1062.65815154059	1661.19995117188
1063.34677946261	1667.40002441406
1064.03532010899	1663
1064.72377348748	1664.80004882813
1065.41213960583	1673.40002441406
1066.10041847177	1664.40002441406
1066.78861009306	1666.80004882813
1067.47671447743	1674.80004882813
1068.16473163263	1667.80004882813
1068.85266156639	1681.19995117188
1069.54050428647	1665.19995117188
1070.2282598006	1662.40002441406
1070.91592811652	1659
1071.60350924198	1657
1072.29100318471	1662.80004882813
1072.97840995245	1652.80004882813
1073.66572955295	1647.40002441406
1074.35296199394	1648
1075.04010728316	1628.40002441406
1075.72716542836	1637.59997558594
1076.41413643726	1639.80004882813
1077.10102031761	1627
1077.78781707715	1635.80004882813
1078.4745267236	1645.40002441406
1079.16114926471	1635.40002441406
1079.84768470822	1638.40002441406
1080.53413306185	1649.19995117188
1081.22049433336	1642.19995117188
1081.90676853046	1636.19995117188
1082.5929556609	1640
1083.27905573241	1637.40002441406
1083.96506875272	1639.19995117188
1084.65099472957	1648
1085.3368336707	1678.59997558594
1086.02258558383	1674.59997558594
1086.70825047669	1666.59997558594
1087.39382835703	1689.40002441406
1088.07931923257	1670
1088.76472311104	1669.40002441406
1089.45004000018	1670.80004882813
1090.13526990771	1678
1090.82041284137	1693.59997558594
1091.50546880889	1698.80004882813
1092.19043781799	1697
1092.87531987642	1681.19995117188
1093.56011499188	1688.40002441406
1094.24482317212	1699.59997558594
1094.92944442486	1675.19995117188
1095.61397875783	1683.40002441406
1096.29842617876	1662
1096.98278669537	1658.80004882813
1097.6670603154	1655
1098.35124704656	1665.19995117188
1099.03534689659	1677.40002441406
1099.71935987322	1669.19995117188
1100.40328598416	1667.59997558594
1101.08712523713	1654
1101.77087763988	1651.40002441406
1102.45454320012	1664.59997558594
1103.13812192557	1644.19995117188
1103.82161382396	1641.80004882813
1104.50501890301	1635
1105.18833717045	1639.40002441406
1105.87156863399	1637.59997558594
1106.55471330137	1630.19995117188
1107.2377711803	1608
1107.9207422785	1605.80004882813
1108.60362660369	1605.19995117188
1109.2864241636	1620.19995117188
1109.96913496594	1616.40002441406
1110.65175901844	1624.19995117188
1111.33429632882	1624.59997558594
1112.01674690479	1619.59997558594
1112.69911075408	1630.19995117188
1113.38138788439	1639.40002441406
1114.06357830346	1659.19995117188
1114.745682019	1682
1115.42769903872	1662.80004882813
1116.10962937035	1662.80004882813
1116.7914730216	1662
1117.47323000018	1664.40002441406
1118.15490031382	1678.80004882813
1118.83648397022	1681.40002441406
1119.51798097712	1681.80004882813
1120.1993913422	1663.19995117188
1120.88071507321	1664.59997558594
1121.56195217784	1684.19995117188
1122.24310266381	1688.59997558594
1122.92416653884	1689
1123.60514381064	1689.40002441406
1124.28603448692	1690.59997558594
1124.9668385754	1706.80004882813
1125.64755608378	1697
1126.32818701978	1710.80004882813
1127.00873139111	1677
1127.68918920548	1663.59997558594
1128.3695604706	1654
1129.04984519419	1657
1129.73004338394	1663.19995117188
1130.41015504758	1671.19995117188
1131.09018019281	1677.80004882813
1131.77011882734	1676.59997558594
1132.44997095888	1662.40002441406
1133.12973659514	1664.19995117188
1133.80941574381	1665
1134.48900841263	1667.40002441406
1135.16851460927	1655.19995117188
1135.84793434147	1645.80004882813
1136.52726761692	1646
1137.20651444333	1666
1137.8856748284	1666.19995117188
1138.56474877984	1669.59997558594
1139.24373630536	1662.80004882813
1139.92263741265	1666.40002441406
1140.60145210943	1664.19995117188
1141.28018040339	1673.19995117188
1141.95882230225	1659.40002441406
1142.6373778137	1656.80004882813
1143.31584694545	1658.59997558594
1143.99422970519	1658.59997558594
1144.67252610064	1664
1145.35073613949	1665.19995117188
1146.02885982944	1670.40002441406
1146.7068971782	1656
1147.38484819347	1654.80004882813
1148.06271288294	1664.19995117188
1148.74049125432	1654.40002441406
1149.41818331531	1641.80004882813
1150.0957890736	1640.80004882813
1150.77330853689	1646.40002441406
1151.45074171289	1630.19995117188
1152.12808860928	1654.59997558594
1152.80534923378	1650.59997558594
1153.48252359407	1663.19995117188
1154.15961169786	1670.19995117188
1154.83661355283	1681
1155.51352916669	1685.59997558594
1156.19035854713	1684.80004882813
1156.86710170185	1674
1157.54375863855	1676
1158.22032936491	1677.80004882813
1158.89681388863	1673
1159.57321221741	1660.40002441406
1160.24952435894	1678.59997558594
1160.92575032092	1661.80004882813
1161.60189011103	1627
1162.27794373697	1613
1162.95391120644	1606.80004882813
1163.62979252712	1603
1164.3055877067	1625
1164.98129675288	1621
1165.65691967336	1620.59997558594
1166.33245647581	1646.40002441406
1167.00790716792	1657
1167.6832717574	1659
1168.35855025193	1666.80004882813
1169.0337426592	1658.19995117188
1169.70884898689	1643.19995117188
1170.3838692427	1650.19995117188
1171.05880343431	1654.80004882813
1171.73365156941	1635.59997558594
1172.40841365569	1642.80004882813
1173.08308970083	1654.80004882813
1173.75767971253	1659.80004882813
1174.43218369847	1670
1175.10660166633	1674
1175.7809336238	1677.59997558594
1176.45517957857	1676.19995117188
1177.12933953832	1674
1177.80341351073	1684.80004882813
1178.47740150349	1686.19995117188
1179.15130352429	1704.40002441406
1179.8251195808	1709
1180.49884968071	1744.19995117188
1181.1724938317	1741
1181.84605204145	1734.80004882813
1182.51952431766	1740.40002441406
1183.19291066799	1748.40002441406
1183.86621110013	1734.59997558594
1184.53942562176	1731.40002441406
1185.21255424057	1714.40002441406
1185.88559696422	1706.80004882813
1186.55855380041	1701.80004882813
1187.2314247568	1705.59997558594
1187.90420984109	1719
1188.57690906095	1715.40002441406
1189.24952242405	1717.19995117188
1189.92204993808	1715.40002441406
1190.59449161071	1710
1191.26684744962	1728.19995117188
1191.93911746249	1718.59997558594
1192.61130165699	1712.80004882813
1193.28340004081	1715.19995117188
1193.95541262161	1709.80004882813
1194.62733940707	1709.59997558594
1195.29918040487	1702.19995117188
1195.97093562269	1697.19995117188
1196.64260506819	1716
1197.31418874905	1712.19995117188
1197.98568667295	1708.19995117188
1198.65709884755	1689.40002441406
1199.32842528053	1679.40002441406
1199.99966597957	1667.80004882813
1200.67082095234	1659.59997558594
1201.3418902065	1672.59997558594
1202.01287374974	1669.59997558594
1202.68377158971	1659
1203.3545837341	1671
1204.02531019057	1676
1204.6959509668	1683.40002441406
1205.36650607045	1686
1206.03697550919	1678
1206.70735929069	1674.80004882813
1207.37765742263	1681.59997558594
1208.04786991266	1677.80004882813
1208.71799676846	1671.40002441406
1209.38803799769	1671.80004882813
1210.05799360803	1673.59997558594
1210.72786360714	1674.40002441406
1211.39764800268	1679.19995117188
1212.06734680233	1681.59997558594
1212.73696001375	1680.19995117188
1213.4064876446	1684
1214.07592970255	1679.59997558594
1214.74528619526	1676.59997558594
1215.4145571304	1673.19995117188
1216.08374251564	1668.40002441406
1216.75284235863	1665.40002441406
1217.42185666704	1676
1218.09078544854	1664.59997558594
1218.75962871078	1650.40002441406
1219.42838646143	1650
1220.09705870816	1650
1220.76564545861	1656.80004882813
1221.43414672046	1677.19995117188
1222.10256250136	1686.59997558594
1222.77089280898	1699.40002441406
1223.43913765098	1709.80004882813
1224.107297035	1712.59997558594
1224.77537096873	1703.59997558594
1225.44335945981	1683.80004882813
1226.1112625159	1669.59997558594
1226.77908014467	1669.40002441406
1227.44681235376	1662.80004882813
1228.11445915085	1653.40002441406
1228.78202054357	1671
1229.44949653961	1655.59997558594
1230.11688714659	1644.59997558594
1230.7841923722	1637.80004882813
1231.45141222407	1644.80004882813
1232.11854670988	1645.59997558594
1232.78559583726	1639.80004882813
1233.45255961388	1645.40002441406
1234.1194380474	1648.40002441406
1234.78623114546	1657.40002441406
1235.45293891572	1656.40002441406
1236.11956136583	1661.40002441406
1236.78609850345	1641.40002441406
1237.45255033623	1647.80004882813
1238.11891687182	1657.40002441406
1238.78519811788	1644.19995117188
1239.45139408205	1641
1240.11750477198	1664.59997558594
1240.78353019534	1667.80004882813
1241.44947035976	1685
1242.11532527291	1665
1242.78109494242	1658.19995117188
1243.44677937595	1645.40002441406
1244.11237858115	1641.40002441406
1244.77789256567	1656.80004882813
1245.44332133715	1659.19995117188
1246.10866490325	1663.59997558594
1246.7739232716	1662.80004882813
1247.43909644987	1648.19995117188
1248.10418444569	1651.19995117188
1248.76918726671	1646
1249.43410492059	1644
1250.09893741496	1638.19995117188
1250.76368475747	1648
1251.42834695576	1631.19995117188
1252.09292401749	1635.19995117188
1252.75741595029	1636
1253.42182276182	1636.80004882813
1254.08614445971	1636.80004882813
1254.75038105161	1638
1255.41453254515	1633.80004882813
1256.07859894799	1611.19995117188
1256.74258026777	1640.59997558594
1257.40647651213	1633.19995117188
1258.0702876887	1624.59997558594
1258.73401380514	1611.59997558594
1259.39765486908	1617.59997558594
1260.06121088817	1613.40002441406
1260.72468187004	1638.40002441406
1261.38806782233	1661.80004882813
1262.05136875269	1679
1262.71458466875	1703.40002441406
1263.37771557815	1695.59997558594
1264.04076148854	1685.80004882813
1264.70372240753	1673.59997558594
1265.3665983428	1656.40002441406
1266.02938930195	1658.59997558594
1266.69209529263	1652.80004882813
1267.35471632249	1655.19995117188
1268.01725239914	1666.59997558594
1268.67970353024	1666
1269.34206972342	1669.40002441406
1270.00435098631	1660.80004882813
1270.66654732655	1667.19995117188
1271.32865875177	1684.59997558594
1271.9906852696	1658.40002441406
1272.65262688768	1661.59997558594
1273.31448361365	1685.59997558594
1273.97625545514	1689.19995117188
1274.63794241978	1688
1275.2995445152	1687.59997558594
1275.96106174903	1683.80004882813
1276.62249412892	1674.59997558594
1277.28384166248	1679.59997558594
1277.94510435735	1666.80004882813
1278.60628222116	1669
1279.26737526155	1662.80004882813
1279.92838348613	1675
1280.58930690255	1672.19995117188
1281.25014551842	1660.19995117188
1281.91089934139	1665.19995117188
1282.57156837907	1659.19995117188
1283.2321526391	1662.40002441406
1283.89265212911	1668.19995117188
1284.55306685671	1670.40002441406
1285.21339682955	1680.19995117188
1285.87364205525	1661.80004882813
1286.53380254142	1647.40002441406
1287.19387829571	1651
1287.85386932573	1658.80004882813
1288.51377563911	1663.19995117188
1289.17359724348	1659
1289.83333414646	1665.40002441406
1290.49298635567	1645.80004882813
1291.15255387874	1658.40002441406
1291.8120367233	1642
1292.47143489696	1661.40002441406
1293.13074840736	1673.59997558594
1293.7899772621	1675.40002441406
1294.44912146882	1669.40002441406
1295.10818103513	1673
1295.76715596866	1668.59997558594
1296.42604627704	1668.40002441406
1297.08485196787	1660.80004882813
1297.74357304878	1681.59997558594
1298.4022095274	1696.80004882813
1299.06076141134	1703.19995117188
1299.71922870821	1695.59997558594
1300.37761142565	1676.19995117188
1301.03590957126	1690.19995117188
1301.69412315268	1684
1302.3522521775	1698.40002441406
1303.01029665336	1685.40002441406
1303.66825658787	1675.59997558594
1304.32613198865	1678.59997558594
1304.98392286332	1678.80004882813
1305.64162921948	1676.59997558594
1306.29925106476	1690.19995117188
1306.95678840677	1691.59997558594
1307.61424125312	1681.40002441406
1308.27160961145	1697.40002441406
1308.92889348934	1713.59997558594
1309.58609289443	1709.59997558594
1310.24320783432	1682
1310.90023831664	1688.40002441406
1311.55718434898	1699.40002441406
1312.21404593897	1684.59997558594
1312.87082309421	1689.40002441406
1313.52751582233	1687.40002441406
1314.18412413092	1677.80004882813
1314.84064802761	1648.59997558594
1315.49708752	1660.19995117188
1316.1534426157	1668
1316.80971332233	1689.19995117188
1317.46589964749	1701.80004882813
1318.1220015988	1711.80004882813
1318.77801918386	1698.80004882813
1319.43395241028	1671.80004882813
1320.08980128567	1660
1320.74556581764	1666.59997558594
1321.4012460138	1656
1322.05684188176	1653.80004882813
1322.71235342911	1678.19995117188
1323.36778066347	1674
1324.02312359245	1672.40002441406
1324.67838222365	1682.19995117188
1325.33355656468	1683.80004882813
1325.98864662314	1671.19995117188
1326.64365240663	1685.19995117188
1327.29857392277	1669.59997558594
1327.95341117915	1667.40002441406
1328.60816418339	1676.59997558594
1329.26283294308	1655.80004882813
1329.91741746582	1657.59997558594
1330.57191775923	1645
1331.2263338309	1675.40002441406
1331.88066568843	1672
1332.53491333943	1673.59997558594
1333.1890767915	1699.80004882813
1333.84315605224	1696.19995117188
1334.49715112925	1675
1335.15106203013	1682.59997558594
1335.80488876249	1670.59997558594
1336.45863133391	1686.19995117188
1337.112289752	1674.80004882813
1337.76586402437	1675.59997558594
1338.4193541586	1685.59997558594
1339.0727601623	1680.19995117188
1339.72608204306	1680.19995117188
1340.37931980849	1672
1341.03247346617	1670.19995117188
1341.68554302372	1682.40002441406
1342.33852848871	1680.80004882813
1342.99142986876	1677.19995117188
1343.64424717145	1689.19995117188
1344.29698040438	1674.40002441406
1344.94962957515	1681.19995117188
1345.60219469135	1683.59997558594
1346.25467576058	1674.40002441406
1346.90707279042	1666.19995117188
1347.55938578848	1681.40002441406
1348.21161476235	1675.40002441406
1348.86375971962	1664.80004882813
1349.51582066787	1685.19995117188
1350.16779761472	1673.59997558594
1350.81969056774	1685.40002441406
1351.47149953453	1709
1352.12322452269	1700.40002441406
1352.77486553979	1716.80004882813
1353.42642259344	1723.40002441406
1354.07789569122	1731.59997558594
1354.72928484072	1749.80004882813
1355.38059004953	1745.40002441406
1356.03181132525	1742.19995117188
1356.68294867545	1747.59997558594
1357.33400210773	1749
1357.98497162968	1742
1358.63585724889	1761.80004882813
1359.28665897294	1735.59997558594
1359.93737680942	1741.59997558594
1360.58801076591	1764
1361.23856085001	1749.80004882813
1361.88902706929	1748.59997558594
1362.53940943135	1750.19995117188
1363.18970794377	1734.59997558594
1363.83992261413	1740.59997558594
1364.49005345003	1738
1365.14010045904	1736.40002441406
1365.79006364874	1710
1366.43994302673	1698.80004882813
1367.08973860058	1704.80004882813
1367.73945037788	1702.80004882813
1368.38907836621	1686
1369.03862257315	1670.40002441406
1369.68808300629	1664.80004882813
1370.3374596732	1650.19995117188
1370.98675258148	1659.80004882813
1371.63596173868	1654.59997558594
1372.28508715241	1650
1372.93412883024	1641.80004882813
1373.58308677974	1665.19995117188
1374.2319610085	1643.59997558594
1374.8807515241	1649.59997558594
1375.52945833412	1648.40002441406
1376.17808144612	1646
1376.82662086771	1651.59997558594
1377.47507660644	1675.19995117188
1378.12344866989	1671.59997558594
1378.77173706565	1667.40002441406
1379.41994180129	1653.59997558594
1380.06806288439	1654.80004882813
1380.71610032252	1660
1381.36405412326	1660.40002441406
1382.01192429419	1670.59997558594
1382.65971084287	1674.40002441406
1383.30741377688	1662.40002441406
1383.95503310381	1632.59997558594
1384.60256883121	1627.19995117188
1385.25002096667	1622.59997558594
1385.89738951775	1631.40002441406
1386.54467449204	1633.40002441406
1387.19187589709	1633.59997558594
1387.8389937405	1628
1388.48602802982	1629.40002441406
1389.13297877262	1616
1389.77984597649	1631.80004882813
1390.42662964899	1601.80004882813
1391.07332979768	1614.80004882813
1391.71994643015	1605.59997558594
1392.36647955395	1608.19995117188
1393.01292917667	1599.19995117188
1393.65929530586	1596.40002441406
1394.3055779491	1591.59997558594
1394.95177711395	1594
1395.59789280799	1582.19995117188
1396.24392503877	1574.19995117188
1396.88987381387	1558.80004882813
1397.53573914086	1561.19995117188
1398.1815210273	1543.59997558594
1398.82721948075	1548.80004882813
1399.47283450878	1579
1400.11836611897	1567
1400.76381431886	1565
1401.40917911603	1560.40002441406
1402.05446051805	1565.80004882813
1402.69965853247	1566.59997558594
1403.34477316686	1581.59997558594
1403.98980442878	1585.19995117188
1404.6347523258	1588.59997558594
1405.27961686548	1593.40002441406
1405.92439805538	1585.19995117188
1406.56909590306	1576.59997558594
1407.21371041608	1577.19995117188
1407.85824160202	1585.19995117188
1408.50268946841	1583.19995117188
1409.14705402284	1597
1409.79133527285	1581
1410.43553322601	1590.59997558594
1411.07964788987	1585.59997558594
1411.723679272	1599
1412.36762737996	1594.80004882813
1413.01149222129	1582
1413.65527380357	1602.40002441406
1414.29897213435	1592.59997558594
1414.94258722118	1578.59997558594
1415.58611907163	1590.40002441406
1416.22956769325	1601.59997558594
1416.87293309359	1594.40002441406
1417.51621528021	1599.40002441406
1418.15941426067	1589.80004882813
1418.80253004253	1588.19995117188
1419.44556263333	1611
1420.08851204063	1597.80004882813
1420.731378272	1607
1421.37416133497	1604.80004882813
1422.0168612371	1607
1422.65947798596	1607
1423.30201158908	1591.40002441406
1423.94446205403	1591.19995117188
1424.58682938835	1584.40002441406
1425.2291135996	1585.80004882813
1425.87131469532	1568.59997558594
1426.51343268308	1560.40002441406
1427.15546757042	1564.59997558594
1427.79741936488	1560.80004882813
1428.43928807403	1550.40002441406
1429.0810737054	1555.19995117188
1429.72277626656	1563.40002441406
1430.36439576504	1561
1431.00593220841	1555.40002441406
1431.64738560419	1566.59997558594
1432.28875595995	1578.80004882813
1432.93004328324	1586
1433.57124758159	1598.19995117188
1434.21236886255	1593.19995117188
1434.85340713368	1594.59997558594
1435.49436240252	1587.59997558594
1436.13523467661	1572
1436.77602396349	1579.80004882813
1437.41673027073	1574
1438.05735360585	1583.59997558594
1438.69789397641	1576.59997558594
1439.33835138994	1601.80004882813
1439.978725854	1603.40002441406
1440.61901737612	1625.59997558594
1441.25922596385	1617
1441.89935162473	1607.40002441406
1442.53939436631	1611.19995117188
1443.17935419612	1604.80004882813
1443.81923112171	1599.40002441406
1444.45902515061	1584.80004882813
1445.09873629038	1593.80004882813
1445.73836454854	1593.40002441406
1446.37790993265	1592
1447.01737245024	1593.59997558594
1447.65675210885	1587.19995117188
1448.29604891602	1589.80004882813
1448.93526287928	1582.80004882813
1449.57439400618	1584.80004882813
1450.21344230426	1577.19995117188
1450.85240778105	1574.19995117188
1451.49129044409	1573.40002441406
1452.13009030092	1575
1452.76880735907	1579.80004882813
1453.40744162608	1574.80004882813
1454.04599310949	1579.19995117188
1454.68446181683	1571.19995117188
1455.32284775564	1575.59997558594
1455.96115093345	1576.40002441406
1456.5993713578	1578
1457.23750903623	1585.40002441406
1457.87556397626	1579.59997558594
1458.51353618543	1569.19995117188
1459.15142567127	1565.19995117188
1459.78923244132	1563.19995117188
1460.42695650311	1558
1461.06459786417	1566.40002441406
1461.70215653203	1580.59997558594
1462.33963251423	1590
1462.97702581829	1582
1463.61433645175	1586
1464.25156442214	1593.19995117188
1464.88870973699	1598
1465.52577240382	1590.80004882813
1466.16275243017	1581.19995117188
1466.79964982356	1576.40002441406
1467.43646459154	1580.19995117188
1468.07319674161	1585.80004882813
1468.70984628132	1605.19995117188
1469.34641321818	1601.59997558594
1469.98289755974	1595
1470.6192993135	1606.19995117188
1471.25561848701	1594.40002441406
1471.89185508779	1597.19995117188
1472.52800912336	1605.59997558594
1473.16408060124	1619.19995117188
1473.80006952897	1602.59997558594
1474.43597591407	1602
1475.07179976406	1597.19995117188
1475.70754108647	1593.40002441406
1476.34319988883	1607
1476.97877617865	1617.19995117188
1477.61426996345	1604.19995117188
1478.24968125077	1608.80004882813
1478.88501004812	1609.80004882813
1479.52025636303	1600.59997558594
1480.15542020302	1588.40002441406
1480.79050157561	1581.19995117188
1481.42550048832	1579.80004882813
1482.06041694867	1592.40002441406
1482.69525096418	1596
1483.33000254237	1584
1483.96467169077	1591.80004882813
1484.59925841689	1582.40002441406
1485.23376272825	1588.80004882813
1485.86818463237	1590.80004882813
1486.50252413677	1594
1487.13678124896	1598
1487.77095597646	1600.40002441406
1488.4050483268	1599.19995117188
1489.03905830749	1597.19995117188
1489.67298592604	1608
1490.30683118996	1593.40002441406
1490.9405941068	1604.80004882813
1491.57427468403	1593.40002441406
1492.2078729292	1601
1492.84138884981	1591.40002441406
1493.47482245338	1594.80004882813
1494.10817374742	1616.40002441406
1494.74144273944	1597.19995117188
1495.37462943696	1605.40002441406
1496.0077338475	1602
1496.64075597856	1609.80004882813
1497.27369583765	1619
1497.9065534323	1609.40002441406
1498.53932877001	1621.19995117188
1499.17202185829	1615.19995117188
1499.80463270465	1615.59997558594
1500.43716131661	1623.40002441406
1501.06960770167	1624.19995117188
1501.70197186735	1631.40002441406
1502.33425382116	1646.19995117188
1502.96645357059	1649.59997558594
1503.59857112317	1639
1504.23060648641	1633.80004882813
1504.8625596678	1647
1505.49443067486	1651.40002441406
1506.1262195151	1643.59997558594
1506.75792619602	1663
1507.38955072513	1650.59997558594
1508.02109310993	1651.80004882813
1508.65255335794	1656.80004882813
1509.28393147666	1670.19995117188
1509.91522747359	1653.40002441406
1510.54644135624	1650.19995117188
1511.17757313212	1662.59997558594
1511.80862280872	1643.40002441406
1512.43959039356	1644.40002441406
1513.07047589413	1642.80004882813
1513.70127931795	1637.19995117188
1514.33200067251	1612.80004882813
1514.96263996531	1621.80004882813
1515.59319720386	1624.19995117188
1516.22367239567	1626.80004882813
1516.85406554822	1631.19995117188
1517.48437666903	1618.19995117188
1518.1146057656	1599.19995117188
1518.74475284542	1593
1519.374817916	1609
1520.00480098483	1595.80004882813
1520.63470205942	1606.19995117188
1521.26452114726	1586.19995117188
1521.89425825586	1606.40002441406
1522.52391339271	1606.40002441406
1523.15348656531	1608.59997558594
1523.78297778116	1620.59997558594
1524.41238704775	1629.19995117188
1525.04171437259	1636
1525.67095976317	1626.59997558594
1526.30012322699	1637
1526.92920477154	1642.59997558594
1527.55820440432	1634.19995117188
1528.18712213283	1632.80004882813
1528.81595796455	1624.59997558594
1529.44471190699	1608.40002441406
1530.07338396764	1616.40002441406
1530.70197415399	1604.80004882813
1531.33048247353	1608
1531.95890893377	1586.40002441406
1532.58725354219	1601.80004882813
1533.21551630629	1612.59997558594
1533.84369723356	1615.40002441406
1534.47179633148	1623.59997558594
1535.09981360757	1634.80004882813
1535.72774906929	1636.80004882813
1536.35560272415	1643.59997558594
1536.98337457963	1625.59997558594
1537.61106464323	1628.19995117188
1538.23867292243	1632.19995117188
1538.86619942473	1624.59997558594
1539.49364415762	1626
1540.12100712857	1612.19995117188
1540.74828834509	1609.40002441406
1541.37548781466	1634.19995117188
1542.00260554478	1622.59997558594
1542.62964154291	1630.80004882813
1543.25659581655	1630.80004882813
1543.8834683732	1645.80004882813
1544.51025922034	1634.80004882813
1545.13696836544	1614.40002441406
1545.76359581601	1595
1546.39014157952	1597
1547.01660566345	1588.19995117188
1547.64298807531	1583.80004882813
1548.26928882255	1581
1548.89550791269	1579.19995117188
1549.52164535318	1577.59997558594
1550.14770115153	1583.19995117188
1550.77367531521	1578.19995117188
1551.39956785171	1566.19995117188
1552.0253787685	1565
1552.65110807307	1567.19995117188
1553.2767557729	1550.80004882813
1553.90232187548	1549.80004882813
1554.52780638828	1558.80004882813
1555.15320931879	1547.80004882813
1555.77853067447	1543.19995117188
1556.40377046282	1563.19995117188
1557.02892869132	1545.19995117188
1557.65400536744	1554.80004882813
1558.27900049866	1574.59997558594
1558.90391409247	1552.19995117188
1559.52874615633	1570.19995117188
1560.15349669773	1567.19995117188
1560.77816572414	1556
1561.40275324305	1575.19995117188
1562.02725926192	1570.40002441406
1562.65168378824	1568.80004882813
1563.27602682948	1571.40002441406
1563.90028839311	1561.59997558594
1564.52446848662	1565.19995117188
1565.14856711748	1577.40002441406
1565.77258429316	1589.80004882813
1566.39652002113	1611.40002441406
1567.02037430887	1612.19995117188
1567.64414716387	1616.19995117188
1568.26783859357	1604.40002441406
1568.89144860547	1603.40002441406
1569.51497720703	1598.80004882813
1570.13842440573	1611.59997558594
1570.76179020904	1629
1571.38507462442	1614.19995117188
1572.00827765936	1616.19995117188
1572.63139932132	1639
1573.25443961777	1631.59997558594
1573.87739855618	1633.40002441406
1574.50027614402	1623.40002441406
1575.12307238877	1612
1575.74578729789	1603.19995117188
1576.36842087885	1600.59997558594
1576.99097313912	1600.40002441406
1577.61344408616	1598.19995117188
1578.23583372745	1592.19995117188
1578.85814207046	1582.40002441406
1579.48036912264	1585.40002441406
1580.10251489147	1586.59997558594
1580.72457938441	1576
1581.34656260893	1566.19995117188
1581.9684645725	1548.40002441406
1582.59028528258	1579.40002441406
1583.21202474663	1554.59997558594
1583.83368297212	1564.40002441406
1584.45525996652	1554
1585.07675573728	1565.19995117188
1585.69817029188	1560.59997558594
1586.31950363778	1544.59997558594
1586.94075578243	1539.80004882813
1587.5619267333	1556.40002441406
1588.18301649786	1520.19995117188
1588.80402508357	1529.19995117188
1589.42495249788	1531.80004882813
1590.04579874826	1539
1590.66656384217	1529.59997558594
1591.28724778707	1526.19995117188
1591.90785059042	1539.40002441406
1592.52837225968	1547
1593.14881280232	1554.40002441406
1593.76917222578	1564.19995117188
1594.38945053753	1546.40002441406
1595.00964774502	1547.59997558594
1595.62976385573	1550.19995117188
1596.24979887709	1541
1596.86975281657	1528.19995117188
1597.48962568164	1537.59997558594
1598.10941747974	1546.80004882813
1598.72912821832	1549.19995117188
1599.34875790486	1539.40002441406
1599.9683065468	1550.19995117188
1600.58777415159	1547.19995117188
1601.2071607267	1554
1601.82646627958	1524.80004882813
1602.44569081769	1511.40002441406
1603.06483434846	1507.40002441406
1603.68389687937	1486.80004882813
1604.30287841786	1510.80004882813
1604.92177897139	1506.19995117188
1605.54059854741	1498.40002441406
1606.15933715337	1495.59997558594
1606.77799479672	1498.19995117188
1607.39657148492	1478
1608.01506722542	1471.80004882813
1608.63348202566	1476.80004882813
1609.2518158931	1474.80004882813
1609.87006883519	1478.59997558594
1610.48824085939	1474
1611.10633197312	1480.80004882813
1611.72434218386	1470
1612.34227149904	1473
1612.96011992612	1470.80004882813
1613.57788747254	1466
1614.19557414575	1455
1614.8131799532	1474
1615.43070490234	1466.40002441406
1616.04814900061	1466
1616.66551225545	1459.19995117188
1617.28279467433	1459.80004882813
1617.89999626467	1448.80004882813
1618.51711703393	1455.40002441406
1619.13415698955	1440
1619.75111613898	1441.80004882813
1620.36799448966	1434
1620.98479204903	1439.19995117188
1621.60150882455	1433.40002441406
1622.21814482364	1440.80004882813
1622.83470005376	1431.40002441406
1623.45117452235	1422.80004882813
1624.06756823685	1447
1624.6838812047	1449.80004882813
1625.30011343335	1449.80004882813
1625.91626493022	1463
1626.53233570278	1456.80004882813
1627.14832575845	1465.80004882813
1627.76423510468	1459.80004882813
1628.38006374891	1458.19995117188
1628.99581169857	1458
1629.61147896111	1451.19995117188
1630.22706554397	1455
1630.84257145457	1437.59997558594
1631.45799670038	1427.19995117188
1632.07334128881	1423
1632.6886052273	1421.19995117188
1633.3037885233	1418.59997558594
1633.91889118425	1433.40002441406
1634.53391321757	1423.19995117188
1635.1488546307	1414.59997558594
1635.76371543108	1420.80004882813
1636.37849562616	1435.19995117188
1636.99319522335	1438.59997558594
1637.60781423009	1434.19995117188
1638.22235265383	1446.80004882813
1638.83681050198	1452.80004882813
1639.451187782	1443
1640.0654845013	1442.19995117188
1640.67970066734	1430.59997558594
1641.29383628752	1436.19995117188
1641.9078913693	1445.40002441406
1642.5218659201	1455.59997558594
1643.13575994735	1459.40002441406
1643.74957345849	1459.19995117188
1644.36330646094	1452.19995117188
1644.97695896213	1457
1645.59053096951	1466.80004882813
1646.20402249049	1474
1646.8174335325	1490
1647.43076410298	1496
1648.04401420935	1496.59997558594
1648.65718385905	1494.59997558594
1649.2702730595	1481.19995117188
1649.88328181812	1467.80004882813
1650.49621014236	1475.59997558594
1651.10905803963	1484.19995117188
1651.72182551735	1464.40002441406
1652.33451258297	1472.19995117188
1652.9471192439	1463.40002441406
1653.55964550757	1450.80004882813
1654.1720913814	1452.40002441406
1654.78445687283	1433.40002441406
1655.39674198926	1428
1656.00894673814	1404.59997558594
1656.62107112688	1383
1657.23311516291	1377.80004882813
1657.84507885365	1372.19995117188
1658.45696220652	1372.59997558594
1659.06876522895	1380.40002441406
1659.68048792835	1376.40002441406
1660.29213031217	1387.40002441406
1660.90369238779	1379.59997558594
1661.51517416267	1383
1662.12657564421	1381.40002441406
1662.73789683984	1374.40002441406
1663.34913775697	1392.40002441406
1663.96029840303	1394
1664.57137878544	1382.80004882813
1665.18237891161	1390.19995117188
1665.79329878897	1379
1666.40413842493	1362.40002441406
1667.01489782691	1366
1667.62557700233	1364.80004882813
1668.2361759586	1362.80004882813
1668.84669470315	1367.59997558594
1669.4571332434	1365.80004882813
1670.06749158675	1346
1670.67776974062	1333.80004882813
1671.28796771243	1335.80004882813
1671.8980855096	1321
1672.50812313954	1308.40002441406
1673.11808060967	1298.19995117188
1673.72795792739	1295.80004882813
1674.33775510013	1302.40002441406
1674.9474721353	1304.40002441406
1675.55710904031	1313.19995117188
1676.16666582257	1325
1676.7761424895	1329.40002441406
1677.38553904851	1327.80004882813
1677.99485550702	1334.19995117188
1678.60409187243	1339.40002441406
1679.21324815215	1328.19995117188
1679.8223243536	1316.19995117188
1680.43132048419	1326
1681.04023655132	1330.19995117188
1681.64907256241	1330.59997558594
1682.25782852487	1323.80004882813
1682.86650444611	1323.19995117188
1683.47510033353	1314.40002441406
1684.08361619455	1319.19995117188
1684.69205203657	1320.80004882813
1685.300407867	1320.59997558594
1685.90868369325	1321.80004882813
1686.51687952272	1316.19995117188
1687.12499536283	1311.19995117188
1687.73303122098	1310.19995117188
1688.34098710457	1301.59997558594
1688.94886302101	1298.59997558594
1689.55665897772	1289.59997558594
1690.16437498208	1291.59997558594
1690.77201104152	1309.80004882813
1691.37956716342	1297
1691.9870433552	1298.40002441406
1692.59443962426	1300.40002441406
1693.20175597801	1286
1693.80899242384	1276
1694.41614896916	1286.59997558594
1695.02322562138	1277.80004882813
1695.63022238789	1272.80004882813
1696.23713927609	1268
1696.8439762934	1265.80004882813
1697.4507334472	1272.40002441406
1698.05741074491	1275
1698.66400819391	1278
1699.27052580161	1285.59997558594
1699.87696357542	1287.80004882813
1700.48332152272	1294.59997558594
1701.08959965092	1302
1701.69579796742	1296
1702.30191647962	1315
1702.90795519491	1303.59997558594
1703.51391412069	1298.59997558594
1704.11979326437	1288.59997558594
1704.72559263332	1279.59997558594
1705.33131223496	1270.80004882813
1705.93695207668	1272.59997558594
1706.54251216588	1271.40002441406
1707.14799250994	1275.19995117188
1707.75339311628	1273
1708.35871399227	1279.40002441406
1708.96395514532	1267.59997558594
1709.56911658282	1262
