634.948122577771	1234.59997558594
635.690341530823	1240.40002441406
636.43246851086	1249.40002441406
637.174503525845	1251
637.916446583745	1262.40002441406
638.658297692538	1256.40002441406
639.400056860179	1266.19995117188
640.141724094637	1262.19995117188
640.883299403885	1256
641.62478279588	1266
642.366174278594	1242.80004882813
643.107473859989	1255.19995117188
643.848681548029	1239.80004882813
644.589797350679	1235.59997558594
645.330821275901	1238.40002441406
646.071753331665	1250.59997558594
646.812593525922	1250.40002441406
647.553341866646	1251
648.293998361798	1256.40002441406
649.03456301933	1247
649.775035847216	1267.59997558594
650.515416853409	1262.19995117188
651.255706045874	1269.80004882813
651.995903432568	1263
652.736009021453	1273
653.476022820486	1265.19995117188
654.215944837629	1267.80004882813
654.955775080842	1269.19995117188
655.695513558081	1268.80004882813
656.435160277301	1262.80004882813
657.174715246465	1266
657.914178473527	1268.80004882813
658.653549966449	1265
659.392829733176	1264.80004882813
660.132017781678	1266
660.871114119901	1266.40002441406
661.610118755803	1271.40002441406
662.349031697343	1277.40002441406
663.087852952468	1267.19995117188
663.826582529139	1265.19995117188
664.565220435305	1262.19995117188
665.30376667892	1280.19995117188
666.04222126794	1264.80004882813
666.780584210316	1267
667.518855514	1275.40002441406
668.25703518694	1273.59997558594
668.995123237096	1264
669.733119672413	1277
670.471024500842	1272
671.208837730333	1270.19995117188
671.946559368839	1273.80004882813
672.684189424308	1276.40002441406
673.421727904689	1268
674.159174817929	1269
674.896530171977	1266.80004882813
675.633793974786	1273.40002441406
676.370966234295	1276
677.108046958461	1288.19995117188
677.845036155219	1291.19995117188
678.581933832528	1286.40002441406
679.318739998323	1288.40002441406
680.055454660558	1270.19995117188
680.792077827172	1284.40002441406
681.528609506116	1285.19995117188
682.265049705331	1296.40002441406
683.001398432759	1302.40002441406
683.737655696349	1295.80004882813
684.47382150404	1305.40002441406
685.20989586378	1295.80004882813
685.945878783503	1291.19995117188
686.68177027116	1295
687.417570334688	1303
688.153278982032	1295.59997558594
688.888896221129	1301.40002441406
689.624422059921	1313.59997558594
690.359856506349	1299.59997558594
691.095199568354	1286.80004882813
691.830451253874	1296.19995117188
692.565611570844	1295
693.300680527212	1307.80004882813
694.03565813091	1298
694.770544389877	1299.19995117188
695.505339312053	1287.59997558594
696.240042905372	1285.59997558594
696.974655177772	1285.19995117188
697.70917613719	1280.59997558594
698.443605791561	1277.40002441406
699.177944148826	1285
699.912191216909	1287.40002441406
700.646347003755	1292
701.380411517295	1290.80004882813
702.114384765465	1283.80004882813
702.848266756195	1279.40002441406
703.582057497421	1284.80004882813
704.315756997074	1283.40002441406
705.049365263089	1277.80004882813
705.782882303399	1282.80004882813
706.516308125936	1281.19995117188
707.249642738626	1285
707.982886149403	1293.59997558594
708.716038366204	1280.80004882813
709.449099396949	1282
710.182069249577	1290.40002441406
710.914947932009	1277.80004882813
711.647735452181	1286.80004882813
712.380431818022	1281.19995117188
713.113037037454	1280.19995117188
713.845551118411	1280.80004882813
714.577974068818	1289.40002441406
715.310305896604	1284.19995117188
716.042546609694	1293.59997558594
716.774696216013	1295.80004882813
717.506754723493	1286.80004882813
718.238722140053	1282.19995117188
718.970598473624	1290.80004882813
719.702383732127	1282.19995117188
720.43407792349	1297
721.165681055634	1294.19995117188
721.897193136486	1281.19995117188
722.628614173966	1283.59997558594
723.359944175997	1275.59997558594
724.091183150505	1290
724.822331105412	1286.80004882813
725.553388048638	1296.59997558594
726.284353988106	1297.40002441406
727.015228931734	1291
727.746012887449	1280
728.476705863162	1280.59997558594
729.207307866803	1284.19995117188
729.937818906289	1283.59997558594
730.668238989535	1289
731.398568124459	1284.59997558594
732.128806318986	1286.40002441406
732.858953581034	1282.59997558594
733.589009918514	1297.80004882813
734.318975339348	1295.19995117188
735.048849851452	1300.59997558594
735.778633462744	1286.59997558594
736.508326181137	1289.80004882813
737.237928014549	1280.59997558594
737.967438970897	1291.19995117188
738.696859058095	1297
739.426188284054	1293
740.155426656692	1288.19995117188
740.884574183922	1288.59997558594
741.613630873659	1293
742.342596733815	1301.80004882813
743.071471772302	1297.80004882813
743.800255997034	1296
744.528949415921	1294.80004882813
745.257552036877	1298.19995117188
745.986063867811	1286.80004882813
746.714484916638	1283
747.442815191261	1289.40002441406
748.171054699597	1290.80004882813
748.899203449554	1290.59997558594
749.627261449039	1295.19995117188
750.355228705966	1297.19995117188
751.083105228239	1301.59997558594
751.810891023765	1309
752.538586100459	1306.40002441406
753.266190466218	1306.40002441406
753.99370412896	1312.59997558594
754.721127096582	1301
755.448459377	1303
756.175700978114	1319
756.902851907828	1296.40002441406
757.629912174055	1308.19995117188
758.356881784688	1314.80004882813
759.083760747639	1306.80004882813
759.810549070817	1323.59997558594
760.537246762113	1319
761.263853829442	1313.40002441406
761.990370280698	1320.80004882813
762.716796123791	1319.19995117188
763.443131366618	1330.59997558594
764.169376017082	1323
764.895530083085	1320.19995117188
765.621593572527	1327.40002441406
766.347566493312	1326.80004882813
767.073448853336	1330.59997558594
767.799240660502	1340.40002441406
768.524941922707	1349.80004882813
769.250552647854	1350
769.976072843836	1360.40002441406
770.701502518551	1384
771.426841679905	1375.40002441406
772.152090335793	1376.80004882813
772.877248494107	1381.80004882813
773.602316162747	1387.59997558594
774.327293349609	1371.80004882813
775.052180062592	1381.80004882813
775.776976309589	1369.40002441406
776.501682098496	1360.19995117188
777.226297437206	1364.40002441406
777.950822333616	1356.19995117188
778.675256795621	1339.80004882813
779.399600831111	1337
780.123854447983	1329.40002441406
780.84801765413	1322.59997558594
781.572090457441	1321.19995117188
782.296072865811	1320.59997558594
783.019964887131	1325
783.743766529297	1328
784.467477800194	1325.59997558594
785.191098707719	1309.40002441406
785.914629259756	1296.40002441406
786.638069464194	1293.59997558594
787.361419328932	1308.80004882813
788.084678861852	1308.59997558594
788.807848070845	1315.80004882813
789.530926963798	1294.59997558594
790.253915548602	1298
790.976813833144	1301.80004882813
791.699621825307	1301.59997558594
792.422339532986	1303.59997558594
793.144966964061	1300.40002441406
793.86750412642	1312.19995117188
794.589951027946	1320.80004882813
795.312307676536	1297.19995117188
796.03457408006	1312
796.756750246417	1306.80004882813
797.478836183477	1303.19995117188
798.200831899137	1318.19995117188
798.92273740127	1308.59997558594
799.644552697769	1304.59997558594
800.36627779651	1300.80004882813
801.087912705374	1310.40002441406
801.809457432251	1309.19995117188
802.530911985017	1319.80004882813
803.252276371558	1304.40002441406
803.973550599748	1314.59997558594
804.694734677472	1301
805.415828612611	1299.19995117188
806.136832413045	1301.19995117188
806.857746086646	1307.59997558594
807.578569641305	1305
808.299303084892	1291
809.019946425289	1297
809.740499670372	1316.40002441406
810.460962828022	1313.80004882813
811.181335906114	1301.80004882813
811.901618912524	1320
812.621811855131	1307.19995117188
813.341914741809	1316.59997558594
814.061927580433	1309.19995117188
814.781850378881	1312.80004882813
815.501683145025	1317
816.221425886743	1296.59997558594
816.941078611903	1300.80004882813
817.660641328387	1320.80004882813
818.380114044065	1307.40002441406
819.099496766808	1321.59997558594
819.818789504492	1325.59997558594
820.53799226499	1335.40002441406
821.257105056168	1330
821.976127885904	1323
822.695060762064	1321.80004882813
823.413903692525	1323
824.132656685151	1325.80004882813
824.851319747817	1323.80004882813
825.569892888388	1335.40002441406
826.288376114739	1315
827.006769434737	1312.59997558594
827.725072856249	1306.80004882813
828.443286387142	1315.80004882813
829.161410035285	1317.40002441406
829.87944380855	1316.80004882813
830.597387714798	1311
831.315241761898	1313.19995117188
832.033005957715	1311.40002441406
832.750680310119	1312.40002441406
833.468264826969	1327.80004882813
834.18575951614	1324
834.903164385486	1322.40002441406
835.620479442878	1297.40002441406
836.337704696181	1298.40002441406
837.054840153255	1299.19995117188
837.771885821962	1298.80004882813
838.488841710172	1302.19995117188
839.20570782574	1297.80004882813
839.922484176531	1294
840.639170770409	1290.19995117188
841.355767615231	1296.80004882813
842.072274718864	1297.59997558594
842.788692089164	1292.59997558594
843.505019733993	1290
844.221257661209	1293.40002441406
844.937405878676	1298
845.65346439425	1307.40002441406
846.369433215789	1301.80004882813
847.085312351156	1303.59997558594
847.801101808205	1308.19995117188
848.516801594793	1303.40002441406
849.232411718781	1307.40002441406
849.947932188021	1304.59997558594
850.663363010376	1303.80004882813
851.378704193698	1299
852.093955745842	1299.59997558594
852.809117674669	1296.59997558594
853.524189988028	1293
854.239172693778	1305.19995117188
854.954065799768	1294.80004882813
855.668869313857	1312.19995117188
856.383583243899	1303.19995117188
857.098207597743	1305.19995117188
857.812742383246	1304.19995117188
858.527187608255	1308.80004882813
859.241543280628	1311.19995117188
859.955809408218	1310.19995117188
860.669985998868	1306.59997558594
861.384073060437	1299.19995117188
862.098070600772	1295.19995117188
862.811978627724	1319.59997558594
863.52579714914	1306.19995117188
864.239526172873	1308
864.953165706776	1306.19995117188
865.666715758687	1310.40002441406
866.380176336464	1322.19995117188
867.093547447951	1300.80004882813
867.806829100996	1313.19995117188
868.520021303444	1308.40002441406
869.233124063149	1313.59997558594
869.94613738795	1313.59997558594
870.659061285693	1314.59997558594
871.37189576423	1311.40002441406
872.084640831403	1317.59997558594
872.797296495057	1307.59997558594
873.509862763039	1304.80004882813
874.22233964319	1301.40002441406
874.934727143353	1309.80004882813
875.647025271374	1310.59997558594
876.359234035097	1309
877.071353442361	1305.80004882813
877.783383501015	1307.19995117188
878.495324218895	1311.40002441406
879.207175603844	1308.19995117188
879.918937663705	1301
880.630610406318	1311.40002441406
881.342193839524	1317.40002441406
882.053687971161	1313
882.765092809069	1307
883.476408361091	1314.59997558594
884.187634635066	1310.40002441406
884.898771638828	1308.80004882813
885.609819380221	1313.80004882813
886.320777867076	1297.80004882813
887.031647107236	1298.40002441406
887.742427108536	1305.40002441406
888.453117878816	1308
889.16371942591	1297
889.874231757652	1305.59997558594
890.584654881883	1297.19995117188
891.294988806434	1306.59997558594
892.005233539141	1300
892.715389087837	1307.59997558594
893.42545546036	1309.80004882813
894.135432664543	1322.59997558594
894.845320708216	1313.19995117188
895.555119599216	1322
896.264829345375	1310
896.974449954526	1325.19995117188
897.683981434496	1330.80004882813
898.393423793125	1322.80004882813
899.102777038235	1324.19995117188
899.812041177664	1325.19995117188
900.521216219239	1332
901.230302170793	1332.40002441406
901.939299040155	1333.59997558594
902.64820683515	1329
903.357025563612	1336
904.065755233368	1322.80004882813
904.774395852247	1314.59997558594
905.482947428076	1314
906.191409968682	1331.80004882813
906.899783481897	1308.80004882813
907.608067975538	1312.19995117188
908.316263457443	1319
909.02436993543	1305.19995117188
909.732387417327	1309.59997558594
910.440315910959	1319.40002441406
911.148155424154	1302.19995117188
911.855905964731	1318.80004882813
912.563567540521	1318.40002441406
913.271140159339	1320.19995117188
913.978623829017	1316.19995117188
914.686018557374	1310.59997558594
915.393324352237	1310.19995117188
916.100541221421	1313.40002441406
916.807669172752	1316.40002441406
917.514708214054	1317.80004882813
918.221658353142	1323.19995117188
918.928519597843	1327.59997558594
919.635291955976	1330
920.341975435358	1319.80004882813
921.048570043813	1324.40002441406
921.75507578916	1335.80004882813
922.461492679212	1320
923.167820721795	1331.80004882813
923.874059924726	1333.40002441406
924.58021029582	1313.40002441406
925.286271842893	1323
925.992244573769	1305.80004882813
926.698128496262	1298.40002441406
927.403923618184	1312.59997558594
928.109629947355	1310.40002441406
928.815247491593	1314.59997558594
929.520776258708	1315.40002441406
930.226216256519	1316.19995117188
930.931567492841	1314.19995117188
931.636829975482	1328.40002441406
932.342003712263	1317.59997558594
933.047088710995	1326.19995117188
933.752084979491	1336.19995117188
934.456992525564	1332.19995117188
935.161811357024	1337.19995117188
935.866541481688	1332
936.571182907363	1334
937.275735641861	1317.59997558594
937.980199692995	1323.80004882813
938.684575068572	1321.59997558594
939.388861776411	1316.80004882813
940.093059824311	1319.59997558594
940.797169220085	1308.80004882813
941.501189971544	1308.40002441406
942.205122086495	1305
942.908965572751	1304
943.612720438111	1324.59997558594
944.316386690391	1310.19995117188
945.019964337391	1310.80004882813
945.723453386924	1311
946.426853846795	1313
947.130165724808	1303.80004882813
947.83338902877	1321.40002441406
948.536523766488	1319.59997558594
949.239569945764	1329.40002441406
949.942527574402	1322
950.64539666021	1316
951.348177210993	1306.40002441406
952.050869234548	1315.59997558594
952.753472738683	1297.59997558594
953.455987731199	1302
954.158414219898	1304.40002441406
954.860752212587	1313.40002441406
955.563001717061	1311
956.265162741124	1303.40002441406
956.967235292576	1299.40002441406
957.669219379224	1295
958.371115008857	1292
959.072922189283	1299.59997558594
959.774640928301	1303.40002441406
960.476271233708	1304
961.177813113301	1309
961.879266574882	1314.40002441406
962.580631626248	1316.40002441406
963.281908275194	1305.19995117188
963.98309652952	1304
964.684196397022	1319
965.3852078855	1311.19995117188
966.086131002745	1317.80004882813
966.786965756555	1317.40002441406
967.487712154726	1305.40002441406
968.188370205055	1303.40002441406
968.888939915331	1303
969.589421293352	1307.59997558594
970.289814346909	1313.80004882813
970.990119083801	1308.59997558594
971.690335511819	1302.40002441406
972.39046363875	1302.19995117188
973.090503472398	1304.19995117188
973.790455020545	1310.40002441406
974.490318290987	1300.59997558594
975.190093291516	1299.40002441406
975.889780029923	1304.19995117188
976.589378513998	1309.19995117188
977.288888751527	1309.40002441406
977.988310750308	1305.19995117188
978.687644518122	1303.19995117188
979.386890062767	1299.59997558594
980.086047392025	1307.40002441406
980.785116513689	1318.80004882813
981.484097435542	1328.19995117188
982.182990165377	1319.40002441406
982.88179471098	1325.80004882813
983.580511080137	1335.19995117188
984.279139280632	1327.59997558594
984.977679320253	1324.40002441406
985.67613120679	1314.19995117188
986.374494948027	1315
987.072770551745	1322.80004882813
987.770958025731	1313.59997558594
988.469057377772	1316.80004882813
989.167068615649	1311
989.864991747145	1319.19995117188
990.562826780047	1327
991.260573722134	1304.59997558594
991.958232581195	1309.80004882813
992.655803365003	1323.19995117188
993.353286081346	1313.40002441406
994.050680738006	1312.40002441406
994.74798734276	1318.19995117188
995.44520590339	1315.19995117188
996.142336427681	1326.19995117188
996.839378923407	1314.80004882813
997.536333398348	1305.80004882813
998.233199860289	1315
998.929978317004	1309
999.626668776274	1313.59997558594
1000.32327124587	1321.19995117188
1001.01978573359	1331.40002441406
1001.71621224718	1329.40002441406
1002.41255079445	1332.19995117188
1003.10880138315	1320.40002441406
1003.80496402107	1335.59997558594
1004.50103871599	1331.59997558594
1005.19702547567	1326.19995117188
1005.8929243079	1316.40002441406
1006.58873522045	1320.59997558594
1007.2844582211	1307.19995117188
1007.98009331761	1303.19995117188
1008.67564051776	1298.80004882813
1009.37109982933	1312.40002441406
1010.06647126009	1315.59997558594
1010.7617548178	1317.80004882813
1011.45695051026	1317.80004882813
1012.15205834522	1296
1012.84707833045	1303.80004882813
1013.54201047373	1315.19995117188
1014.23685478284	1304
1014.93161126553	1301.19995117188
1015.62627992959	1298
1016.32086078277	1309
1017.01535383285	1302
1017.70975908761	1297.59997558594
1018.40407655479	1313.59997558594
1019.09830624219	1311.59997558594
1019.79244815755	1309.59997558594
1020.48650230866	1313
1021.18046870328	1304.40002441406
1021.87434734917	1303.80004882813
1022.56813825411	1295.19995117188
1023.26184142584	1298.59997558594
1023.95545687216	1314.59997558594
1024.64898460082	1310.40002441406
1025.34242461957	1314.40002441406
1026.0357769362	1316.80004882813
1026.72904155846	1311.59997558594
1027.42221849412	1314.80004882813
1028.11530775094	1322
1028.80830933668	1322
1029.50122325911	1310.80004882813
1030.19404952599	1311.19995117188
1030.88678814508	1309.59997558594
1031.57943912414	1308.59997558594
1032.27200247093	1313.80004882813
1032.96447819323	1321.40002441406
1033.65686629878	1320.59997558594
1034.34916679534	1312.40002441406
1035.04137969068	1319.59997558594
1035.73350499256	1315
1036.42554270874	1315.80004882813
1037.11749284697	1312.40002441406
1037.80935541501	1308
1038.50113042062	1307.40002441406
1039.19281787156	1307
1039.88441777559	1299.80004882813
1040.57593014046	1301.40002441406
1041.26735497393	1297.59997558594
1041.95869228376	1305.40002441406
1042.6499420777	1305
1043.3411043635	1295.59997558594
1044.03217914893	1313.59997558594
1044.72316644174	1309.59997558594
1045.41406624968	1314.40002441406
1046.1048785805	1321
1046.79560344197	1307.80004882813
1047.48624084182	1305.19995117188
1048.17679078783	1294.59997558594
1048.86725328774	1302.59997558594
1049.55762834929	1303.40002441406
1050.24791598025	1302.80004882813
1050.93811618837	1328
1051.62822898139	1306.40002441406
1052.31825436707	1311.19995117188
1053.00819235315	1304.80004882813
1053.6980429474	1297.80004882813
1054.38780615755	1312.40002441406
1055.07748199136	1301.80004882813
1055.76707045658	1305
1056.45657156095	1311.19995117188
1057.14598531222	1315.40002441406
1057.83531171814	1308
1058.52455078646	1315.19995117188
1059.21370252494	1316.80004882813
1059.90276694129	1311.40002441406
1060.5917440433	1315.80004882813
1061.28063383868	1308.40002441406
1061.9694363352	1295
1062.65815154059	1304.40002441406
1063.34677946261	1311.40002441406
1064.03532010899	1304.59997558594
1064.72377348748	1308.40002441406
1065.41213960583	1309.40002441406
1066.10041847177	1298.80004882813
1066.78861009306	1301
1067.47671447743	1304.59997558594
1068.16473163263	1315.80004882813
1068.85266156639	1314
1069.54050428647	1305.40002441406
1070.2282598006	1305.80004882813
1070.91592811652	1307
1071.60350924198	1319.80004882813
1072.29100318471	1304
1072.97840995245	1308.59997558594
1073.66572955295	1309.80004882813
1074.35296199394	1302.19995117188
1075.04010728316	1303
1075.72716542836	1299.59997558594
1076.41413643726	1314.59997558594
1077.10102031761	1322.80004882813
1077.78781707715	1307
1078.4745267236	1311.40002441406
1079.16114926471	1331.19995117188
1079.84768470822	1326.19995117188
1080.53413306185	1330
1081.22049433336	1324.40002441406
1081.90676853046	1313.80004882813
1082.5929556609	1313
1083.27905573241	1309.40002441406
1083.96506875272	1304.80004882813
1084.65099472957	1300
1085.3368336707	1283.40002441406
1086.02258558383	1295.59997558594
1086.70825047669	1301.19995117188
1087.39382835703	1289.59997558594
1088.07931923257	1291.59997558594
1088.76472311104	1300.19995117188
1089.45004000018	1297.59997558594
1090.13526990771	1294
1090.82041284137	1305.19995117188
1091.50546880889	1307.80004882813
1092.19043781799	1307.59997558594
1092.87531987642	1317.40002441406
1093.56011499188	1315
1094.24482317212	1299.80004882813
1094.92944442486	1296.59997558594
1095.61397875783	1310.80004882813
1096.29842617876	1302.19995117188
1096.98278669537	1305.59997558594
1097.6670603154	1318.80004882813
1098.35124704656	1318.40002441406
1099.03534689659	1316.80004882813
1099.71935987322	1319.80004882813
1100.40328598416	1322.19995117188
1101.08712523713	1309.80004882813
1101.77087763988	1322.40002441406
1102.45454320012	1322.19995117188
1103.13812192557	1313.59997558594
1103.82161382396	1325.40002441406
1104.50501890301	1316.80004882813
1105.18833717045	1305.59997558594
1105.87156863399	1313.59997558594
1106.55471330137	1320.59997558594
1107.2377711803	1303.80004882813
1107.9207422785	1303.19995117188
1108.60362660369	1291.80004882813
1109.2864241636	1297.80004882813
1109.96913496594	1287.80004882813
1110.65175901844	1288.59997558594
1111.33429632882	1306.19995117188
1112.01674690479	1309
1112.69911075408	1301.19995117188
1113.38138788439	1293.19995117188
1114.06357830346	1298.59997558594
1114.745682019	1303.40002441406
1115.42769903872	1309.19995117188
1116.10962937035	1313.19995117188
1116.7914730216	1307.59997558594
1117.47323000018	1316.19995117188
1118.15490031382	1323.19995117188
1118.83648397022	1314.80004882813
1119.51798097712	1303
1120.1993913422	1309.59997558594
1120.88071507321	1323.19995117188
1121.56195217784	1324.80004882813
1122.24310266381	1321.19995117188
1122.92416653884	1315
1123.60514381064	1319
1124.28603448692	1319.40002441406
1124.9668385754	1331
1125.64755608378	1323.80004882813
1126.32818701978	1328.59997558594
1127.00873139111	1331.40002441406
1127.68918920548	1333.19995117188
1128.3695604706	1317
1129.04984519419	1315.80004882813
1129.73004338394	1311.80004882813
1130.41015504758	1319.80004882813
1131.09018019281	1313.80004882813
1131.77011882734	1326.40002441406
1132.44997095888	1319.40002441406
1133.12973659514	1330.80004882813
1133.80941574381	1330
1134.48900841263	1332.19995117188
1135.16851460927	1338.80004882813
1135.84793434147	1328.80004882813
1136.52726761692	1327.19995117188
1137.20651444333	1315.80004882813
1137.8856748284	1316.40002441406
1138.56474877984	1315.40002441406
1139.24373630536	1311.80004882813
1139.92263741265	1313.40002441406
1140.60145210943	1302.59997558594
1141.28018040339	1312
1141.95882230225	1314.19995117188
1142.6373778137	1297.19995117188
1143.31584694545	1293.80004882813
1143.99422970519	1291
1144.67252610064	1308.40002441406
1145.35073613949	1307.80004882813
1146.02885982944	1316.19995117188
1146.7068971782	1309.59997558594
1147.38484819347	1315
1148.06271288294	1324.59997558594
1148.74049125432	1320.19995117188
1149.41818331531	1328.80004882813
1150.0957890736	1316.59997558594
1150.77330853689	1333.80004882813
1151.45074171289	1319.19995117188
1152.12808860928	1327.80004882813
1152.80534923378	1321
1153.48252359407	1315.19995117188
1154.15961169786	1326.19995117188
1154.83661355283	1318.19995117188
1155.51352916669	1324.19995117188
1156.19035854713	1319
1156.86710170185	1327.40002441406
1157.54375863855	1331.40002441406
1158.22032936491	1314.40002441406
1158.89681388863	1316.80004882813
1159.57321221741	1309
1160.24952435894	1311.19995117188
1160.92575032092	1319
1161.60189011103	1320.19995117188
1162.27794373697	1314.59997558594
1162.95391120644	1322.80004882813
1163.62979252712	1312.19995117188
1164.3055877067	1318.19995117188
1164.98129675288	1321.19995117188
1165.65691967336	1320.80004882813
1166.33245647581	1311
1167.00790716792	1316.59997558594
1167.6832717574	1310.80004882813
1168.35855025193	1320.80004882813
1169.0337426592	1321.80004882813
1169.70884898689	1312.80004882813
1170.3838692427	1317.19995117188
1171.05880343431	1328.80004882813
1171.73365156941	1325.19995117188
1172.40841365569	1326.19995117188
1173.08308970083	1334.19995117188
1173.75767971253	1326.80004882813
1174.43218369847	1330.19995117188
1175.10660166633	1341.19995117188
1175.7809336238	1329.40002441406
1176.45517957857	1336.80004882813
1177.12933953832	1337
1177.80341351073	1327.80004882813
1178.47740150349	1325.59997558594
1179.15130352429	1343.59997558594
1179.8251195808	1337.59997558594
1180.49884968071	1341.80004882813
1181.1724938317	1346
1181.84605204145	1334.59997558594
1182.51952431766	1345.59997558594
1183.19291066799	1346.40002441406
1183.86621110013	1349
1184.53942562176	1354.59997558594
1185.21255424057	1343.40002441406
1185.88559696422	1338
1186.55855380041	1327
1187.2314247568	1333.40002441406
1187.90420984109	1333.19995117188
1188.57690906095	1325.40002441406
1189.24952242405	1325.19995117188
1189.92204993808	1334
1190.59449161071	1336.59997558594
1191.26684744962	1342.40002441406
1191.93911746249	1324
1192.61130165699	1340.80004882813
1193.28340004081	1322.80004882813
1193.95541262161	1323.19995117188
1194.62733940707	1326.80004882813
1195.29918040487	1329.40002441406
1195.97093562269	1333
1196.64260506819	1335.80004882813
1197.31418874905	1330
1197.98568667295	1343.19995117188
1198.65709884755	1349.40002441406
1199.32842528053	1340.59997558594
1199.99966597957	1332.59997558594
1200.67082095234	1340
1201.3418902065	1343.19995117188
1202.01287374974	1336.40002441406
1202.68377158971	1325.19995117188
1203.3545837341	1329.59997558594
1204.02531019057	1320.19995117188
1204.6959509668	1317
1205.36650607045	1331.19995117188
1206.03697550919	1346
1206.70735929069	1349.80004882813
1207.37765742263	1350
1208.04786991266	1360
1208.71799676846	1337.40002441406
1209.38803799769	1329.40002441406
1210.05799360803	1333
1210.72786360714	1335
1211.39764800268	1333.80004882813
1212.06734680233	1330.80004882813
1212.73696001375	1322.59997558594
1213.4064876446	1316.80004882813
1214.07592970255	1326.59997558594
1214.74528619526	1315.59997558594
1215.4145571304	1316.40002441406
1216.08374251564	1316.40002441406
1216.75284235863	1312.80004882813
1217.42185666704	1316.80004882813
1218.09078544854	1326.40002441406
1218.75962871078	1315.80004882813
1219.42838646143	1317
1220.09705870816	1326
1220.76564545861	1317.80004882813
1221.43414672046	1333.80004882813
1222.10256250136	1316.59997558594
1222.77089280898	1323.59997558594
1223.43913765098	1311.59997558594
1224.107297035	1323
1224.77537096873	1331.80004882813
1225.44335945981	1325
1226.1112625159	1336.80004882813
1226.77908014467	1335.80004882813
1227.44681235376	1330
1228.11445915085	1337.59997558594
1228.78202054357	1334.19995117188
1229.44949653961	1325.80004882813
1230.11688714659	1322
1230.7841923722	1315.19995117188
1231.45141222407	1311.40002441406
1232.11854670988	1309.80004882813
1232.78559583726	1304.59997558594
1233.45255961388	1299
1234.1194380474	1308.40002441406
1234.78623114546	1312
1235.45293891572	1310.80004882813
1236.11956136583	1316.59997558594
1236.78609850345	1315.80004882813
1237.45255033623	1314.40002441406
1238.11891687182	1322.59997558594
1238.78519811788	1312.40002441406
1239.45139408205	1320.80004882813
1240.11750477198	1305.59997558594
1240.78353019534	1325.80004882813
1241.44947035976	1327.19995117188
1242.11532527291	1324.59997558594
1242.78109494242	1318.40002441406
1243.44677937595	1316.40002441406
1244.11237858115	1313.80004882813
1244.77789256567	1302.19995117188
1245.44332133715	1320.80004882813
1246.10866490325	1316.80004882813
1246.7739232716	1307.80004882813
1247.43909644987	1319.40002441406
1248.10418444569	1308.59997558594
1248.76918726671	1309.59997558594
1249.43410492059	1312
1250.09893741496	1318.19995117188
1250.76368475747	1314.19995117188
1251.42834695576	1306.40002441406
1252.09292401749	1310
1252.75741595029	1322.19995117188
1253.42182276182	1318.40002441406
1254.08614445971	1331.40002441406
1254.75038105161	1320.80004882813
1255.41453254515	1310.40002441406
1256.07859894799	1316.80004882813
1256.74258026777	1315.59997558594
1257.40647651213	1313
1258.0702876887	1315.40002441406
1258.73401380514	1310.59997558594
1259.39765486908	1307.19995117188
1260.06121088817	1304.40002441406
1260.72468187004	1310.80004882813
1261.38806782233	1307.80004882813
1262.05136875269	1314.59997558594
1262.71458466875	1322.40002441406
1263.37771557815	1330.80004882813
1264.04076148854	1329.40002441406
1264.70372240753	1330.40002441406
1265.3665983428	1327
1266.02938930195	1321.40002441406
1266.69209529263	1317.59997558594
1267.35471632249	1306.19995117188
1268.01725239914	1313.80004882813
1268.67970353024	1312.59997558594
1269.34206972342	1307
1270.00435098631	1307.59997558594
1270.66654732655	1312.19995117188
1271.32865875177	1319.59997558594
1271.9906852696	1333
1272.65262688768	1316
1273.31448361365	1316.59997558594
1273.97625545514	1321.40002441406
1274.63794241978	1316.40002441406
1275.2995445152	1312.19995117188
1275.96106174903	1303.80004882813
1276.62249412892	1299.80004882813
1277.28384166248	1302.80004882813
1277.94510435735	1304.59997558594
1278.60628222116	1317.59997558594
1279.26737526155	1322.59997558594
1279.92838348613	1327
1280.58930690255	1323.19995117188
1281.25014551842	1318.80004882813
1281.91089934139	1316.19995117188
1282.57156837907	1323.59997558594
1283.2321526391	1325
1283.89265212911	1322.40002441406
1284.55306685671	1327
1285.21339682955	1326.40002441406
1285.87364205525	1330.40002441406
1286.53380254142	1322.80004882813
1287.19387829571	1322
1287.85386932573	1316
1288.51377563911	1317
1289.17359724348	1316
1289.83333414646	1315
1290.49298635567	1313.40002441406
1291.15255387874	1306.80004882813
1291.8120367233	1298.80004882813
1292.47143489696	1293.80004882813
1293.13074840736	1290.19995117188
1293.7899772621	1312
1294.44912146882	1305.80004882813
1295.10818103513	1300
1295.76715596866	1300
1296.42604627704	1307.19995117188
1297.08485196787	1311
1297.74357304878	1314.80004882813
1298.4022095274	1307.40002441406
1299.06076141134	1310.19995117188
1299.71922870821	1313.40002441406
1300.37761142565	1313.19995117188
1301.03590957126	1321.19995117188
1301.69412315268	1337.19995117188
1302.3522521775	1334.40002441406
1303.01029665336	1345.40002441406
1303.66825658787	1346.40002441406
1304.32613198865	1331.19995117188
1304.98392286332	1335.19995117188
1305.64162921948	1318.40002441406
1306.29925106476	1322.19995117188
1306.95678840677	1326.80004882813
1307.61424125312	1328.40002441406
1308.27160961145	1335
1308.92889348934	1332
1309.58609289443	1341
1310.24320783432	1341.80004882813
1310.90023831664	1345.40002441406
1311.55718434898	1330.59997558594
1312.21404593897	1342.80004882813
1312.87082309421	1338.40002441406
1313.52751582233	1344.40002441406
1314.18412413092	1344.19995117188
1314.84064802761	1332.19995117188
1315.49708752	1315.40002441406
1316.1534426157	1329.59997558594
1316.80971332233	1323.19995117188
1317.46589964749	1328.80004882813
1318.1220015988	1336.40002441406
1318.77801918386	1328.59997558594
1319.43395241028	1336.19995117188
1320.08980128567	1324.80004882813
1320.74556581764	1330.59997558594
1321.4012460138	1332
1322.05684188176	1322.59997558594
1322.71235342911	1329.59997558594
1323.36778066347	1339.19995117188
1324.02312359245	1330.40002441406
1324.67838222365	1335.40002441406
1325.33355656468	1329.19995117188
1325.98864662314	1331.80004882813
1326.64365240663	1333
1327.29857392277	1334.40002441406
1327.95341117915	1342.80004882813
1328.60816418339	1343.19995117188
1329.26283294308	1331.19995117188
1329.91741746582	1314
1330.57191775923	1329
1331.2263338309	1323.40002441406
1331.88066568843	1329.59997558594
1332.53491333943	1329.80004882813
1333.1890767915	1324.19995117188
1333.84315605224	1325.40002441406
1334.49715112925	1342.59997558594
1335.15106203013	1349.80004882813
1335.80488876249	1331.80004882813
1336.45863133391	1341.19995117188
1337.112289752	1332.59997558594
1337.76586402437	1338
1338.4193541586	1340.80004882813
1339.0727601623	1341.80004882813
1339.72608204306	1352.40002441406
1340.37931980849	1345.59997558594
1341.03247346617	1340.80004882813
1341.68554302372	1345.19995117188
1342.33852848871	1329.19995117188
1342.99142986876	1336.59997558594
1343.64424717145	1341.80004882813
1344.29698040438	1338.59997558594
1344.94962957515	1331.40002441406
1345.60219469135	1346.80004882813
1346.25467576058	1360.80004882813
1346.90707279042	1343.59997558594
1347.55938578848	1368.19995117188
1348.21161476235	1358.80004882813
1348.86375971962	1365
1349.51582066787	1359.80004882813
1350.16779761472	1354.40002441406
1350.81969056774	1353.59997558594
1351.47149953453	1353.59997558594
1352.12322452269	1349.19995117188
1352.77486553979	1365.40002441406
1353.42642259344	1341.59997558594
1354.07789569122	1355.80004882813
1354.72928484072	1352.80004882813
1355.38059004953	1375.19995117188
1356.03181132525	1382.19995117188
1356.68294867545	1374.80004882813
1357.33400210773	1373.40002441406
1357.98497162968	1388
1358.63585724889	1391.80004882813
1359.28665897294	1381
1359.93737680942	1393
1360.58801076591	1386.19995117188
1361.23856085001	1382.59997558594
1361.88902706929	1385
1362.53940943135	1380.59997558594
1363.18970794377	1382
1363.83992261413	1374.19995117188
1364.49005345003	1383.80004882813
1365.14010045904	1379.59997558594
1365.79006364874	1382.59997558594
1366.43994302673	1378
1367.08973860058	1368.59997558594
1367.73945037788	1363
1368.38907836621	1366.59997558594
1369.03862257315	1357.40002441406
1369.68808300629	1360
1370.3374596732	1350.19995117188
1370.98675258148	1343.59997558594
1371.63596173868	1339
1372.28508715241	1330.19995117188
1372.93412883024	1328.19995117188
1373.58308677974	1321.80004882813
1374.2319610085	1321.19995117188
1374.8807515241	1328
1375.52945833412	1323
1376.17808144612	1310.59997558594
1376.82662086771	1313.40002441406
1377.47507660644	1317.80004882813
1378.12344866989	1320
1378.77173706565	1325
1379.41994180129	1312
1380.06806288439	1306
1380.71610032252	1305.59997558594
1381.36405412326	1311.19995117188
1382.01192429419	1315
1382.65971084287	1305.19995117188
1383.30741377688	1318.19995117188
1383.95503310381	1322.80004882813
1384.60256883121	1313.19995117188
1385.25002096667	1312.40002441406
1385.89738951775	1317.59997558594
1386.54467449204	1313
1387.19187589709	1303.80004882813
1387.8389937405	1312.40002441406
1388.48602802982	1314.40002441406
1389.13297877262	1306.19995117188
1389.77984597649	1305.80004882813
1390.42662964899	1300
1391.07332979768	1296.59997558594
1391.71994643015	1310.40002441406
1392.36647955395	1302.19995117188
1393.01292917667	1311.59997558594
1393.65929530586	1300.40002441406
1394.3055779491	1302.80004882813
1394.95177711395	1290
1395.59789280799	1298.40002441406
1396.24392503877	1288.59997558594
1396.88987381387	1297.40002441406
1397.53573914086	1291.19995117188
1398.1815210273	1305
1398.82721948075	1308.40002441406
1399.47283450878	1310.59997558594
1400.11836611897	1310.59997558594
1400.76381431886	1305.19995117188
1401.40917911603	1306
1402.05446051805	1305.80004882813
1402.69965853247	1300
1403.34477316686	1305.19995117188
1403.98980442878	1292
1404.6347523258	1312.19995117188
1405.27961686548	1309.40002441406
1405.92439805538	1310
1406.56909590306	1302
1407.21371041608	1298.80004882813
1407.85824160202	1287.80004882813
1408.50268946841	1278.80004882813
1409.14705402284	1284
1409.79133527285	1286.59997558594
1410.43553322601	1295.59997558594
1411.07964788987	1296.59997558594
1411.723679272	1296.40002441406
1412.36762737996	1300.59997558594
1413.01149222129	1299
1413.65527380357	1298.19995117188
1414.29897213435	1300.80004882813
1414.94258722118	1288.80004882813
1415.58611907163	1296.40002441406
1416.22956769325	1295.59997558594
1416.87293309359	1296.40002441406
1417.51621528021	1292
1418.15941426067	1287.40002441406
1418.80253004253	1303
1419.44556263333	1293.80004882813
1420.08851204063	1297.40002441406
1420.731378272	1313.80004882813
1421.37416133497	1311
1422.0168612371	1306.80004882813
1422.65947798596	1304
1423.30201158908	1299.19995117188
1423.94446205403	1304.80004882813
1424.58682938835	1297.40002441406
1425.2291135996	1305.59997558594
1425.87131469532	1292.59997558594
1426.51343268308	1294
1427.15546757042	1298.59997558594
1427.79741936488	1296.59997558594
1428.43928807403	1298.40002441406
1429.0810737054	1304.80004882813
1429.72277626656	1303.59997558594
1430.36439576504	1292.40002441406
1431.00593220841	1296.80004882813
1431.64738560419	1299.80004882813
1432.28875595995	1290.40002441406
1432.93004328324	1288.80004882813
1433.57124758159	1290.59997558594
1434.21236886255	1288.19995117188
1434.85340713368	1293.59997558594
1435.49436240252	1294
1436.13523467661	1293
1436.77602396349	1296.59997558594
1437.41673027073	1289
1438.05735360585	1293
1438.69789397641	1291.80004882813
1439.33835138994	1294.80004882813
1439.978725854	1295
1440.61901737612	1300.19995117188
1441.25922596385	1294.19995117188
1441.89935162473	1292.19995117188
1442.53939436631	1290
1443.17935419612	1296.40002441406
1443.81923112171	1294.40002441406
1444.45902515061	1306.40002441406
1445.09873629038	1314.59997558594
1445.73836454854	1306.19995117188
1446.37790993265	1292
1447.01737245024	1295.40002441406
1447.65675210885	1287.80004882813
1448.29604891602	1302
1448.93526287928	1298.40002441406
1449.57439400618	1294.80004882813
1450.21344230426	1293.19995117188
1450.85240778105	1293.80004882813
1451.49129044409	1285.80004882813
1452.13009030092	1276.80004882813
1452.76880735907	1280.19995117188
1453.40744162608	1287.19995117188
1454.04599310949	1293.80004882813
1454.68446181683	1299.80004882813
1455.32284775564	1299.59997558594
1455.96115093345	1300.19995117188
1456.5993713578	1291
1457.23750903623	1302
1457.87556397626	1303.59997558594
1458.51353618543	1309.19995117188
1459.15142567127	1310
1459.78923244132	1312.19995117188
1460.42695650311	1292.40002441406
1461.06459786417	1292
1461.70215653203	1298.40002441406
1462.33963251423	1291
1462.97702581829	1298.19995117188
1463.61433645175	1301.19995117188
1464.25156442214	1282
1464.88870973699	1289.19995117188
1465.52577240382	1298.80004882813
1466.16275243017	1298
1466.79964982356	1295.59997558594
1467.43646459154	1299
1468.07319674161	1298.40002441406
1468.70984628132	1291.40002441406
1469.34641321818	1292.80004882813
1469.98289755974	1300.80004882813
1470.6192993135	1300
1471.25561848701	1306.40002441406
1471.89185508779	1297.80004882813
1472.52800912336	1308.40002441406
1473.16408060124	1312.80004882813
1473.80006952897	1311.59997558594
1474.43597591407	1310.59997558594
1475.07179976406	1303.19995117188
1475.70754108647	1296.19995117188
1476.34319988883	1295.80004882813
1476.97877617865	1301.80004882813
1477.61426996345	1297.59997558594
1478.24968125077	1301.80004882813
1478.88501004812	1311.19995117188
1479.52025636303	1316
1480.15542020302	1306.59997558594
1480.79050157561	1308
1481.42550048832	1310.40002441406
1482.06041694867	1319.80004882813
1482.69525096418	1321
1483.33000254237	1314.80004882813
1483.96467169077	1310
1484.59925841689	1307.59997558594
1485.23376272825	1318.80004882813
1485.86818463237	1309.80004882813
1486.50252413677	1303
1487.13678124896	1318.40002441406
1487.77095597646	1308.80004882813
1488.4050483268	1323.59997558594
1489.03905830749	1321.59997558594
1489.67298592604	1326
1490.30683118996	1330
1490.9405941068	1328.19995117188
1491.57427468403	1326
1492.2078729292	1308.59997558594
1492.84138884981	1313.80004882813
1493.47482245338	1317
1494.10817374742	1310.80004882813
1494.74144273944	1304.40002441406
1495.37462943696	1311.19995117188
1496.0077338475	1306.40002441406
1496.64075597856	1312.59997558594
1497.27369583765	1301.80004882813
1497.9065534323	1319.40002441406
1498.53932877001	1316.40002441406
1499.17202185829	1332.59997558594
1499.80463270465	1324
1500.43716131661	1324.59997558594
1501.06960770167	1335.19995117188
1501.70197186735	1330.40002441406
1502.33425382116	1328.40002441406
1502.96645357059	1342.80004882813
1503.59857112317	1342.40002441406
1504.23060648641	1342.80004882813
1504.8625596678	1346.19995117188
1505.49443067486	1343.19995117188
1506.1262195151	1340
1506.75792619602	1331.40002441406
1507.38955072513	1335
1508.02109310993	1325.59997558594
1508.65255335794	1329.40002441406
1509.28393147666	1321.59997558594
1509.91522747359	1320
1510.54644135624	1321.40002441406
1511.17757313212	1323.19995117188
1511.80862280872	1322.59997558594
1512.43959039356	1322.19995117188
1513.07047589413	1326.80004882813
1513.70127931795	1331.19995117188
1514.33200067251	1320.59997558594
1514.96263996531	1320.59997558594
1515.59319720386	1309.80004882813
1516.22367239567	1308
1516.85406554822	1312.19995117188
1517.48437666903	1321.40002441406
1518.1146057656	1313.19995117188
1518.74475284542	1307.59997558594
1519.374817916	1309
1520.00480098483	1312.19995117188
1520.63470205942	1309.80004882813
1521.26452114726	1312.40002441406
1521.89425825586	1308.40002441406
1522.52391339271	1293.19995117188
1523.15348656531	1299
1523.78297778116	1310.59997558594
1524.41238704775	1320
1525.04171437259	1318.80004882813
1525.67095976317	1318.80004882813
1526.30012322699	1327.80004882813
1526.92920477154	1332.80004882813
1527.55820440432	1329.80004882813
1528.18712213283	1334.59997558594
1528.81595796455	1333.19995117188
1529.44471190699	1329.80004882813
1530.07338396764	1332.40002441406
1530.70197415399	1335.40002441406
1531.33048247353	1328.80004882813
1531.95890893377	1311.80004882813
1532.58725354219	1306.40002441406
1533.21551630629	1319.40002441406
1533.84369723356	1322
1534.47179633148	1316.19995117188
1535.09981360757	1305.40002441406
1535.72774906929	1310.80004882813
1536.35560272415	1319.19995117188
1536.98337457963	1314.40002441406
1537.61106464323	1325
1538.23867292243	1322.40002441406
1538.86619942473	1319.19995117188
1539.49364415762	1312.40002441406
1540.12100712857	1309.40002441406
1540.74828834509	1304.19995117188
1541.37548781466	1311.80004882813
1542.00260554478	1313.80004882813
1542.62964154291	1318.59997558594
1543.25659581655	1320
1543.8834683732	1324.80004882813
1544.51025922034	1318.40002441406
1545.13696836544	1316.40002441406
1545.76359581601	1308.19995117188
1546.39014157952	1304.80004882813
1547.01660566345	1304.40002441406
1547.64298807531	1311.59997558594
1548.26928882255	1311
1548.89550791269	1301.40002441406
1549.52164535318	1307.80004882813
1550.14770115153	1315
1550.77367531521	1307.40002441406
1551.39956785171	1311.40002441406
1552.0253787685	1310.19995117188
1552.65110807307	1304
1553.2767557729	1293.40002441406
1553.90232187548	1282
1554.52780638828	1283.19995117188
1555.15320931879	1277.80004882813
1555.77853067447	1273
1556.40377046282	1280
1557.02892869132	1284
1557.65400536744	1276.40002441406
1558.27900049866	1285.80004882813
1558.90391409247	1286
1559.52874615633	1296.80004882813
1560.15349669773	1289
1560.77816572414	1294.80004882813
1561.40275324305	1293.59997558594
1562.02725926192	1295.59997558594
1562.65168378824	1299.19995117188
1563.27602682948	1304.40002441406
1563.90028839311	1296.59997558594
1564.52446848662	1290.19995117188
1565.14856711748	1289.19995117188
1565.77258429316	1299.80004882813
1566.39652002113	1298.80004882813
1567.02037430887	1301.40002441406
1567.64414716387	1300.80004882813
1568.26783859357	1302.59997558594
1568.89144860547	1316
1569.51497720703	1311.40002441406
1570.13842440573	1321
1570.76179020904	1316.59997558594
1571.38507462442	1313.19995117188
1572.00827765936	1310.19995117188
1572.63139932132	1314.19995117188
1573.25443961777	1309.19995117188
1573.87739855618	1316.40002441406
1574.50027614402	1316.19995117188
1575.12307238877	1308.59997558594
1575.74578729789	1294.59997558594
1576.36842087885	1293.59997558594
1576.99097313912	1299.80004882813
1577.61344408616	1301
1578.23583372745	1300
1578.85814207046	1293.80004882813
1579.48036912264	1299.80004882813
1580.10251489147	1290.40002441406
1580.72457938441	1285.40002441406
1581.34656260893	1292
1581.9684645725	1285.59997558594
1582.59028528258	1285.80004882813
1583.21202474663	1278.59997558594
1583.83368297212	1270.40002441406
1584.45525996652	1264
1585.07675573728	1254.59997558594
1585.69817029188	1257.40002441406
1586.31950363778	1259.19995117188
1586.94075578243	1257.80004882813
1587.5619267333	1260.80004882813
1588.18301649786	1259.40002441406
1588.80402508357	1261.19995117188
1589.42495249788	1276.80004882813
1590.04579874826	1279
1590.66656384217	1279.40002441406
1591.28724778707	1273.80004882813
1591.90785059042	1273.80004882813
1592.52837225968	1274.19995117188
1593.14881280232	1275
1593.76917222578	1276.59997558594
1594.38945053753	1278.59997558594
1595.00964774502	1275.19995117188
1595.62976385573	1272.40002441406
1596.24979887709	1268.80004882813
1596.86975281657	1261.80004882813
1597.48962568164	1266
1598.10941747974	1262.19995117188
1598.72912821832	1270.40002441406
1599.34875790486	1275.19995117188
1599.9683065468	1286.59997558594
1600.58777415159	1280.40002441406
1601.2071607267	1271.19995117188
1601.82646627958	1274.80004882813
1602.44569081769	1267.19995117188
1603.06483434846	1259.40002441406
1603.68389687937	1264.40002441406
1604.30287841786	1258.59997558594
1604.92177897139	1259
1605.54059854741	1260.19995117188
1606.15933715337	1246.40002441406
1606.77799479672	1250
1607.39657148492	1248.59997558594
1608.01506722542	1242.19995117188
1608.63348202566	1246
1609.2518158931	1238.40002441406
1609.87006883519	1235.19995117188
1610.48824085939	1237.40002441406
1611.10633197312	1238.59997558594
1611.72434218386	1236
1612.34227149904	1230.40002441406
1612.96011992612	1233.40002441406
1613.57788747254	1239.19995117188
1614.19557414575	1240.19995117188
1614.8131799532	1231.59997558594
1615.43070490234	1231.59997558594
1616.04814900061	1236.19995117188
1616.66551225545	1235.19995117188
1617.28279467433	1228.59997558594
1617.89999626467	1240
1618.51711703393	1232.59997558594
1619.13415698955	1229.19995117188
1619.75111613898	1234
1620.36799448966	1230.80004882813
1620.98479204903	1221.40002441406
1621.60150882455	1228
1622.21814482364	1216.40002441406
1622.83470005376	1219
1623.45117452235	1225
1624.06756823685	1214
1624.6838812047	1220.40002441406
1625.30011343335	1216.59997558594
1625.91626493022	1215.19995117188
1626.53233570278	1211.40002441406
1627.14832575845	1225.40002441406
1627.76423510468	1230
1628.38006374891	1219
1628.99581169857	1225.59997558594
1629.61147896111	1226.80004882813
1630.22706554397	1233.80004882813
1630.84257145457	1229.59997558594
1631.45799670038	1226
1632.07334128881	1228.40002441406
1632.6886052273	1231.80004882813
1633.3037885233	1227.80004882813
1633.91889118425	1225.19995117188
1634.53391321757	1227.40002441406
1635.1488546307	1222.19995117188
1635.76371543108	1224
1636.37849562616	1232
1636.99319522335	1219.59997558594
1637.60781423009	1233
1638.22235265383	1234.19995117188
1638.83681050198	1237.19995117188
1639.451187782	1240.59997558594
1640.0654845013	1252
1640.67970066734	1249.40002441406
1641.29383628752	1252.40002441406
1641.9078913693	1244
1642.5218659201	1236.19995117188
1643.13575994735	1243.80004882813
1643.74957345849	1247.19995117188
1644.36330646094	1253.80004882813
1644.97695896213	1256.19995117188
1645.59053096951	1247.80004882813
1646.20402249049	1251.59997558594
1646.8174335325	1249.40002441406
1647.43076410298	1256.40002441406
1648.04401420935	1265.80004882813
1648.65718385905	1260.80004882813
1649.2702730595	1256.59997558594
1649.88328181812	1259.80004882813
1650.49621014236	1256.59997558594
1651.10905803963	1254
1651.72182551735	1241
1652.33451258297	1241.80004882813
1652.9471192439	1240.40002441406
1653.55964550757	1243.80004882813
1654.1720913814	1231
1654.78445687283	1225.40002441406
1655.39674198926	1227
1656.00894673814	1210.40002441406
1656.62107112688	1219.59997558594
1657.23311516291	1216.40002441406
1657.84507885365	1205
1658.45696220652	1216.40002441406
1659.06876522895	1210.19995117188
1659.68048792835	1202
1660.29213031217	1203.19995117188
1660.90369238779	1209.80004882813
1661.51517416267	1202.40002441406
1662.12657564421	1188.80004882813
1662.73789683984	1186.80004882813
1663.34913775697	1187
1663.96029840303	1177.19995117188
1664.57137878544	1178.40002441406
1665.18237891161	1177.80004882813
1665.79329878897	1188.40002441406
1666.40413842493	1181
1667.01489782691	1174.19995117188
1667.62557700233	1175.19995117188
1668.2361759586	1180.80004882813
1668.84669470315	1173.19995117188
1669.4571332434	1173
1670.06749158675	1176
1670.67776974062	1182.59997558594
1671.28796771243	1171
1671.8980855096	1169
1672.50812313954	1168.40002441406
1673.11808060967	1158.59997558594
1673.72795792739	1148.40002441406
1674.33775510013	1153.19995117188
1674.9474721353	1152
1675.55710904031	1149
1676.16666582257	1150
1676.7761424895	1143
1677.38553904851	1147.59997558594
1677.99485550702	1162.19995117188
1678.60409187243	1157.59997558594
1679.21324815215	1159.80004882813
1679.8223243536	1156.59997558594
1680.43132048419	1150.80004882813
1681.04023655132	1157.59997558594
1681.64907256241	1158.19995117188
1682.25782852487	1160
1682.86650444611	1169.80004882813
1683.47510033353	1173
1684.08361619455	1176.59997558594
1684.69205203657	1160.19995117188
1685.300407867	1165
1685.90868369325	1164
1686.51687952272	1161.59997558594
1687.12499536283	1160.80004882813
1687.73303122098	1166.19995117188
1688.34098710457	1164
1688.94886302101	1157.40002441406
1689.55665897772	1152.80004882813
1690.16437498208	1150.19995117188
1690.77201104152	1154.40002441406
1691.37956716342	1157.80004882813
1691.9870433552	1153.19995117188
1692.59443962426	1150.80004882813
1693.20175597801	1153.40002441406
1693.80899242384	1144.40002441406
1694.41614896916	1141.59997558594
1695.02322562138	1140.80004882813
1695.63022238789	1138.80004882813
1696.23713927609	1133
1696.8439762934	1135.80004882813
1697.4507334472	1128.19995117188
1698.05741074491	1131.59997558594
1698.66400819391	1134
1699.27052580161	1128.59997558594
1699.87696357542	1124.19995117188
1700.48332152272	1132.40002441406
1701.08959965092	1143.80004882813
1701.69579796742	1150
1702.30191647962	1135.80004882813
1702.90795519491	1142.19995117188
1703.51391412069	1150.80004882813
1704.11979326437	1142
1704.72559263332	1141.40002441406
1705.33131223496	1146.59997558594
1705.93695207668	1135.80004882813
1706.54251216588	1143.80004882813
1707.14799250994	1132.19995117188
1707.75339311628	1133.40002441406
1708.35871399227	1129.80004882813
1708.96395514532	1130
1709.56911658282	1133
