634.948122577771	925.799987792969
635.690341530823	926.400024414063
636.43246851086	933.599975585938
637.174503525845	929
637.916446583745	930.200012207031
638.658297692538	928.599975585938
639.400056860179	929
640.141724094637	926.400024414063
640.883299403885	928.400024414063
641.62478279588	930.799987792969
642.366174278594	930.799987792969
643.107473859989	928.400024414063
643.848681548029	928.799987792969
644.589797350679	930
645.330821275901	930
646.071753331665	929
646.812593525922	927.799987792969
647.553341866646	928.200012207031
648.293998361798	924.200012207031
649.03456301933	929
649.775035847216	931.799987792969
650.515416853409	930.799987792969
651.255706045874	931.200012207031
651.995903432568	934
652.736009021453	931.599975585938
653.476022820486	933.400024414063
654.215944837629	931.200012207031
654.955775080842	933.599975585938
655.695513558081	935.599975585938
656.435160277301	937.400024414063
657.174715246465	933.200012207031
657.914178473527	931.599975585938
658.653549966449	933.599975585938
659.392829733176	928.799987792969
660.132017781678	930.200012207031
660.871114119901	937.200012207031
661.610118755803	941
662.349031697343	940
663.087852952468	940
663.826582529139	942.599975585938
664.565220435305	936.200012207031
665.30376667892	937.200012207031
666.04222126794	936.400024414063
666.780584210316	936.400024414063
667.518855514	941
668.25703518694	936
668.995123237096	938
669.733119672413	933.400024414063
670.471024500842	934
671.208837730333	934
671.946559368839	935.599975585938
672.684189424308	937.200012207031
673.421727904689	936.799987792969
674.159174817929	935.400024414063
674.896530171977	935.400024414063
675.633793974786	932.599975585938
676.370966234295	934.599975585938
677.108046958461	938
677.845036155219	937
678.581933832528	939.599975585938
679.318739998323	937.400024414063
680.055454660558	938.799987792969
680.792077827172	942.799987792969
681.528609506116	935.799987792969
682.265049705331	935
683.001398432759	938.599975585938
683.737655696349	939.200012207031
684.47382150404	939.799987792969
685.20989586378	939
685.945878783503	942
686.68177027116	936.599975585938
687.417570334688	937.200012207031
688.153278982032	938
688.888896221129	935.599975585938
689.624422059921	935
690.359856506349	935.599975585938
691.095199568354	942.599975585938
691.830451253874	935.400024414063
692.565611570844	933.799987792969
693.300680527212	936
694.03565813091	934
694.770544389877	934.799987792969
695.505339312053	933.200012207031
696.240042905372	937
696.974655177772	934.799987792969
697.70917613719	934.599975585938
698.443605791561	937.599975585938
699.177944148826	944
699.912191216909	935.599975585938
700.646347003755	937.799987792969
701.380411517295	936.400024414063
702.114384765465	935.400024414063
702.848266756195	933.400024414063
703.582057497421	935.400024414063
704.315756997074	938.400024414063
705.049365263089	939.799987792969
705.782882303399	936.200012207031
706.516308125936	937.200012207031
707.249642738626	933.799987792969
707.982886149403	932.799987792969
708.716038366204	933.400024414063
709.449099396949	933.400024414063
710.182069249577	932.799987792969
710.914947932009	932.400024414063
711.647735452181	934.599975585938
712.380431818022	934
713.113037037454	934.599975585938
713.845551118411	929
714.577974068818	936.599975585938
715.310305896604	935.200012207031
716.042546609694	936.200012207031
716.774696216013	933
717.506754723493	929.200012207031
718.238722140053	932.200012207031
718.970598473624	934.599975585938
719.702383732127	933.200012207031
720.43407792349	934.400024414063
721.165681055634	936.599975585938
721.897193136486	934.200012207031
722.628614173966	935.200012207031
723.359944175997	935.799987792969
724.091183150505	934
724.822331105412	932
725.553388048638	936.400024414063
726.284353988106	932.400024414063
727.015228931734	929.200012207031
727.746012887449	934.799987792969
728.476705863162	937.200012207031
729.207307866803	942.200012207031
729.937818906289	935.599975585938
730.668238989535	940.400024414063
731.398568124459	939.200012207031
732.128806318986	942
732.858953581034	935.200012207031
733.589009918514	934.400024414063
734.318975339348	934.200012207031
735.048849851452	935
735.778633462744	936.200012207031
736.508326181137	934.599975585938
737.237928014549	937.400024414063
737.967438970897	936.400024414063
738.696859058095	938.599975585938
739.426188284054	932.400024414063
740.155426656692	937.799987792969
740.884574183922	943.400024414063
741.613630873659	939.200012207031
742.342596733815	940.200012207031
743.071471772302	940.799987792969
743.800255997034	940.799987792969
744.528949415921	939.400024414063
745.257552036877	939.400024414063
745.986063867811	936.799987792969
746.714484916638	937.200012207031
747.442815191261	936.799987792969
748.171054699597	935.799987792969
748.899203449554	936
749.627261449039	937
750.355228705966	941.400024414063
751.083105228239	938.200012207031
751.810891023765	939.599975585938
752.538586100459	939.799987792969
753.266190466218	941
753.99370412896	938.599975585938
754.721127096582	931.799987792969
755.448459377	937.200012207031
756.175700978114	934.799987792969
756.902851907828	934.599975585938
757.629912174055	936.799987792969
758.356881784688	937.799987792969
759.083760747639	937.599975585938
759.810549070817	942.400024414063
760.537246762113	944.400024414063
761.263853829442	942.599975585938
761.990370280698	946.599975585938
762.716796123791	945.799987792969
763.443131366618	944
764.169376017082	943
764.895530083085	945.400024414063
765.621593572527	945.200012207031
766.347566493312	947.200012207031
767.073448853336	948.400024414063
767.799240660502	952.200012207031
768.524941922707	952.400024414063
769.250552647854	949
769.976072843836	950.200012207031
770.701502518551	952.599975585938
771.426841679905	952.400024414063
772.152090335793	952.599975585938
772.877248494107	954.799987792969
773.602316162747	948.799987792969
774.327293349609	953
775.052180062592	952
775.776976309589	955.799987792969
776.501682098496	950.400024414063
777.226297437206	952.200012207031
777.950822333616	948
778.675256795621	949.400024414063
779.399600831111	948.599975585938
780.123854447983	947.400024414063
780.84801765413	948.200012207031
781.572090457441	947.400024414063
782.296072865811	948
783.019964887131	942.400024414063
783.743766529297	943.200012207031
784.467477800194	942.799987792969
785.191098707719	943.799987792969
785.914629259756	944.200012207031
786.638069464194	944.799987792969
787.361419328932	944.400024414063
788.084678861852	939.599975585938
788.807848070845	937.799987792969
789.530926963798	938.599975585938
790.253915548602	940
790.976813833144	936.200012207031
791.699621825307	940
792.422339532986	936.799987792969
793.144966964061	938.599975585938
793.86750412642	942.599975585938
794.589951027946	941.599975585938
795.312307676536	940
796.03457408006	940.799987792969
796.756750246417	937
797.478836183477	937.200012207031
798.200831899137	939
798.92273740127	943.599975585938
799.644552697769	940.599975585938
800.36627779651	944.400024414063
801.087912705374	943.799987792969
801.809457432251	940.599975585938
802.530911985017	944.200012207031
803.252276371558	941
803.973550599748	943.200012207031
804.694734677472	939
805.415828612611	942
806.136832413045	943
806.857746086646	940.799987792969
807.578569641305	940.799987792969
808.299303084892	941.799987792969
809.019946425289	939
809.740499670372	937.400024414063
810.460962828022	935.799987792969
811.181335906114	942
811.901618912524	944
812.621811855131	945.400024414063
813.341914741809	941
814.061927580433	939.799987792969
814.781850378881	939.799987792969
815.501683145025	938.599975585938
816.221425886743	941.200012207031
816.941078611903	939.200012207031
817.660641328387	943.799987792969
818.380114044065	942.400024414063
819.099496766808	942
819.818789504492	943.599975585938
820.53799226499	942.799987792969
821.257105056168	940.200012207031
821.976127885904	939.400024414063
822.695060762064	938.599975585938
823.413903692525	941.599975585938
824.132656685151	945.599975585938
824.851319747817	938.599975585938
825.569892888388	935.799987792969
826.288376114739	943.799987792969
827.006769434737	946.599975585938
827.725072856249	941.400024414063
828.443286387142	940
829.161410035285	941.599975585938
829.87944380855	939.599975585938
830.597387714798	934.200012207031
831.315241761898	937.200012207031
832.033005957715	937
832.750680310119	940.599975585938
833.468264826969	939
834.18575951614	938.799987792969
834.903164385486	938.200012207031
835.620479442878	940
836.337704696181	937.599975585938
837.054840153255	936
837.771885821962	933.599975585938
838.488841710172	929.799987792969
839.20570782574	934.200012207031
839.922484176531	935.799987792969
840.639170770409	937.799987792969
841.355767615231	938.799987792969
842.072274718864	938
842.788692089164	944.400024414063
843.505019733993	941.799987792969
844.221257661209	935.799987792969
844.937405878676	940.200012207031
845.65346439425	941.599975585938
846.369433215789	944.400024414063
847.085312351156	943.599975585938
847.801101808205	938.799987792969
848.516801594793	942.400024414063
849.232411718781	937.599975585938
849.947932188021	943.799987792969
850.663363010376	938.599975585938
851.378704193698	935.200012207031
852.093955745842	936.599975585938
852.809117674669	941.599975585938
853.524189988028	936.799987792969
854.239172693778	940.599975585938
854.954065799768	941.400024414063
855.668869313857	942.400024414063
856.383583243899	945.400024414063
857.098207597743	945
857.812742383246	942.400024414063
858.527187608255	946
859.241543280628	947.200012207031
859.955809408218	949.200012207031
860.669985998868	949.200012207031
861.384073060437	940.799987792969
862.098070600772	941.799987792969
862.811978627724	938
863.52579714914	938
864.239526172873	939
864.953165706776	940.799987792969
865.666715758687	940.200012207031
866.380176336464	941.200012207031
867.093547447951	942.200012207031
867.806829100996	946
868.520021303444	941.799987792969
869.233124063149	943.799987792969
869.94613738795	945.799987792969
870.659061285693	942.200012207031
871.37189576423	941.599975585938
872.084640831403	939.400024414063
872.797296495057	939
873.509862763039	945
874.22233964319	945
874.934727143353	946.200012207031
875.647025271374	939.799987792969
876.359234035097	936
877.071353442361	939.799987792969
877.783383501015	937.799987792969
878.495324218895	935.400024414063
879.207175603844	936.400024414063
879.918937663705	936.400024414063
880.630610406318	936.799987792969
881.342193839524	940.799987792969
882.053687971161	939.400024414063
882.765092809069	938.400024414063
883.476408361091	941.799987792969
884.187634635066	938.200012207031
884.898771638828	940
885.609819380221	941.599975585938
886.320777867076	939.799987792969
887.031647107236	935
887.742427108536	937.799987792969
888.453117878816	938.200012207031
889.16371942591	942
889.874231757652	939.200012207031
890.584654881883	945.200012207031
891.294988806434	944.200012207031
892.005233539141	950
892.715389087837	942.400024414063
893.42545546036	940.200012207031
894.135432664543	942.400024414063
894.845320708216	941.599975585938
895.555119599216	945.400024414063
896.264829345375	946.400024414063
896.974449954526	951.200012207031
897.683981434496	946.400024414063
898.393423793125	944.799987792969
899.102777038235	940.799987792969
899.812041177664	939.200012207031
900.521216219239	941.200012207031
901.230302170793	944.799987792969
901.939299040155	946.200012207031
902.64820683515	943.200012207031
903.357025563612	948.799987792969
904.065755233368	943.799987792969
904.774395852247	942.599975585938
905.482947428076	942
906.191409968682	944
906.899783481897	944.400024414063
907.608067975538	941.599975585938
908.316263457443	940.799987792969
909.02436993543	943.799987792969
909.732387417327	943.200012207031
910.440315910959	948.400024414063
911.148155424154	949.400024414063
911.855905964731	945.400024414063
912.563567540521	944
913.271140159339	938.599975585938
913.978623829017	944.400024414063
914.686018557374	944.799987792969
915.393324352237	948
916.100541221421	942.200012207031
916.807669172752	942.599975585938
917.514708214054	944
918.221658353142	941.799987792969
918.928519597843	939.400024414063
919.635291955976	942.799987792969
920.341975435358	942.200012207031
921.048570043813	941.599975585938
921.75507578916	939.400024414063
922.461492679212	944
923.167820721795	943.400024414063
923.874059924726	943
924.58021029582	944.799987792969
925.286271842893	940.400024414063
925.992244573769	940.799987792969
926.698128496262	945.599975585938
927.403923618184	942.200012207031
928.109629947355	944
928.815247491593	944.599975585938
929.520776258708	947.200012207031
930.226216256519	939.599975585938
930.931567492841	940.200012207031
931.636829975482	938.400024414063
932.342003712263	940.599975585938
933.047088710995	939.200012207031
933.752084979491	942.599975585938
934.456992525564	946.799987792969
935.161811357024	942.400024414063
935.866541481688	943.599975585938
936.571182907363	944
937.275735641861	944.200012207031
937.980199692995	947.200012207031
938.684575068572	943.599975585938
939.388861776411	943.799987792969
940.093059824311	940
940.797169220085	938.799987792969
941.501189971544	941.799987792969
942.205122086495	941.599975585938
942.908965572751	940
943.612720438111	942.200012207031
944.316386690391	941
945.019964337391	942.200012207031
945.723453386924	940.599975585938
946.426853846795	941.400024414063
947.130165724808	940.599975585938
947.83338902877	946.599975585938
948.536523766488	935
949.239569945764	940.599975585938
949.942527574402	939.799987792969
950.64539666021	942.799987792969
951.348177210993	938
952.050869234548	939.799987792969
952.753472738683	944.400024414063
953.455987731199	939.200012207031
954.158414219898	940.400024414063
954.860752212587	937.400024414063
955.563001717061	939.200012207031
956.265162741124	938
956.967235292576	938.799987792969
957.669219379224	937.400024414063
958.371115008857	945.799987792969
959.072922189283	940.200012207031
959.774640928301	942.200012207031
960.476271233708	938.799987792969
961.177813113301	936
961.879266574882	938
962.580631626248	937.200012207031
963.281908275194	945.599975585938
963.98309652952	942.799987792969
964.684196397022	944.599975585938
965.3852078855	944.200012207031
966.086131002745	946
966.786965756555	937.200012207031
967.487712154726	941.799987792969
968.188370205055	943.799987792969
968.888939915331	940.400024414063
969.589421293352	942.200012207031
970.289814346909	939.599975585938
970.990119083801	940.599975585938
971.690335511819	936.200012207031
972.39046363875	938.400024414063
973.090503472398	941.799987792969
973.790455020545	944
974.490318290987	945.400024414063
975.190093291516	946.200012207031
975.889780029923	943.799987792969
976.589378513998	940
977.288888751527	943.400024414063
977.988310750308	943.200012207031
978.687644518122	938.599975585938
979.386890062767	939.599975585938
980.086047392025	939.200012207031
980.785116513689	942
981.484097435542	942.599975585938
982.182990165377	941.200012207031
982.88179471098	942.799987792969
983.580511080137	939.599975585938
984.279139280632	941
984.977679320253	938.599975585938
985.67613120679	947
986.374494948027	940.599975585938
987.072770551745	941.599975585938
987.770958025731	941.400024414063
988.469057377772	942.799987792969
989.167068615649	937.400024414063
989.864991747145	938.200012207031
990.562826780047	940.799987792969
991.260573722134	944.200012207031
991.958232581195	937
992.655803365003	937.400024414063
993.353286081346	941.400024414063
994.050680738006	941.200012207031
994.74798734276	943.599975585938
995.44520590339	942.799987792969
996.142336427681	940.799987792969
996.839378923407	938.799987792969
997.536333398348	933.200012207031
998.233199860289	939.799987792969
998.929978317004	941.200012207031
999.626668776274	943.200012207031
1000.32327124587	941.599975585938
1001.01978573359	944
1001.71621224718	940.799987792969
1002.41255079445	939.799987792969
1003.10880138315	939.200012207031
1003.80496402107	948.400024414063
1004.50103871599	946.599975585938
1005.19702547567	948.200012207031
1005.8929243079	947.200012207031
1006.58873522045	946.599975585938
1007.2844582211	947.400024414063
1007.98009331761	944.799987792969
1008.67564051776	944.400024414063
1009.37109982933	939.799987792969
1010.06647126009	939
1010.7617548178	941.599975585938
1011.45695051026	942.799987792969
1012.15205834522	943.400024414063
1012.84707833045	940.400024414063
1013.54201047373	944
1014.23685478284	944.200012207031
1014.93161126553	943.799987792969
1015.62627992959	944.200012207031
1016.32086078277	943.799987792969
1017.01535383285	941
1017.70975908761	944.799987792969
1018.40407655479	941.200012207031
1019.09830624219	941
1019.79244815755	937.400024414063
1020.48650230866	937.799987792969
1021.18046870328	939.200012207031
1021.87434734917	937.599975585938
1022.56813825411	940.599975585938
1023.26184142584	940.799987792969
1023.95545687216	940.200012207031
1024.64898460082	940.400024414063
1025.34242461957	936.200012207031
1026.0357769362	940.799987792969
1026.72904155846	943.599975585938
1027.42221849412	938.599975585938
1028.11530775094	937.200012207031
1028.80830933668	936.400024414063
1029.50122325911	939.400024414063
1030.19404952599	938.799987792969
1030.88678814508	940.400024414063
1031.57943912414	939.799987792969
1032.27200247093	939.200012207031
1032.96447819323	942
1033.65686629878	940.799987792969
1034.34916679534	941.799987792969
1035.04137969068	940.400024414063
1035.73350499256	940
1036.42554270874	941.400024414063
1037.11749284697	940.200012207031
1037.80935541501	939.599975585938
1038.50113042062	943.400024414063
1039.19281787156	938.799987792969
1039.88441777559	943.400024414063
1040.57593014046	940
1041.26735497393	940.799987792969
1041.95869228376	940.400024414063
1042.6499420777	943.599975585938
1043.3411043635	943
1044.03217914893	943.799987792969
1044.72316644174	944.200012207031
1045.41406624968	946.599975585938
1046.1048785805	944.799987792969
1046.79560344197	945
1047.48624084182	941.799987792969
1048.17679078783	941.200012207031
1048.86725328774	943.200012207031
1049.55762834929	943
1050.24791598025	938.799987792969
1050.93811618837	935.799987792969
1051.62822898139	935.200012207031
1052.31825436707	935.599975585938
1053.00819235315	939.799987792969
1053.6980429474	933.799987792969
1054.38780615755	942
1055.07748199136	940.799987792969
1055.76707045658	939
1056.45657156095	943.200012207031
1057.14598531222	939
1057.83531171814	943
1058.52455078646	939.799987792969
1059.21370252494	944
1059.90276694129	943.799987792969
1060.5917440433	946.200012207031
1061.28063383868	939.400024414063
1061.9694363352	943
1062.65815154059	938.400024414063
1063.34677946261	940
1064.03532010899	942
1064.72377348748	937.799987792969
1065.41213960583	935.400024414063
1066.10041847177	937
1066.78861009306	938.400024414063
1067.47671447743	944.599975585938
1068.16473163263	942.400024414063
1068.85266156639	936.200012207031
1069.54050428647	938.799987792969
1070.2282598006	937.400024414063
1070.91592811652	937
1071.60350924198	939.400024414063
1072.29100318471	942.200012207031
1072.97840995245	942.599975585938
1073.66572955295	945.799987792969
1074.35296199394	943.599975585938
1075.04010728316	942.799987792969
1075.72716542836	943
1076.41413643726	943.400024414063
1077.10102031761	934.799987792969
1077.78781707715	942
1078.4745267236	942.400024414063
1079.16114926471	945
1079.84768470822	941
1080.53413306185	940.599975585938
1081.22049433336	941.200012207031
1081.90676853046	946.799987792969
1082.5929556609	940
1083.27905573241	944.599975585938
1083.96506875272	939.400024414063
1084.65099472957	939
1085.3368336707	937.799987792969
1086.02258558383	936.799987792969
1086.70825047669	936.799987792969
1087.39382835703	942.599975585938
1088.07931923257	938
1088.76472311104	940.400024414063
1089.45004000018	943.400024414063
1090.13526990771	941.400024414063
1090.82041284137	940.799987792969
1091.50546880889	940.599975585938
1092.19043781799	939.200012207031
1092.87531987642	944
1093.56011499188	944.799987792969
1094.24482317212	944.200012207031
1094.92944442486	936.599975585938
1095.61397875783	940.400024414063
1096.29842617876	937.799987792969
1096.98278669537	937.599975585938
1097.6670603154	939.599975585938
1098.35124704656	942.799987792969
1099.03534689659	941.799987792969
1099.71935987322	945
1100.40328598416	942.400024414063
1101.08712523713	941.200012207031
1101.77087763988	943.599975585938
1102.45454320012	938.200012207031
1103.13812192557	945.599975585938
1103.82161382396	942.599975585938
1104.50501890301	944.799987792969
1105.18833717045	943.200012207031
1105.87156863399	937.799987792969
1106.55471330137	942.200012207031
1107.2377711803	939.599975585938
1107.9207422785	941.799987792969
1108.60362660369	941.599975585938
1109.2864241636	942.200012207031
1109.96913496594	943.599975585938
1110.65175901844	944.799987792969
1111.33429632882	942.400024414063
1112.01674690479	942.599975585938
1112.69911075408	935.599975585938
1113.38138788439	938.799987792969
1114.06357830346	940
1114.745682019	944
1115.42769903872	945.599975585938
1116.10962937035	943.799987792969
1116.7914730216	948.200012207031
1117.47323000018	941.799987792969
1118.15490031382	945.200012207031
1118.83648397022	946.400024414063
1119.51798097712	946.400024414063
1120.1993913422	946.799987792969
1120.88071507321	949.200012207031
1121.56195217784	945.200012207031
1122.24310266381	946.799987792969
1122.92416653884	950.200012207031
1123.60514381064	946.799987792969
1124.28603448692	946
1124.9668385754	941.400024414063
1125.64755608378	946.200012207031
1126.32818701978	947.599975585938
1127.00873139111	946.599975585938
1127.68918920548	943.599975585938
1128.3695604706	942.400024414063
1129.04984519419	946
1129.73004338394	947.400024414063
1130.41015504758	949.400024414063
1131.09018019281	945.400024414063
1131.77011882734	945.400024414063
1132.44997095888	947.200012207031
1133.12973659514	944.599975585938
1133.80941574381	946.200012207031
1134.48900841263	945.799987792969
1135.16851460927	942.799987792969
1135.84793434147	944.799987792969
1136.52726761692	940
1137.20651444333	947.599975585938
1137.8856748284	943.400024414063
1138.56474877984	944.599975585938
1139.24373630536	943.400024414063
1139.92263741265	942.599975585938
1140.60145210943	944.200012207031
1141.28018040339	940.200012207031
1141.95882230225	940.200012207031
1142.6373778137	948.400024414063
1143.31584694545	944
1143.99422970519	942.400024414063
1144.67252610064	943.400024414063
1145.35073613949	939.400024414063
1146.02885982944	941.400024414063
1146.7068971782	942.599975585938
1147.38484819347	944.799987792969
1148.06271288294	943
1148.74049125432	943.400024414063
1149.41818331531	941
1150.0957890736	945.799987792969
1150.77330853689	938.799987792969
1151.45074171289	946.200012207031
1152.12808860928	939
1152.80534923378	941.799987792969
1153.48252359407	939
1154.15961169786	939.400024414063
1154.83661355283	942.599975585938
1155.51352916669	939.200012207031
1156.19035854713	939.599975585938
1156.86710170185	937.599975585938
1157.54375863855	937.400024414063
1158.22032936491	946.400024414063
1158.89681388863	943.400024414063
1159.57321221741	942.400024414063
1160.24952435894	944
1160.92575032092	939.599975585938
1161.60189011103	941.799987792969
1162.27794373697	942.200012207031
1162.95391120644	944.400024414063
1163.62979252712	941.599975585938
1164.3055877067	943.400024414063
1164.98129675288	941.400024414063
1165.65691967336	940
1166.33245647581	940.200012207031
1167.00790716792	940.400024414063
1167.6832717574	934.599975585938
1168.35855025193	940.599975585938
1169.0337426592	940.799987792969
1169.70884898689	936.599975585938
1170.3838692427	941.599975585938
1171.05880343431	940.799987792969
1171.73365156941	944.799987792969
1172.40841365569	942
1173.08308970083	941.200012207031
1173.75767971253	941.400024414063
1174.43218369847	943.400024414063
1175.10660166633	941.799987792969
1175.7809336238	942
1176.45517957857	949.599975585938
1177.12933953832	940.200012207031
1177.80341351073	945.400024414063
1178.47740150349	946.400024414063
1179.15130352429	943.599975585938
1179.8251195808	949
1180.49884968071	950.799987792969
1181.1724938317	949.400024414063
1181.84605204145	951.799987792969
1182.51952431766	954.599975585938
1183.19291066799	949.400024414063
1183.86621110013	951
1184.53942562176	952
1185.21255424057	951
1185.88559696422	955.200012207031
1186.55855380041	953.400024414063
1187.2314247568	956.400024414063
1187.90420984109	950
1188.57690906095	952
1189.24952242405	950
1189.92204993808	948
1190.59449161071	948.599975585938
1191.26684744962	951.400024414063
1191.93911746249	949.400024414063
1192.61130165699	951
1193.28340004081	948
1193.95541262161	946.200012207031
1194.62733940707	950.599975585938
1195.29918040487	946.599975585938
1195.97093562269	944.400024414063
1196.64260506819	942.599975585938
1197.31418874905	939.400024414063
1197.98568667295	944.400024414063
1198.65709884755	951.799987792969
1199.32842528053	949.400024414063
1199.99966597957	945.799987792969
1200.67082095234	946.200012207031
1201.3418902065	946.599975585938
1202.01287374974	947.200012207031
1202.68377158971	945
1203.3545837341	946.799987792969
1204.02531019057	942.799987792969
1204.6959509668	944.599975585938
1205.36650607045	939.599975585938
1206.03697550919	942
1206.70735929069	942.400024414063
1207.37765742263	946
1208.04786991266	942.799987792969
1208.71799676846	939.200012207031
1209.38803799769	941.200012207031
1210.05799360803	937.799987792969
1210.72786360714	940.599975585938
1211.39764800268	944.200012207031
1212.06734680233	938.200012207031
1212.73696001375	939.799987792969
1213.4064876446	938.400024414063
1214.07592970255	935
1214.74528619526	938.799987792969
1215.4145571304	941.200012207031
1216.08374251564	940
1216.75284235863	940
1217.42185666704	945.400024414063
1218.09078544854	940.400024414063
1218.75962871078	942.200012207031
1219.42838646143	938.400024414063
1220.09705870816	942.799987792969
1220.76564545861	939
1221.43414672046	944.400024414063
1222.10256250136	940.799987792969
1222.77089280898	942
1223.43913765098	946.599975585938
1224.107297035	947.200012207031
1224.77537096873	941.599975585938
1225.44335945981	943.599975585938
1226.1112625159	942.200012207031
1226.77908014467	940.400024414063
1227.44681235376	946.599975585938
1228.11445915085	942.400024414063
1228.78202054357	943.200012207031
1229.44949653961	944
1230.11688714659	943.200012207031
1230.7841923722	942.799987792969
1231.45141222407	949.400024414063
1232.11854670988	945
1232.78559583726	945.400024414063
1233.45255961388	944.599975585938
1234.1194380474	945.599975585938
1234.78623114546	944.400024414063
1235.45293891572	945.400024414063
1236.11956136583	941
1236.78609850345	940.200012207031
1237.45255033623	945.400024414063
1238.11891687182	942.200012207031
1238.78519811788	947.799987792969
1239.45139408205	940
1240.11750477198	945.400024414063
1240.78353019534	943.599975585938
1241.44947035976	944.799987792969
1242.11532527291	945.200012207031
1242.78109494242	940
1243.44677937595	943.599975585938
1244.11237858115	938.799987792969
1244.77789256567	940.799987792969
1245.44332133715	940.599975585938
1246.10866490325	937.599975585938
1246.7739232716	935
1247.43909644987	936.799987792969
1248.10418444569	932
1248.76918726671	936.599975585938
1249.43410492059	935.599975585938
1250.09893741496	935.400024414063
1250.76368475747	940
1251.42834695576	939
1252.09292401749	934.799987792969
1252.75741595029	937.200012207031
1253.42182276182	937.599975585938
1254.08614445971	939.599975585938
1254.75038105161	939.200012207031
1255.41453254515	941.799987792969
1256.07859894799	937.200012207031
1256.74258026777	940.200012207031
1257.40647651213	941
1258.0702876887	943.799987792969
1258.73401380514	939
1259.39765486908	940
1260.06121088817	937.400024414063
1260.72468187004	942.400024414063
1261.38806782233	935.799987792969
1262.05136875269	941.200012207031
1262.71458466875	940.599975585938
1263.37771557815	946.200012207031
1264.04076148854	942.799987792969
1264.70372240753	944.400024414063
1265.3665983428	943.200012207031
1266.02938930195	948
1266.69209529263	941
1267.35471632249	943
1268.01725239914	942.400024414063
1268.67970353024	939.200012207031
1269.34206972342	941.599975585938
1270.00435098631	947.799987792969
1270.66654732655	944
1271.32865875177	939.799987792969
1271.9906852696	940.599975585938
1272.65262688768	944.599975585938
1273.31448361365	943.599975585938
1273.97625545514	941.799987792969
1274.63794241978	943.799987792969
1275.2995445152	946.400024414063
1275.96106174903	944.400024414063
1276.62249412892	946.400024414063
1277.28384166248	942.799987792969
1277.94510435735	939.400024414063
1278.60628222116	938.799987792969
1279.26737526155	938.400024414063
1279.92838348613	944
1280.58930690255	945
1281.25014551842	939.599975585938
1281.91089934139	938.599975585938
1282.57156837907	940
1283.2321526391	943
1283.89265212911	940.799987792969
1284.55306685671	945.599975585938
1285.21339682955	946
1285.87364205525	944
1286.53380254142	947
1287.19387829571	942.799987792969
1287.85386932573	946.400024414063
1288.51377563911	941.599975585938
1289.17359724348	942
1289.83333414646	940
1290.49298635567	944
1291.15255387874	945.200012207031
1291.8120367233	944.400024414063
1292.47143489696	944.400024414063
1293.13074840736	945
1293.7899772621	944.799987792969
1294.44912146882	945.400024414063
1295.10818103513	944.200012207031
1295.76715596866	941.400024414063
1296.42604627704	943.799987792969
1297.08485196787	944
1297.74357304878	945.200012207031
1298.4022095274	945.799987792969
1299.06076141134	942.599975585938
1299.71922870821	936.599975585938
1300.37761142565	940
1301.03590957126	945.400024414063
1301.69412315268	947.200012207031
1302.3522521775	941.599975585938
1303.01029665336	944.599975585938
1303.66825658787	948.400024414063
1304.32613198865	943.799987792969
1304.98392286332	952.400024414063
1305.64162921948	944.400024414063
1306.29925106476	946.799987792969
1306.95678840677	946.200012207031
1307.61424125312	948.799987792969
1308.27160961145	946.799987792969
1308.92889348934	948
1309.58609289443	955.799987792969
1310.24320783432	954.799987792969
1310.90023831664	953.599975585938
1311.55718434898	952.200012207031
1312.21404593897	953.599975585938
1312.87082309421	950.599975585938
1313.52751582233	952.799987792969
1314.18412413092	949.599975585938
1314.84064802761	946
1315.49708752	953.599975585938
1316.1534426157	953.799987792969
1316.80971332233	943
1317.46589964749	944.599975585938
1318.1220015988	944.599975585938
1318.77801918386	942.599975585938
1319.43395241028	939
1320.08980128567	942.599975585938
1320.74556581764	942.599975585938
1321.4012460138	943.400024414063
1322.05684188176	946
1322.71235342911	947.799987792969
1323.36778066347	946.599975585938
1324.02312359245	950
1324.67838222365	939.200012207031
1325.33355656468	946
1325.98864662314	940
1326.64365240663	945.599975585938
1327.29857392277	939.599975585938
1327.95341117915	941
1328.60816418339	935.200012207031
1329.26283294308	939.400024414063
1329.91741746582	937.799987792969
1330.57191775923	940
1331.2263338309	941.799987792969
1331.88066568843	946.200012207031
1332.53491333943	946.799987792969
1333.1890767915	949.400024414063
1333.84315605224	952
1334.49715112925	950.599975585938
1335.15106203013	946.799987792969
1335.80488876249	947.400024414063
1336.45863133391	941
1337.112289752	944.599975585938
1337.76586402437	944.599975585938
1338.4193541586	945.200012207031
1339.0727601623	942.599975585938
1339.72608204306	943.400024414063
1340.37931980849	944.599975585938
1341.03247346617	943.799987792969
1341.68554302372	948.200012207031
1342.33852848871	946.599975585938
1342.99142986876	945.400024414063
1343.64424717145	948.200012207031
1344.29698040438	948
1344.94962957515	944
1345.60219469135	942.799987792969
1346.25467576058	943
1346.90707279042	948.799987792969
1347.55938578848	947.599975585938
1348.21161476235	946.200012207031
1348.86375971962	944.599975585938
1349.51582066787	941.400024414063
1350.16779761472	944.400024414063
1350.81969056774	942.799987792969
1351.47149953453	946.799987792969
1352.12322452269	951
1352.77486553979	956.599975585938
1353.42642259344	954.599975585938
1354.07789569122	954
1354.72928484072	954.799987792969
1355.38059004953	953.599975585938
1356.03181132525	950.799987792969
1356.68294867545	951
1357.33400210773	951.200012207031
1357.98497162968	956
1358.63585724889	954.200012207031
1359.28665897294	958.599975585938
1359.93737680942	957
1360.58801076591	959.799987792969
1361.23856085001	956.200012207031
1361.88902706929	960.200012207031
1362.53940943135	960.599975585938
1363.18970794377	954.799987792969
1363.83992261413	959.200012207031
1364.49005345003	959.599975585938
1365.14010045904	959.200012207031
1365.79006364874	955.799987792969
1366.43994302673	957.599975585938
1367.08973860058	954.400024414063
1367.73945037788	953.599975585938
1368.38907836621	955.400024414063
1369.03862257315	949.599975585938
1369.68808300629	950.799987792969
1370.3374596732	951.599975585938
1370.98675258148	951.400024414063
1371.63596173868	950.200012207031
1372.28508715241	948.799987792969
1372.93412883024	944.400024414063
1373.58308677974	946.799987792969
1374.2319610085	945
1374.8807515241	939.400024414063
1375.52945833412	945.400024414063
1376.17808144612	941.200012207031
1376.82662086771	937
1377.47507660644	939.200012207031
1378.12344866989	937.799987792969
1378.77173706565	935.400024414063
1379.41994180129	940.799987792969
1380.06806288439	943
1380.71610032252	943.200012207031
1381.36405412326	945.799987792969
1382.01192429419	942.400024414063
1382.65971084287	940.599975585938
1383.30741377688	939.599975585938
1383.95503310381	942.799987792969
1384.60256883121	938.400024414063
1385.25002096667	939.200012207031
1385.89738951775	939
1386.54467449204	934
1387.19187589709	937.799987792969
1387.8389937405	936.200012207031
1388.48602802982	938.799987792969
1389.13297877262	942.400024414063
1389.77984597649	933.799987792969
1390.42662964899	940.799987792969
1391.07332979768	937.599975585938
1391.71994643015	938.799987792969
1392.36647955395	933.599975585938
1393.01292917667	938.400024414063
1393.65929530586	936
1394.3055779491	934
1394.95177711395	941.799987792969
1395.59789280799	936.400024414063
1396.24392503877	935.599975585938
1396.88987381387	935.200012207031
1397.53573914086	933.400024414063
1398.1815210273	930
1398.82721948075	931.799987792969
1399.47283450878	936.400024414063
1400.11836611897	939.599975585938
1400.76381431886	941.799987792969
1401.40917911603	935
1402.05446051805	938.400024414063
1402.69965853247	943
1403.34477316686	936.400024414063
1403.98980442878	931.599975585938
1404.6347523258	934.400024414063
1405.27961686548	938.400024414063
1405.92439805538	937.400024414063
1406.56909590306	936
1407.21371041608	941
1407.85824160202	946.200012207031
1408.50268946841	943.799987792969
1409.14705402284	939.200012207031
1409.79133527285	942
1410.43553322601	938.200012207031
1411.07964788987	937.599975585938
1411.723679272	938
1412.36762737996	938
1413.01149222129	934.400024414063
1413.65527380357	935
1414.29897213435	933.400024414063
1414.94258722118	937.400024414063
1415.58611907163	942
1416.22956769325	939.200012207031
1416.87293309359	941.400024414063
1417.51621528021	940.400024414063
1418.15941426067	940.799987792969
1418.80253004253	943.599975585938
1419.44556263333	941.200012207031
1420.08851204063	939.200012207031
1420.731378272	939.400024414063
1421.37416133497	933.799987792969
1422.0168612371	934
1422.65947798596	941
1423.30201158908	938.200012207031
1423.94446205403	943.200012207031
1424.58682938835	939.799987792969
1425.2291135996	940.799987792969
1425.87131469532	940.799987792969
1426.51343268308	933.200012207031
1427.15546757042	938.400024414063
1427.79741936488	932.200012207031
1428.43928807403	937.200012207031
1429.0810737054	936.799987792969
1429.72277626656	937.799987792969
1430.36439576504	941
1431.00593220841	938.799987792969
1431.64738560419	937.599975585938
1432.28875595995	935.400024414063
1432.93004328324	929.599975585938
1433.57124758159	935.599975585938
1434.21236886255	938.799987792969
1434.85340713368	939.200012207031
1435.49436240252	934.400024414063
1436.13523467661	934.200012207031
1436.77602396349	936.599975585938
1437.41673027073	933.799987792969
1438.05735360585	938.599975585938
1438.69789397641	937.400024414063
1439.33835138994	939.599975585938
1439.978725854	940
1440.61901737612	940.799987792969
1441.25922596385	937.200012207031
1441.89935162473	934.599975585938
1442.53939436631	936.599975585938
1443.17935419612	933.200012207031
1443.81923112171	936.799987792969
1444.45902515061	935.599975585938
1445.09873629038	931.799987792969
1445.73836454854	931.599975585938
1446.37790993265	933.599975585938
1447.01737245024	934.599975585938
1447.65675210885	939.400024414063
1448.29604891602	934.799987792969
1448.93526287928	935.799987792969
1449.57439400618	934
1450.21344230426	932.799987792969
1450.85240778105	932
1451.49129044409	936.599975585938
1452.13009030092	936
1452.76880735907	930.400024414063
1453.40744162608	935
1454.04599310949	934.400024414063
1454.68446181683	934.200012207031
1455.32284775564	938.799987792969
1455.96115093345	937.799987792969
1456.5993713578	933
1457.23750903623	933.799987792969
1457.87556397626	937.400024414063
1458.51353618543	936.200012207031
1459.15142567127	937.400024414063
1459.78923244132	936.400024414063
1460.42695650311	935.400024414063
1461.06459786417	937.200012207031
1461.70215653203	938.200012207031
1462.33963251423	936.200012207031
1462.97702581829	939.799987792969
1463.61433645175	935
1464.25156442214	935
1464.88870973699	940.799987792969
1465.52577240382	936.200012207031
1466.16275243017	938.799987792969
1466.79964982356	940.200012207031
1467.43646459154	938.400024414063
1468.07319674161	939.799987792969
1468.70984628132	939.599975585938
1469.34641321818	943.599975585938
1469.98289755974	941.400024414063
1470.6192993135	942.400024414063
1471.25561848701	942.799987792969
1471.89185508779	934
1472.52800912336	938.799987792969
1473.16408060124	936.400024414063
1473.80006952897	936.599975585938
1474.43597591407	940.200012207031
1475.07179976406	936
1475.70754108647	937.200012207031
1476.34319988883	937.400024414063
1476.97877617865	943.200012207031
1477.61426996345	939.799987792969
1478.24968125077	940.599975585938
1478.88501004812	941
1479.52025636303	937.400024414063
1480.15542020302	937
1480.79050157561	941.200012207031
1481.42550048832	937.599975585938
1482.06041694867	938.599975585938
1482.69525096418	936
1483.33000254237	937.200012207031
1483.96467169077	940.799987792969
1484.59925841689	940.400024414063
1485.23376272825	938.200012207031
1485.86818463237	938.400024414063
1486.50252413677	940.599975585938
1487.13678124896	938.599975585938
1487.77095597646	934.799987792969
1488.4050483268	937.799987792969
1489.03905830749	938.599975585938
1489.67298592604	945.599975585938
1490.30683118996	944
1490.9405941068	944.400024414063
1491.57427468403	945
1492.2078729292	942.400024414063
1492.84138884981	943.599975585938
1493.47482245338	941.799987792969
1494.10817374742	941.400024414063
1494.74144273944	940.799987792969
1495.37462943696	938.400024414063
1496.0077338475	941.799987792969
1496.64075597856	947.599975585938
1497.27369583765	947.599975585938
1497.9065534323	944.599975585938
1498.53932877001	943.799987792969
1499.17202185829	944.200012207031
1499.80463270465	943.799987792969
1500.43716131661	947.599975585938
1501.06960770167	946
1501.70197186735	946.200012207031
1502.33425382116	947.400024414063
1502.96645357059	947.200012207031
1503.59857112317	953.799987792969
1504.23060648641	954.799987792969
1504.8625596678	951.400024414063
1505.49443067486	948.799987792969
1506.1262195151	944
1506.75792619602	946.599975585938
1507.38955072513	949.799987792969
1508.02109310993	948.400024414063
1508.65255335794	952
1509.28393147666	948.400024414063
1509.91522747359	950
1510.54644135624	951.200012207031
1511.17757313212	950.400024414063
1511.80862280872	946.799987792969
1512.43959039356	952.400024414063
1513.07047589413	949.799987792969
1513.70127931795	945
1514.33200067251	943.599975585938
1514.96263996531	942.200012207031
1515.59319720386	947
1516.22367239567	945.400024414063
1516.85406554822	942.599975585938
1517.48437666903	941.799987792969
1518.1146057656	945
1518.74475284542	939.799987792969
1519.374817916	938.799987792969
1520.00480098483	945.799987792969
1520.63470205942	938.599975585938
1521.26452114726	940.400024414063
1521.89425825586	939.400024414063
1522.52391339271	941.799987792969
1523.15348656531	938.799987792969
1523.78297778116	942.599975585938
1524.41238704775	939.200012207031
1525.04171437259	942
1525.67095976317	938.400024414063
1526.30012322699	937.599975585938
1526.92920477154	944
1527.55820440432	939.200012207031
1528.18712213283	943.799987792969
1528.81595796455	942.599975585938
1529.44471190699	940.400024414063
1530.07338396764	940.799987792969
1530.70197415399	942
1531.33048247353	939.599975585938
1531.95890893377	941.799987792969
1532.58725354219	942.200012207031
1533.21551630629	940
1533.84369723356	947.200012207031
1534.47179633148	943.400024414063
1535.09981360757	945.400024414063
1535.72774906929	945.799987792969
1536.35560272415	941.400024414063
1536.98337457963	946.400024414063
1537.61106464323	944.599975585938
1538.23867292243	943.400024414063
1538.86619942473	945
1539.49364415762	938.400024414063
1540.12100712857	939.400024414063
1540.74828834509	939.599975585938
1541.37548781466	938.599975585938
1542.00260554478	939.799987792969
1542.62964154291	937.200012207031
1543.25659581655	940.599975585938
1543.8834683732	938.599975585938
1544.51025922034	936.200012207031
1545.13696836544	940.599975585938
1545.76359581601	935.799987792969
1546.39014157952	933.599975585938
1547.01660566345	934.799987792969
1547.64298807531	934.599975585938
1548.26928882255	934
1548.89550791269	936.200012207031
1549.52164535318	939.799987792969
1550.14770115153	938.200012207031
1550.77367531521	936
1551.39956785171	931
1552.0253787685	936
1552.65110807307	934.200012207031
1553.2767557729	933
1553.90232187548	932.799987792969
1554.52780638828	936.400024414063
1555.15320931879	936.200012207031
1555.77853067447	931.400024414063
1556.40377046282	933.799987792969
1557.02892869132	932.799987792969
1557.65400536744	930
1558.27900049866	930.400024414063
1558.90391409247	935
1559.52874615633	934.599975585938
1560.15349669773	933.599975585938
1560.77816572414	936
1561.40275324305	936.799987792969
1562.02725926192	938.599975585938
1562.65168378824	940.799987792969
1563.27602682948	938.200012207031
1563.90028839311	945.200012207031
1564.52446848662	941.799987792969
1565.14856711748	939.200012207031
1565.77258429316	942.799987792969
1566.39652002113	940.200012207031
1567.02037430887	945.799987792969
1567.64414716387	941.599975585938
1568.26783859357	942.599975585938
1568.89144860547	942.599975585938
1569.51497720703	942.599975585938
1570.13842440573	943
1570.76179020904	947
1571.38507462442	941.599975585938
1572.00827765936	940.400024414063
1572.63139932132	943.400024414063
1573.25443961777	937
1573.87739855618	933
1574.50027614402	939.799987792969
1575.12307238877	938.599975585938
1575.74578729789	936.200012207031
1576.36842087885	936.200012207031
1576.99097313912	934.200012207031
1577.61344408616	942
1578.23583372745	940.400024414063
1578.85814207046	939.799987792969
1579.48036912264	943.200012207031
1580.10251489147	938.799987792969
1580.72457938441	938
1581.34656260893	935.400024414063
1581.9684645725	934.200012207031
1582.59028528258	931.799987792969
1583.21202474663	936.599975585938
1583.83368297212	933.200012207031
1584.45525996652	937
1585.07675573728	932.799987792969
1585.69817029188	931.599975585938
1586.31950363778	929.799987792969
1586.94075578243	933.599975585938
1587.5619267333	933.400024414063
1588.18301649786	932.599975585938
1588.80402508357	930
1589.42495249788	931.599975585938
1590.04579874826	931.400024414063
1590.66656384217	927.400024414063
1591.28724778707	929.599975585938
1591.90785059042	928.400024414063
1592.52837225968	926
1593.14881280232	931.200012207031
1593.76917222578	929.400024414063
1594.38945053753	927.599975585938
1595.00964774502	925.200012207031
1595.62976385573	930.799987792969
1596.24979887709	933.400024414063
1596.86975281657	926
1597.48962568164	930.200012207031
1598.10941747974	931.799987792969
1598.72912821832	928.200012207031
1599.34875790486	931.799987792969
1599.9683065468	928.799987792969
1600.58777415159	928.799987792969
1601.2071607267	930.599975585938
1601.82646627958	930.799987792969
1602.44569081769	924.200012207031
1603.06483434846	929.599975585938
1603.68389687937	925.799987792969
1604.30287841786	926.400024414063
1604.92177897139	926
1605.54059854741	926.599975585938
1606.15933715337	926.400024414063
1606.77799479672	927.200012207031
1607.39657148492	927
1608.01506722542	925
1608.63348202566	924.400024414063
1609.2518158931	928.200012207031
1609.87006883519	927
1610.48824085939	927.400024414063
1611.10633197312	929
1611.72434218386	925.400024414063
1612.34227149904	925.599975585938
1612.96011992612	927.400024414063
1613.57788747254	925
1614.19557414575	923.400024414063
1614.8131799532	923.799987792969
1615.43070490234	928
1616.04814900061	926.200012207031
1616.66551225545	927.799987792969
1617.28279467433	923.200012207031
1617.89999626467	919
1618.51711703393	919.400024414063
1619.13415698955	921.599975585938
1619.75111613898	920.200012207031
1620.36799448966	922.799987792969
1620.98479204903	925.400024414063
1621.60150882455	921.200012207031
1622.21814482364	922.599975585938
1622.83470005376	926
1623.45117452235	921.799987792969
1624.06756823685	921
1624.6838812047	923.799987792969
1625.30011343335	920.200012207031
1625.91626493022	917.799987792969
1626.53233570278	917
1627.14832575845	920.200012207031
1627.76423510468	921.799987792969
1628.38006374891	922.799987792969
1628.99581169857	917.200012207031
1629.61147896111	918.599975585938
1630.22706554397	917.599975585938
1630.84257145457	918.599975585938
1631.45799670038	919.799987792969
1632.07334128881	921.799987792969
1632.6886052273	923.599975585938
1633.3037885233	924.400024414063
1633.91889118425	924.599975585938
1634.53391321757	923.400024414063
1635.1488546307	920.200012207031
1635.76371543108	923.200012207031
1636.37849562616	921.400024414063
1636.99319522335	924.599975585938
1637.60781423009	919.799987792969
1638.22235265383	922.400024414063
1638.83681050198	925.599975585938
1639.451187782	922.400024414063
1640.0654845013	926
1640.67970066734	925.799987792969
1641.29383628752	928.799987792969
1641.9078913693	930.799987792969
1642.5218659201	927.599975585938
1643.13575994735	932.799987792969
1643.74957345849	933.400024414063
1644.36330646094	930
1644.97695896213	928.200012207031
1645.59053096951	931.799987792969
1646.20402249049	933.599975585938
1646.8174335325	932
1647.43076410298	935.400024414063
1648.04401420935	932.599975585938
1648.65718385905	937.599975585938
1649.2702730595	938
1649.88328181812	937.200012207031
1650.49621014236	940.799987792969
1651.10905803963	937.400024414063
1651.72182551735	936.400024414063
1652.33451258297	937.200012207031
1652.9471192439	937.200012207031
1653.55964550757	936.200012207031
1654.1720913814	932.400024414063
1654.78445687283	931.400024414063
1655.39674198926	925.799987792969
1656.00894673814	928.400024414063
1656.62107112688	927.400024414063
1657.23311516291	922
1657.84507885365	922.400024414063
1658.45696220652	916.599975585938
1659.06876522895	921
1659.68048792835	923.400024414063
1660.29213031217	923.799987792969
1660.90369238779	919.400024414063
1661.51517416267	922.200012207031
1662.12657564421	922.400024414063
1662.73789683984	918.200012207031
1663.34913775697	915.200012207031
1663.96029840303	915
1664.57137878544	913.400024414063
1665.18237891161	917.799987792969
1665.79329878897	916.599975585938
1666.40413842493	915.400024414063
1667.01489782691	917.599975585938
1667.62557700233	916.799987792969
1668.2361759586	920.400024414063
1668.84669470315	914.599975585938
1669.4571332434	917.599975585938
1670.06749158675	914.200012207031
1670.67776974062	912.799987792969
1671.28796771243	915.200012207031
1671.8980855096	913.400024414063
1672.50812313954	913
1673.11808060967	911.599975585938
1673.72795792739	911.400024414063
1674.33775510013	909.599975585938
1674.9474721353	911
1675.55710904031	914.200012207031
1676.16666582257	911.799987792969
1676.7761424895	912.400024414063
1677.38553904851	911.599975585938
1677.99485550702	912
1678.60409187243	911
1679.21324815215	910.799987792969
1679.8223243536	911.400024414063
1680.43132048419	914.799987792969
1681.04023655132	913
1681.64907256241	910.400024414063
1682.25782852487	917
1682.86650444611	918
1683.47510033353	913.200012207031
1684.08361619455	911.599975585938
1684.69205203657	909.200012207031
1685.300407867	911.400024414063
1685.90868369325	910
1686.51687952272	913
1687.12499536283	911.599975585938
1687.73303122098	910
1688.34098710457	915.200012207031
1688.94886302101	913
1689.55665897772	910
1690.16437498208	909.400024414063
1690.77201104152	910.400024414063
1691.37956716342	914
1691.9870433552	914.799987792969
1692.59443962426	911.400024414063
1693.20175597801	912.599975585938
1693.80899242384	910.599975585938
1694.41614896916	907.200012207031
1695.02322562138	909.799987792969
1695.63022238789	908.799987792969
1696.23713927609	914.400024414063
1696.8439762934	910.799987792969
1697.4507334472	910.200012207031
1698.05741074491	910.599975585938
1698.66400819391	911
1699.27052580161	910
1699.87696357542	911.599975585938
1700.48332152272	912.400024414063
1701.08959965092	915
1701.69579796742	915.599975585938
1702.30191647962	914
1702.90795519491	913.400024414063
1703.51391412069	915.400024414063
1704.11979326437	907.799987792969
1704.72559263332	909.599975585938
1705.33131223496	912.799987792969
1705.93695207668	910.400024414063
1706.54251216588	912.799987792969
1707.14799250994	912.200012207031
1707.75339311628	909.599975585938
1708.35871399227	907.200012207031
1708.96395514532	910.200012207031
1709.56911658282	907.200012207031
