634.948122577771	1272
635.690341530823	1284.59997558594
636.43246851086	1278.80004882813
637.174503525845	1292.19995117188
637.916446583745	1279.40002441406
638.658297692538	1264.80004882813
639.400056860179	1267
640.141724094637	1269.19995117188
640.883299403885	1277.80004882813
641.62478279588	1287.80004882813
642.366174278594	1279.19995117188
643.107473859989	1268.40002441406
643.848681548029	1285.59997558594
644.589797350679	1273.59997558594
645.330821275901	1267.80004882813
646.071753331665	1277.59997558594
646.812593525922	1279.19995117188
647.553341866646	1270.80004882813
648.293998361798	1266.19995117188
649.03456301933	1271
649.775035847216	1267.80004882813
650.515416853409	1289.59997558594
651.255706045874	1286.40002441406
651.995903432568	1285.59997558594
652.736009021453	1286.19995117188
653.476022820486	1288.80004882813
654.215944837629	1283.59997558594
654.955775080842	1294.59997558594
655.695513558081	1289.59997558594
656.435160277301	1284.59997558594
657.174715246465	1290.40002441406
657.914178473527	1307.40002441406
658.653549966449	1311.59997558594
659.392829733176	1310.59997558594
660.132017781678	1299.59997558594
660.871114119901	1296.80004882813
661.610118755803	1290.19995117188
662.349031697343	1303.19995117188
663.087852952468	1292.19995117188
663.826582529139	1296
664.565220435305	1295.80004882813
665.30376667892	1293
666.04222126794	1293.80004882813
666.780584210316	1301
667.518855514	1305.59997558594
668.25703518694	1319.19995117188
668.995123237096	1309.59997558594
669.733119672413	1306.59997558594
670.471024500842	1310.40002441406
671.208837730333	1308.19995117188
671.946559368839	1298
672.684189424308	1285.19995117188
673.421727904689	1287.40002441406
674.159174817929	1296.40002441406
674.896530171977	1304
675.633793974786	1296
676.370966234295	1306.80004882813
677.108046958461	1302.80004882813
677.845036155219	1309
678.581933832528	1308.19995117188
679.318739998323	1312.80004882813
680.055454660558	1300.40002441406
680.792077827172	1306.40002441406
681.528609506116	1298.40002441406
682.265049705331	1306.40002441406
683.001398432759	1301.19995117188
683.737655696349	1315.59997558594
684.47382150404	1314.80004882813
685.20989586378	1307.19995117188
685.945878783503	1320
686.68177027116	1329
687.417570334688	1323.80004882813
688.153278982032	1314.80004882813
688.888896221129	1327.40002441406
689.624422059921	1334.40002441406
690.359856506349	1333.40002441406
691.095199568354	1326.59997558594
691.830451253874	1312.40002441406
692.565611570844	1304
693.300680527212	1300.19995117188
694.03565813091	1299.59997558594
694.770544389877	1294.59997558594
695.505339312053	1291.80004882813
696.240042905372	1306
696.974655177772	1306.40002441406
697.70917613719	1322.40002441406
698.443605791561	1324
699.177944148826	1322.59997558594
699.912191216909	1329.19995117188
700.646347003755	1325.19995117188
701.380411517295	1326.40002441406
702.114384765465	1317.80004882813
702.848266756195	1322.40002441406
703.582057497421	1324.19995117188
704.315756997074	1312.40002441406
705.049365263089	1303.59997558594
705.782882303399	1308.80004882813
706.516308125936	1319.80004882813
707.249642738626	1313.19995117188
707.982886149403	1314.59997558594
708.716038366204	1312.19995117188
709.449099396949	1312.59997558594
710.182069249577	1313.19995117188
710.914947932009	1312
711.647735452181	1307.40002441406
712.380431818022	1313.80004882813
713.113037037454	1322.19995117188
713.845551118411	1327.59997558594
714.577974068818	1318.80004882813
715.310305896604	1334.19995117188
716.042546609694	1335
716.774696216013	1318
717.506754723493	1326.40002441406
718.238722140053	1319.40002441406
718.970598473624	1337.59997558594
719.702383732127	1332.19995117188
720.43407792349	1324
721.165681055634	1328
721.897193136486	1325.40002441406
722.628614173966	1323.59997558594
723.359944175997	1314.80004882813
724.091183150505	1293.40002441406
724.822331105412	1295.40002441406
725.553388048638	1306
726.284353988106	1303.80004882813
727.015228931734	1312.19995117188
727.746012887449	1297.59997558594
728.476705863162	1299.19995117188
729.207307866803	1319.19995117188
729.937818906289	1308
730.668238989535	1309.80004882813
731.398568124459	1309
732.128806318986	1306
732.858953581034	1312
733.589009918514	1313.80004882813
734.318975339348	1334
735.048849851452	1328
735.778633462744	1336.19995117188
736.508326181137	1328.59997558594
737.237928014549	1326
737.967438970897	1323.40002441406
738.696859058095	1318.40002441406
739.426188284054	1308.19995117188
740.155426656692	1323.80004882813
740.884574183922	1335.80004882813
741.613630873659	1349.80004882813
742.342596733815	1340.59997558594
743.071471772302	1337
743.800255997034	1326.80004882813
744.528949415921	1329
745.257552036877	1325.80004882813
745.986063867811	1326.40002441406
746.714484916638	1325.59997558594
747.442815191261	1318.59997558594
748.171054699597	1312.19995117188
748.899203449554	1331.19995117188
749.627261449039	1328.80004882813
750.355228705966	1337.40002441406
751.083105228239	1325.80004882813
751.810891023765	1335.19995117188
752.538586100459	1329
753.266190466218	1328
753.99370412896	1331.59997558594
754.721127096582	1332
755.448459377	1335.59997558594
756.175700978114	1333.59997558594
756.902851907828	1327.59997558594
757.629912174055	1335.59997558594
758.356881784688	1333
759.083760747639	1342.80004882813
759.810549070817	1338.19995117188
760.537246762113	1336.40002441406
761.263853829442	1340.40002441406
761.990370280698	1338.40002441406
762.716796123791	1344.19995117188
763.443131366618	1352.80004882813
764.169376017082	1353.59997558594
764.895530083085	1355
765.621593572527	1364.59997558594
766.347566493312	1361.40002441406
767.073448853336	1377.19995117188
767.799240660502	1376.59997558594
768.524941922707	1380.80004882813
769.250552647854	1382.19995117188
769.976072843836	1384.40002441406
770.701502518551	1381.19995117188
771.426841679905	1396.19995117188
772.152090335793	1388.80004882813
772.877248494107	1386.19995117188
773.602316162747	1382.80004882813
774.327293349609	1391
775.052180062592	1388.59997558594
775.776976309589	1384.80004882813
776.501682098496	1394.59997558594
777.226297437206	1382.19995117188
777.950822333616	1362.80004882813
778.675256795621	1370
779.399600831111	1371.19995117188
780.123854447983	1366
780.84801765413	1366.59997558594
781.572090457441	1366.59997558594
782.296072865811	1360.40002441406
783.019964887131	1353.59997558594
783.743766529297	1358
784.467477800194	1358.59997558594
785.191098707719	1339.40002441406
785.914629259756	1333.40002441406
786.638069464194	1331.80004882813
787.361419328932	1338.19995117188
788.084678861852	1323.80004882813
788.807848070845	1331.59997558594
789.530926963798	1334.19995117188
790.253915548602	1318.19995117188
790.976813833144	1327.40002441406
791.699621825307	1323.19995117188
792.422339532986	1338
793.144966964061	1330.40002441406
793.86750412642	1331.19995117188
794.589951027946	1337
795.312307676536	1325
796.03457408006	1331.19995117188
796.756750246417	1340
797.478836183477	1344
798.200831899137	1338
798.92273740127	1341.40002441406
799.644552697769	1337.40002441406
800.36627779651	1351.59997558594
801.087912705374	1361.40002441406
801.809457432251	1359
802.530911985017	1364
803.252276371558	1371.40002441406
803.973550599748	1357.40002441406
804.694734677472	1349
805.415828612611	1335
806.136832413045	1345.80004882813
806.857746086646	1338.40002441406
807.578569641305	1339.40002441406
808.299303084892	1340.19995117188
809.019946425289	1352
809.740499670372	1348.80004882813
810.460962828022	1347.40002441406
811.181335906114	1327.80004882813
811.901618912524	1336.59997558594
812.621811855131	1335.80004882813
813.341914741809	1349.19995117188
814.061927580433	1338.80004882813
814.781850378881	1349.19995117188
815.501683145025	1342.19995117188
816.221425886743	1346.40002441406
816.941078611903	1345
817.660641328387	1334.59997558594
818.380114044065	1342.80004882813
819.099496766808	1348.19995117188
819.818789504492	1340.59997558594
820.53799226499	1338.59997558594
821.257105056168	1330
821.976127885904	1333.80004882813
822.695060762064	1330
823.413903692525	1326.19995117188
824.132656685151	1339.19995117188
824.851319747817	1347.19995117188
825.569892888388	1345.80004882813
826.288376114739	1344.19995117188
827.006769434737	1348.40002441406
827.725072856249	1335.80004882813
828.443286387142	1340.80004882813
829.161410035285	1342.19995117188
829.87944380855	1356
830.597387714798	1348
831.315241761898	1340.40002441406
832.033005957715	1337.59997558594
832.750680310119	1334.19995117188
833.468264826969	1322
834.18575951614	1336.80004882813
834.903164385486	1347.80004882813
835.620479442878	1338.19995117188
836.337704696181	1340
837.054840153255	1334.19995117188
837.771885821962	1325.19995117188
838.488841710172	1327.40002441406
839.20570782574	1327.59997558594
839.922484176531	1329.59997558594
840.639170770409	1334.80004882813
841.355767615231	1328.40002441406
842.072274718864	1331.19995117188
842.788692089164	1336.40002441406
843.505019733993	1330.19995117188
844.221257661209	1328.59997558594
844.937405878676	1330.19995117188
845.65346439425	1336.80004882813
846.369433215789	1342.80004882813
847.085312351156	1340.19995117188
847.801101808205	1348
848.516801594793	1346
849.232411718781	1343.80004882813
849.947932188021	1354
850.663363010376	1342.19995117188
851.378704193698	1337
852.093955745842	1325.59997558594
852.809117674669	1338.19995117188
853.524189988028	1339.59997558594
854.239172693778	1323.80004882813
854.954065799768	1321
855.668869313857	1311.59997558594
856.383583243899	1306.40002441406
857.098207597743	1312.40002441406
857.812742383246	1320.19995117188
858.527187608255	1326
859.241543280628	1326.40002441406
859.955809408218	1322.40002441406
860.669985998868	1335.59997558594
861.384073060437	1339.40002441406
862.098070600772	1325.19995117188
862.811978627724	1325.19995117188
863.52579714914	1317.80004882813
864.239526172873	1326.80004882813
864.953165706776	1319
865.666715758687	1327.40002441406
866.380176336464	1307.80004882813
867.093547447951	1317.40002441406
867.806829100996	1323.40002441406
868.520021303444	1337.19995117188
869.233124063149	1334.80004882813
869.94613738795	1340.19995117188
870.659061285693	1339.80004882813
871.37189576423	1342.80004882813
872.084640831403	1336.40002441406
872.797296495057	1330
873.509862763039	1328
874.22233964319	1337.19995117188
874.934727143353	1344
875.647025271374	1344.19995117188
876.359234035097	1345.19995117188
877.071353442361	1336
877.783383501015	1335.80004882813
878.495324218895	1327.59997558594
879.207175603844	1333.19995117188
879.918937663705	1340.40002441406
880.630610406318	1334
881.342193839524	1343.40002441406
882.053687971161	1331.19995117188
882.765092809069	1334.40002441406
883.476408361091	1333.59997558594
884.187634635066	1329
884.898771638828	1338.80004882813
885.609819380221	1344
886.320777867076	1346.19995117188
887.031647107236	1348.19995117188
887.742427108536	1339
888.453117878816	1330.19995117188
889.16371942591	1330.80004882813
889.874231757652	1346.40002441406
890.584654881883	1328.19995117188
891.294988806434	1332.19995117188
892.005233539141	1337
892.715389087837	1358.80004882813
893.42545546036	1355.40002441406
894.135432664543	1354.59997558594
894.845320708216	1347.59997558594
895.555119599216	1328.40002441406
896.264829345375	1319.40002441406
896.974449954526	1321.59997558594
897.683981434496	1329.19995117188
898.393423793125	1343
899.102777038235	1356.40002441406
899.812041177664	1338.80004882813
900.521216219239	1341.80004882813
901.230302170793	1333.40002441406
901.939299040155	1332.19995117188
902.64820683515	1326.19995117188
903.357025563612	1337.40002441406
904.065755233368	1329.80004882813
904.774395852247	1338.59997558594
905.482947428076	1337.80004882813
906.191409968682	1335
906.899783481897	1337.80004882813
907.608067975538	1327.19995117188
908.316263457443	1331.80004882813
909.02436993543	1322.59997558594
909.732387417327	1325
910.440315910959	1334.19995117188
911.148155424154	1329.19995117188
911.855905964731	1344.40002441406
912.563567540521	1358.59997558594
913.271140159339	1355.19995117188
913.978623829017	1359
914.686018557374	1358
915.393324352237	1362.59997558594
916.100541221421	1370.80004882813
916.807669172752	1359.80004882813
917.514708214054	1359.59997558594
918.221658353142	1347.40002441406
918.928519597843	1346
919.635291955976	1329.19995117188
920.341975435358	1343
921.048570043813	1342.40002441406
921.75507578916	1342.40002441406
922.461492679212	1341.80004882813
923.167820721795	1338.80004882813
923.874059924726	1352.80004882813
924.58021029582	1342
925.286271842893	1338
925.992244573769	1330.19995117188
926.698128496262	1338.40002441406
927.403923618184	1338
928.109629947355	1350.19995117188
928.815247491593	1348.59997558594
929.520776258708	1359.80004882813
930.226216256519	1340.19995117188
930.931567492841	1342
931.636829975482	1336.59997558594
932.342003712263	1335.80004882813
933.047088710995	1353.19995117188
933.752084979491	1344.80004882813
934.456992525564	1340.80004882813
935.161811357024	1335
935.866541481688	1328.59997558594
936.571182907363	1333
937.275735641861	1333
937.980199692995	1323.59997558594
938.684575068572	1317.40002441406
939.388861776411	1315.80004882813
940.093059824311	1327.19995117188
940.797169220085	1329.40002441406
941.501189971544	1334.80004882813
942.205122086495	1338.80004882813
942.908965572751	1341.59997558594
943.612720438111	1349.80004882813
944.316386690391	1365
945.019964337391	1365
945.723453386924	1368
946.426853846795	1359
947.130165724808	1360.80004882813
947.83338902877	1353
948.536523766488	1324.19995117188
949.239569945764	1325.59997558594
949.942527574402	1314.80004882813
950.64539666021	1329
951.348177210993	1327.59997558594
952.050869234548	1318.40002441406
952.753472738683	1326.80004882813
953.455987731199	1330.59997558594
954.158414219898	1336.80004882813
954.860752212587	1329
955.563001717061	1325
956.265162741124	1317
956.967235292576	1320.59997558594
957.669219379224	1328.40002441406
958.371115008857	1351
959.072922189283	1364
959.774640928301	1354.19995117188
960.476271233708	1346.40002441406
961.177813113301	1331.59997558594
961.879266574882	1328.80004882813
962.580631626248	1338
963.281908275194	1331.80004882813
963.98309652952	1335.59997558594
964.684196397022	1336.59997558594
965.3852078855	1344.80004882813
966.086131002745	1342.19995117188
966.786965756555	1342.80004882813
967.487712154726	1336.80004882813
968.188370205055	1348.59997558594
968.888939915331	1343.40002441406
969.589421293352	1346.19995117188
970.289814346909	1344
970.990119083801	1342.40002441406
971.690335511819	1345.19995117188
972.39046363875	1341.19995117188
973.090503472398	1328.19995117188
973.790455020545	1337.40002441406
974.490318290987	1329.80004882813
975.190093291516	1339.59997558594
975.889780029923	1338.40002441406
976.589378513998	1349.40002441406
977.288888751527	1348.19995117188
977.988310750308	1344.19995117188
978.687644518122	1335.40002441406
979.386890062767	1342.40002441406
980.086047392025	1338.59997558594
980.785116513689	1334.80004882813
981.484097435542	1342.19995117188
982.182990165377	1347.59997558594
982.88179471098	1349.59997558594
983.580511080137	1350.59997558594
984.279139280632	1341.40002441406
984.977679320253	1345.19995117188
985.67613120679	1351.59997558594
986.374494948027	1345.80004882813
987.072770551745	1338
987.770958025731	1338.80004882813
988.469057377772	1338.40002441406
989.167068615649	1349.80004882813
989.864991747145	1354.19995117188
990.562826780047	1365.59997558594
991.260573722134	1353.59997558594
991.958232581195	1341.19995117188
992.655803365003	1332.80004882813
993.353286081346	1317.59997558594
994.050680738006	1331.59997558594
994.74798734276	1320.40002441406
995.44520590339	1333.59997558594
996.142336427681	1326.80004882813
996.839378923407	1328.59997558594
997.536333398348	1336.40002441406
998.233199860289	1335.59997558594
998.929978317004	1341.80004882813
999.626668776274	1325
1000.32327124587	1333
1001.01978573359	1337.40002441406
1001.71621224718	1342
1002.41255079445	1338.80004882813
1003.10880138315	1346.80004882813
1003.80496402107	1347
1004.50103871599	1343.59997558594
1005.19702547567	1367.59997558594
1005.8929243079	1357.80004882813
1006.58873522045	1354.40002441406
1007.2844582211	1358.40002441406
1007.98009331761	1346.59997558594
1008.67564051776	1341
1009.37109982933	1346.59997558594
1010.06647126009	1339.19995117188
1010.7617548178	1327.40002441406
1011.45695051026	1336.80004882813
1012.15205834522	1338.80004882813
1012.84707833045	1333
1013.54201047373	1332.19995117188
1014.23685478284	1339.59997558594
1014.93161126553	1337.59997558594
1015.62627992959	1345.80004882813
1016.32086078277	1354
1017.01535383285	1359
1017.70975908761	1349.19995117188
1018.40407655479	1358.40002441406
1019.09830624219	1348
1019.79244815755	1339
1020.48650230866	1330.59997558594
1021.18046870328	1341.80004882813
1021.87434734917	1325.40002441406
1022.56813825411	1329.59997558594
1023.26184142584	1338.19995117188
1023.95545687216	1353
1024.64898460082	1341.40002441406
1025.34242461957	1351
1026.0357769362	1343.19995117188
1026.72904155846	1345
1027.42221849412	1334.19995117188
1028.11530775094	1318.19995117188
1028.80830933668	1326.80004882813
1029.50122325911	1327.40002441406
1030.19404952599	1325
1030.88678814508	1321.19995117188
1031.57943912414	1326.59997558594
1032.27200247093	1327.40002441406
1032.96447819323	1336
1033.65686629878	1345.80004882813
1034.34916679534	1337.59997558594
1035.04137969068	1331.19995117188
1035.73350499256	1331
1036.42554270874	1337.19995117188
1037.11749284697	1349.40002441406
1037.80935541501	1351.40002441406
1038.50113042062	1346.80004882813
1039.19281787156	1354.80004882813
1039.88441777559	1347
1040.57593014046	1338.80004882813
1041.26735497393	1339.59997558594
1041.95869228376	1340.59997558594
1042.6499420777	1342.40002441406
1043.3411043635	1338.59997558594
1044.03217914893	1331
1044.72316644174	1356.19995117188
1045.41406624968	1361.80004882813
1046.1048785805	1347.59997558594
1046.79560344197	1343.59997558594
1047.48624084182	1342.40002441406
1048.17679078783	1338
1048.86725328774	1334.19995117188
1049.55762834929	1337.59997558594
1050.24791598025	1318.80004882813
1050.93811618837	1326.40002441406
1051.62822898139	1325.59997558594
1052.31825436707	1321
1053.00819235315	1319.19995117188
1053.6980429474	1321
1054.38780615755	1332.80004882813
1055.07748199136	1334
1055.76707045658	1320.40002441406
1056.45657156095	1310.19995117188
1057.14598531222	1303.40002441406
1057.83531171814	1316.59997558594
1058.52455078646	1322.19995117188
1059.21370252494	1323.19995117188
1059.90276694129	1323.80004882813
1060.5917440433	1330.80004882813
1061.28063383868	1327
1061.9694363352	1347.19995117188
1062.65815154059	1350.19995117188
1063.34677946261	1347.19995117188
1064.03532010899	1348
1064.72377348748	1340.59997558594
1065.41213960583	1334
1066.10041847177	1324.19995117188
1066.78861009306	1319.59997558594
1067.47671447743	1318.59997558594
1068.16473163263	1324
1068.85266156639	1310.59997558594
1069.54050428647	1298.19995117188
1070.2282598006	1298
1070.91592811652	1298
1071.60350924198	1306.80004882813
1072.29100318471	1321.59997558594
1072.97840995245	1328
1073.66572955295	1323.59997558594
1074.35296199394	1328.59997558594
1075.04010728316	1336
1075.72716542836	1330
1076.41413643726	1333.19995117188
1077.10102031761	1329.19995117188
1077.78781707715	1338.40002441406
1078.4745267236	1341.40002441406
1079.16114926471	1349.80004882813
1079.84768470822	1347.59997558594
1080.53413306185	1344
1081.22049433336	1344.19995117188
1081.90676853046	1333.80004882813
1082.5929556609	1326.59997558594
1083.27905573241	1319.40002441406
1083.96506875272	1321.80004882813
1084.65099472957	1325.19995117188
1085.3368336707	1323.59997558594
1086.02258558383	1329
1086.70825047669	1320.59997558594
1087.39382835703	1318.59997558594
1088.07931923257	1326.59997558594
1088.76472311104	1332
1089.45004000018	1319.80004882813
1090.13526990771	1315.59997558594
1090.82041284137	1314.40002441406
1091.50546880889	1315.59997558594
1092.19043781799	1318
1092.87531987642	1317
1093.56011499188	1318.40002441406
1094.24482317212	1322.80004882813
1094.92944442486	1323.80004882813
1095.61397875783	1318.40002441406
1096.29842617876	1311.40002441406
1096.98278669537	1315.80004882813
1097.6670603154	1312.40002441406
1098.35124704656	1310.19995117188
1099.03534689659	1315.59997558594
1099.71935987322	1318.19995117188
1100.40328598416	1307.59997558594
1101.08712523713	1315.80004882813
1101.77087763988	1315
1102.45454320012	1319.80004882813
1103.13812192557	1329.40002441406
1103.82161382396	1327.40002441406
1104.50501890301	1333.80004882813
1105.18833717045	1334.59997558594
1105.87156863399	1335
1106.55471330137	1339.59997558594
1107.2377711803	1335.59997558594
1107.9207422785	1340.19995117188
1108.60362660369	1329.80004882813
1109.2864241636	1335
1109.96913496594	1322
1110.65175901844	1338.40002441406
1111.33429632882	1320.19995117188
1112.01674690479	1332.40002441406
1112.69911075408	1337.59997558594
1113.38138788439	1318.40002441406
1114.06357830346	1326
1114.745682019	1315.40002441406
1115.42769903872	1319
1116.10962937035	1327.19995117188
1116.7914730216	1315.59997558594
1117.47323000018	1328
1118.15490031382	1341.80004882813
1118.83648397022	1334.40002441406
1119.51798097712	1327
1120.1993913422	1344.80004882813
1120.88071507321	1329.40002441406
1121.56195217784	1337.40002441406
1122.24310266381	1349.19995117188
1122.92416653884	1345.19995117188
1123.60514381064	1340.40002441406
1124.28603448692	1340.40002441406
1124.9668385754	1331
1125.64755608378	1330.59997558594
1126.32818701978	1341.19995117188
1127.00873139111	1351.40002441406
1127.68918920548	1349.59997558594
1128.3695604706	1342.59997558594
1129.04984519419	1350
1129.73004338394	1352
1130.41015504758	1340.40002441406
1131.09018019281	1336
1131.77011882734	1335.59997558594
1132.44997095888	1330.59997558594
1133.12973659514	1341.19995117188
1133.80941574381	1349.59997558594
1134.48900841263	1343.59997558594
1135.16851460927	1338.40002441406
1135.84793434147	1336.19995117188
1136.52726761692	1331.19995117188
1137.20651444333	1333.19995117188
1137.8856748284	1317.59997558594
1138.56474877984	1336.80004882813
1139.24373630536	1338.19995117188
1139.92263741265	1321.59997558594
1140.60145210943	1319.80004882813
1141.28018040339	1321.19995117188
1141.95882230225	1308.19995117188
1142.6373778137	1299
1143.31584694545	1300.59997558594
1143.99422970519	1302.40002441406
1144.67252610064	1321.19995117188
1145.35073613949	1302.40002441406
1146.02885982944	1319.40002441406
1146.7068971782	1326.80004882813
1147.38484819347	1334.59997558594
1148.06271288294	1336.40002441406
1148.74049125432	1321.19995117188
1149.41818331531	1335.59997558594
1150.0957890736	1339.40002441406
1150.77330853689	1338.19995117188
1151.45074171289	1328.80004882813
1152.12808860928	1337.19995117188
1152.80534923378	1334.80004882813
1153.48252359407	1338
1154.15961169786	1308.19995117188
1154.83661355283	1313.40002441406
1155.51352916669	1304.40002441406
1156.19035854713	1305.40002441406
1156.86710170185	1293.19995117188
1157.54375863855	1298.40002441406
1158.22032936491	1307.80004882813
1158.89681388863	1307.40002441406
1159.57321221741	1306
1160.24952435894	1303
1160.92575032092	1304.80004882813
1161.60189011103	1316
1162.27794373697	1312.40002441406
1162.95391120644	1326.40002441406
1163.62979252712	1330
1164.3055877067	1332.40002441406
1164.98129675288	1345.19995117188
1165.65691967336	1343.80004882813
1166.33245647581	1337.19995117188
1167.00790716792	1339.80004882813
1167.6832717574	1318.19995117188
1168.35855025193	1327
1169.0337426592	1312
1169.70884898689	1313.19995117188
1170.3838692427	1304.19995117188
1171.05880343431	1316.80004882813
1171.73365156941	1334
1172.40841365569	1328.40002441406
1173.08308970083	1334.80004882813
1173.75767971253	1343.59997558594
1174.43218369847	1339.19995117188
1175.10660166633	1340.19995117188
1175.7809336238	1339.80004882813
1176.45517957857	1346.80004882813
1177.12933953832	1324.40002441406
1177.80341351073	1327.80004882813
1178.47740150349	1324.59997558594
1179.15130352429	1335
1179.8251195808	1327.19995117188
1180.49884968071	1333.59997558594
1181.1724938317	1336.40002441406
1181.84605204145	1339
1182.51952431766	1339.59997558594
1183.19291066799	1362.19995117188
1183.86621110013	1342.40002441406
1184.53942562176	1331.80004882813
1185.21255424057	1327.59997558594
1185.88559696422	1333.40002441406
1186.55855380041	1361.40002441406
1187.2314247568	1359
1187.90420984109	1355.80004882813
1188.57690906095	1361
1189.24952242405	1362
1189.92204993808	1362.19995117188
1190.59449161071	1356.59997558594
1191.26684744962	1351.40002441406
1191.93911746249	1363.19995117188
1192.61130165699	1376
1193.28340004081	1359.40002441406
1193.95541262161	1355
1194.62733940707	1342.19995117188
1195.29918040487	1339.80004882813
1195.97093562269	1343.80004882813
1196.64260506819	1336.40002441406
1197.31418874905	1337
1197.98568667295	1329
1198.65709884755	1329.59997558594
1199.32842528053	1347.19995117188
1199.99966597957	1338.59997558594
1200.67082095234	1336.40002441406
1201.3418902065	1323.80004882813
1202.01287374974	1343.40002441406
1202.68377158971	1351.80004882813
1203.3545837341	1343
1204.02531019057	1350.80004882813
1204.6959509668	1346.19995117188
1205.36650607045	1331
1206.03697550919	1351.40002441406
1206.70735929069	1340
1207.37765742263	1343.19995117188
1208.04786991266	1334.40002441406
1208.71799676846	1333.40002441406
1209.38803799769	1331.40002441406
1210.05799360803	1331.19995117188
1210.72786360714	1339.59997558594
1211.39764800268	1341.80004882813
1212.06734680233	1334
1212.73696001375	1332.40002441406
1213.4064876446	1335.80004882813
1214.07592970255	1325.19995117188
1214.74528619526	1325.40002441406
1215.4145571304	1314.59997558594
1216.08374251564	1326.19995117188
1216.75284235863	1323.80004882813
1217.42185666704	1317.59997558594
1218.09078544854	1322.40002441406
1218.75962871078	1319.80004882813
1219.42838646143	1317.80004882813
1220.09705870816	1318.19995117188
1220.76564545861	1323
1221.43414672046	1342.59997558594
1222.10256250136	1319.40002441406
1222.77089280898	1325.19995117188
1223.43913765098	1330.19995117188
1224.107297035	1345.59997558594
1224.77537096873	1335.59997558594
1225.44335945981	1330.40002441406
1226.1112625159	1340.19995117188
1226.77908014467	1332.19995117188
1227.44681235376	1335.19995117188
1228.11445915085	1332.40002441406
1228.78202054357	1324.19995117188
1229.44949653961	1330
1230.11688714659	1323
1230.7841923722	1331.59997558594
1231.45141222407	1317.59997558594
1232.11854670988	1318.40002441406
1232.78559583726	1326.59997558594
1233.45255961388	1329.59997558594
1234.1194380474	1315.19995117188
1234.78623114546	1324.40002441406
1235.45293891572	1325.19995117188
1236.11956136583	1330.19995117188
1236.78609850345	1316.19995117188
1237.45255033623	1328.19995117188
1238.11891687182	1318.59997558594
1238.78519811788	1306.19995117188
1239.45139408205	1303.40002441406
1240.11750477198	1312.19995117188
1240.78353019534	1314.40002441406
1241.44947035976	1309.80004882813
1242.11532527291	1315.80004882813
1242.78109494242	1328.80004882813
1243.44677937595	1317.19995117188
1244.11237858115	1308.80004882813
1244.77789256567	1311
1245.44332133715	1313.59997558594
1246.10866490325	1316.19995117188
1246.7739232716	1322.19995117188
1247.43909644987	1313.40002441406
1248.10418444569	1317.19995117188
1248.76918726671	1315.19995117188
1249.43410492059	1318
1250.09893741496	1321.59997558594
1250.76368475747	1343
1251.42834695576	1336.19995117188
1252.09292401749	1318.19995117188
1252.75741595029	1313
1253.42182276182	1299
1254.08614445971	1300.40002441406
1254.75038105161	1295.40002441406
1255.41453254515	1301.59997558594
1256.07859894799	1313.80004882813
1256.74258026777	1300.19995117188
1257.40647651213	1308.80004882813
1258.0702876887	1313.59997558594
1258.73401380514	1312.59997558594
1259.39765486908	1305.80004882813
1260.06121088817	1323.80004882813
1260.72468187004	1320.59997558594
1261.38806782233	1323
1262.05136875269	1322.19995117188
1262.71458466875	1312.40002441406
1263.37771557815	1318.80004882813
1264.04076148854	1318.80004882813
1264.70372240753	1326.80004882813
1265.3665983428	1329.19995117188
1266.02938930195	1327.19995117188
1266.69209529263	1313.19995117188
1267.35471632249	1319
1268.01725239914	1309.59997558594
1268.67970353024	1309.80004882813
1269.34206972342	1313
1270.00435098631	1334.59997558594
1270.66654732655	1335.19995117188
1271.32865875177	1336.19995117188
1271.9906852696	1329.59997558594
1272.65262688768	1325.19995117188
1273.31448361365	1332.80004882813
1273.97625545514	1335
1274.63794241978	1334.80004882813
1275.2995445152	1335.19995117188
1275.96106174903	1338.80004882813
1276.62249412892	1332.80004882813
1277.28384166248	1331
1277.94510435735	1330.19995117188
1278.60628222116	1322.59997558594
1279.26737526155	1336
1279.92838348613	1327.40002441406
1280.58930690255	1320.80004882813
1281.25014551842	1322.80004882813
1281.91089934139	1326.80004882813
1282.57156837907	1316
1283.2321526391	1314.40002441406
1283.89265212911	1325.59997558594
1284.55306685671	1320.40002441406
1285.21339682955	1327.80004882813
1285.87364205525	1313.19995117188
1286.53380254142	1317.40002441406
1287.19387829571	1323.19995117188
1287.85386932573	1330.40002441406
1288.51377563911	1332.59997558594
1289.17359724348	1326.19995117188
1289.83333414646	1333.59997558594
1290.49298635567	1327
1291.15255387874	1319.40002441406
1291.8120367233	1321
1292.47143489696	1317.80004882813
1293.13074840736	1315.59997558594
1293.7899772621	1315.59997558594
1294.44912146882	1319.40002441406
1295.10818103513	1337.40002441406
1295.76715596866	1343.80004882813
1296.42604627704	1328.19995117188
1297.08485196787	1333.59997558594
1297.74357304878	1319.80004882813
1298.4022095274	1318.59997558594
1299.06076141134	1315.59997558594
1299.71922870821	1309
1300.37761142565	1317
1301.03590957126	1311
1301.69412315268	1320
1302.3522521775	1332.19995117188
1303.01029665336	1325.59997558594
1303.66825658787	1329.59997558594
1304.32613198865	1337.59997558594
1304.98392286332	1338.40002441406
1305.64162921948	1339.40002441406
1306.29925106476	1337.59997558594
1306.95678840677	1322.40002441406
1307.61424125312	1334.80004882813
1308.27160961145	1335
1308.92889348934	1336.59997558594
1309.58609289443	1346.19995117188
1310.24320783432	1353.19995117188
1310.90023831664	1366.40002441406
1311.55718434898	1356.40002441406
1312.21404593897	1338
1312.87082309421	1335
1313.52751582233	1324
1314.18412413092	1330.80004882813
1314.84064802761	1335
1315.49708752	1336.19995117188
1316.1534426157	1323.19995117188
1316.80971332233	1340.40002441406
1317.46589964749	1344.40002441406
1318.1220015988	1333.40002441406
1318.77801918386	1325.80004882813
1319.43395241028	1328.40002441406
1320.08980128567	1321.19995117188
1320.74556581764	1317.80004882813
1321.4012460138	1313.19995117188
1322.05684188176	1315.80004882813
1322.71235342911	1316.19995117188
1323.36778066347	1338.59997558594
1324.02312359245	1332.40002441406
1324.67838222365	1337.40002441406
1325.33355656468	1326.59997558594
1325.98864662314	1328.59997558594
1326.64365240663	1322.80004882813
1327.29857392277	1323.59997558594
1327.95341117915	1324
1328.60816418339	1311.80004882813
1329.26283294308	1310.40002441406
1329.91741746582	1318.40002441406
1330.57191775923	1306.80004882813
1331.2263338309	1295.59997558594
1331.88066568843	1302
1332.53491333943	1301.80004882813
1333.1890767915	1315.40002441406
1333.84315605224	1317.59997558594
1334.49715112925	1318
1335.15106203013	1336.19995117188
1335.80488876249	1340
1336.45863133391	1332.40002441406
1337.112289752	1349.19995117188
1337.76586402437	1354.59997558594
1338.4193541586	1351.80004882813
1339.0727601623	1344
1339.72608204306	1345
1340.37931980849	1334.19995117188
1341.03247346617	1340.80004882813
1341.68554302372	1348
1342.33852848871	1333
1342.99142986876	1337.80004882813
1343.64424717145	1346.40002441406
1344.29698040438	1337.80004882813
1344.94962957515	1351.59997558594
1345.60219469135	1362
1346.25467576058	1366.19995117188
1346.90707279042	1355.59997558594
1347.55938578848	1351
1348.21161476235	1355.19995117188
1348.86375971962	1361
1349.51582066787	1365.80004882813
1350.16779761472	1367.19995117188
1350.81969056774	1370.19995117188
1351.47149953453	1359.59997558594
1352.12322452269	1371.19995117188
1352.77486553979	1372.40002441406
1353.42642259344	1374.80004882813
1354.07789569122	1385.19995117188
1354.72928484072	1394.40002441406
1355.38059004953	1384.59997558594
1356.03181132525	1376.19995117188
1356.68294867545	1370.59997558594
1357.33400210773	1376.19995117188
1357.98497162968	1366.59997558594
1358.63585724889	1379
1359.28665897294	1387.40002441406
1359.93737680942	1380
1360.58801076591	1383
1361.23856085001	1395.40002441406
1361.88902706929	1384.40002441406
1362.53940943135	1400
1363.18970794377	1395.19995117188
1363.83992261413	1388.40002441406
1364.49005345003	1401.59997558594
1365.14010045904	1394.19995117188
1365.79006364874	1384.19995117188
1366.43994302673	1380
1367.08973860058	1377.40002441406
1367.73945037788	1386.19995117188
1368.38907836621	1375.19995117188
1369.03862257315	1378.80004882813
1369.68808300629	1367.19995117188
1370.3374596732	1372.59997558594
1370.98675258148	1371.19995117188
1371.63596173868	1362.40002441406
1372.28508715241	1347.19995117188
1372.93412883024	1339.80004882813
1373.58308677974	1330.80004882813
1374.2319610085	1339.80004882813
1374.8807515241	1341.59997558594
1375.52945833412	1348.19995117188
1376.17808144612	1339.59997558594
1376.82662086771	1325
1377.47507660644	1315.80004882813
1378.12344866989	1322.59997558594
1378.77173706565	1325.80004882813
1379.41994180129	1310.40002441406
1380.06806288439	1313.59997558594
1380.71610032252	1309.19995117188
1381.36405412326	1317.40002441406
1382.01192429419	1309.59997558594
1382.65971084287	1315.40002441406
1383.30741377688	1312.80004882813
1383.95503310381	1303.59997558594
1384.60256883121	1307.80004882813
1385.25002096667	1312.59997558594
1385.89738951775	1311
1386.54467449204	1310.40002441406
1387.19187589709	1307.80004882813
1387.8389937405	1314.40002441406
1388.48602802982	1322.59997558594
1389.13297877262	1328.59997558594
1389.77984597649	1331.59997558594
1390.42662964899	1319
1391.07332979768	1316.59997558594
1391.71994643015	1309.59997558594
1392.36647955395	1305.40002441406
1393.01292917667	1307.19995117188
1393.65929530586	1316.80004882813
1394.3055779491	1309.40002441406
1394.95177711395	1312
1395.59789280799	1312.19995117188
1396.24392503877	1305
1396.88987381387	1303.19995117188
1397.53573914086	1305
1398.1815210273	1296.80004882813
1398.82721948075	1302.40002441406
1399.47283450878	1300.19995117188
1400.11836611897	1298
1400.76381431886	1305.59997558594
1401.40917911603	1312.19995117188
1402.05446051805	1302.40002441406
1402.69965853247	1308.19995117188
1403.34477316686	1313.40002441406
1403.98980442878	1303.19995117188
1404.6347523258	1289.59997558594
1405.27961686548	1282.40002441406
1405.92439805538	1285.40002441406
1406.56909590306	1288.80004882813
1407.21371041608	1286.40002441406
1407.85824160202	1299.59997558594
1408.50268946841	1315.19995117188
1409.14705402284	1311
1409.79133527285	1308
1410.43553322601	1322.80004882813
1411.07964788987	1312.19995117188
1411.723679272	1310.59997558594
1412.36762737996	1307.19995117188
1413.01149222129	1301.19995117188
1413.65527380357	1293.19995117188
1414.29897213435	1289.59997558594
1414.94258722118	1290.40002441406
1415.58611907163	1289.59997558594
1416.22956769325	1297
1416.87293309359	1299.40002441406
1417.51621528021	1299.40002441406
1418.15941426067	1299.59997558594
1418.80253004253	1311.80004882813
1419.44556263333	1313.19995117188
1420.08851204063	1303.40002441406
1420.731378272	1323.40002441406
1421.37416133497	1325
1422.0168612371	1312.59997558594
1422.65947798596	1310.19995117188
1423.30201158908	1310.40002441406
1423.94446205403	1305
1424.58682938835	1313
1425.2291135996	1318.80004882813
1425.87131469532	1307.80004882813
1426.51343268308	1306.80004882813
1427.15546757042	1307.19995117188
1427.79741936488	1299.80004882813
1428.43928807403	1306.59997558594
1429.0810737054	1309
1429.72277626656	1310.80004882813
1430.36439576504	1308
1431.00593220841	1302.40002441406
1431.64738560419	1304.40002441406
1432.28875595995	1302
1432.93004328324	1299.80004882813
1433.57124758159	1296.59997558594
1434.21236886255	1293.59997558594
1434.85340713368	1274.80004882813
1435.49436240252	1291.59997558594
1436.13523467661	1286.19995117188
1436.77602396349	1283.40002441406
1437.41673027073	1280.19995117188
1438.05735360585	1284.19995117188
1438.69789397641	1293.80004882813
1439.33835138994	1301
1439.978725854	1307.40002441406
1440.61901737612	1297.59997558594
1441.25922596385	1306.40002441406
1441.89935162473	1317.40002441406
1442.53939436631	1311
1443.17935419612	1301.59997558594
1443.81923112171	1302.19995117188
1444.45902515061	1300.59997558594
1445.09873629038	1300.59997558594
1445.73836454854	1305.19995117188
1446.37790993265	1306.59997558594
1447.01737245024	1296
1447.65675210885	1293.19995117188
1448.29604891602	1300.40002441406
1448.93526287928	1295.80004882813
1449.57439400618	1284.59997558594
1450.21344230426	1288.80004882813
1450.85240778105	1295
1451.49129044409	1284.19995117188
1452.13009030092	1274.40002441406
1452.76880735907	1270.19995117188
1453.40744162608	1275.40002441406
1454.04599310949	1273.80004882813
1454.68446181683	1270
1455.32284775564	1277.19995117188
1455.96115093345	1277.80004882813
1456.5993713578	1288
1457.23750903623	1289.19995117188
1457.87556397626	1282.80004882813
1458.51353618543	1283.80004882813
1459.15142567127	1288.80004882813
1459.78923244132	1286.59997558594
1460.42695650311	1306.59997558594
1461.06459786417	1298.80004882813
1461.70215653203	1291
1462.33963251423	1294.19995117188
1462.97702581829	1297
1463.61433645175	1292.80004882813
1464.25156442214	1290.19995117188
1464.88870973699	1297.80004882813
1465.52577240382	1288.80004882813
1466.16275243017	1291.19995117188
1466.79964982356	1297.59997558594
1467.43646459154	1291.59997558594
1468.07319674161	1279.40002441406
1468.70984628132	1284.59997558594
1469.34641321818	1296.80004882813
1469.98289755974	1301.59997558594
1470.6192993135	1300.19995117188
1471.25561848701	1306.59997558594
1471.89185508779	1305.40002441406
1472.52800912336	1309.59997558594
1473.16408060124	1313.80004882813
1473.80006952897	1309.80004882813
1474.43597591407	1315.59997558594
1475.07179976406	1289.40002441406
1475.70754108647	1293.80004882813
1476.34319988883	1301
1476.97877617865	1303.40002441406
1477.61426996345	1294.40002441406
1478.24968125077	1310
1478.88501004812	1315
1479.52025636303	1295
1480.15542020302	1297.19995117188
1480.79050157561	1302
1481.42550048832	1293.19995117188
1482.06041694867	1300.59997558594
1482.69525096418	1288.59997558594
1483.33000254237	1304
1483.96467169077	1304.40002441406
1484.59925841689	1303
1485.23376272825	1302.40002441406
1485.86818463237	1309.59997558594
1486.50252413677	1309.80004882813
1487.13678124896	1290.80004882813
1487.77095597646	1292.19995117188
1488.4050483268	1293.19995117188
1489.03905830749	1293.40002441406
1489.67298592604	1302.40002441406
1490.30683118996	1310.80004882813
1490.9405941068	1309.19995117188
1491.57427468403	1311.40002441406
1492.2078729292	1314.19995117188
1492.84138884981	1312.59997558594
1493.47482245338	1309.19995117188
1494.10817374742	1320.40002441406
1494.74144273944	1324.19995117188
1495.37462943696	1311.80004882813
1496.0077338475	1324.59997558594
1496.64075597856	1310.19995117188
1497.27369583765	1312.59997558594
1497.9065534323	1324.80004882813
1498.53932877001	1305.80004882813
1499.17202185829	1310.59997558594
1499.80463270465	1306.80004882813
1500.43716131661	1314.40002441406
1501.06960770167	1318.40002441406
1501.70197186735	1305.40002441406
1502.33425382116	1315.80004882813
1502.96645357059	1311.80004882813
1503.59857112317	1318
1504.23060648641	1325.59997558594
1504.8625596678	1319.40002441406
1505.49443067486	1321
1506.1262195151	1325.40002441406
1506.75792619602	1324
1507.38955072513	1336
1508.02109310993	1326.59997558594
1508.65255335794	1324
1509.28393147666	1330.40002441406
1509.91522747359	1325.40002441406
1510.54644135624	1324.19995117188
1511.17757313212	1336.40002441406
1511.80862280872	1332.80004882813
1512.43959039356	1331.59997558594
1513.07047589413	1330.59997558594
1513.70127931795	1332.80004882813
1514.33200067251	1329.40002441406
1514.96263996531	1309.59997558594
1515.59319720386	1303.80004882813
1516.22367239567	1314.19995117188
1516.85406554822	1324.59997558594
1517.48437666903	1320.40002441406
1518.1146057656	1318.80004882813
1518.74475284542	1305
1519.374817916	1305.59997558594
1520.00480098483	1292.80004882813
1520.63470205942	1303.80004882813
1521.26452114726	1296.40002441406
1521.89425825586	1287.19995117188
1522.52391339271	1297.59997558594
1523.15348656531	1289.59997558594
1523.78297778116	1288.80004882813
1524.41238704775	1305
1525.04171437259	1305.59997558594
1525.67095976317	1311.19995117188
1526.30012322699	1317.40002441406
1526.92920477154	1310.80004882813
1527.55820440432	1301.59997558594
1528.18712213283	1312.59997558594
1528.81595796455	1313
1529.44471190699	1301.40002441406
1530.07338396764	1311.19995117188
1530.70197415399	1303.80004882813
1531.33048247353	1293.59997558594
1531.95890893377	1292
1532.58725354219	1287.40002441406
1533.21551630629	1281
1533.84369723356	1295.19995117188
1534.47179633148	1297.80004882813
1535.09981360757	1313.40002441406
1535.72774906929	1317.80004882813
1536.35560272415	1316.19995117188
1536.98337457963	1317.19995117188
1537.61106464323	1321.80004882813
1538.23867292243	1317.80004882813
1538.86619942473	1319.40002441406
1539.49364415762	1323.19995117188
1540.12100712857	1311.19995117188
1540.74828834509	1317.40002441406
1541.37548781466	1311.80004882813
1542.00260554478	1314.19995117188
1542.62964154291	1306.59997558594
1543.25659581655	1309.59997558594
1543.8834683732	1311.40002441406
1544.51025922034	1301.59997558594
1545.13696836544	1303.80004882813
1545.76359581601	1308.19995117188
1546.39014157952	1286.59997558594
1547.01660566345	1281
1547.64298807531	1278
1548.26928882255	1281
1548.89550791269	1283
1549.52164535318	1282.40002441406
1550.14770115153	1280.59997558594
1550.77367531521	1283.59997558594
1551.39956785171	1283.40002441406
1552.0253787685	1281.59997558594
1552.65110807307	1271.40002441406
1553.2767557729	1291.19995117188
1553.90232187548	1291.19995117188
1554.52780638828	1282.80004882813
1555.15320931879	1284.80004882813
1555.77853067447	1297.80004882813
1556.40377046282	1296.80004882813
1557.02892869132	1285.80004882813
1557.65400536744	1284.59997558594
1558.27900049866	1285.19995117188
1558.90391409247	1280
1559.52874615633	1290.40002441406
1560.15349669773	1287.80004882813
1560.77816572414	1281.19995117188
1561.40275324305	1283.19995117188
1562.02725926192	1294.19995117188
1562.65168378824	1286.80004882813
1563.27602682948	1301.19995117188
1563.90028839311	1293.19995117188
1564.52446848662	1300.59997558594
1565.14856711748	1302.80004882813
1565.77258429316	1291.80004882813
1566.39652002113	1298.59997558594
1567.02037430887	1300.59997558594
1567.64414716387	1305.40002441406
1568.26783859357	1313
1568.89144860547	1308.80004882813
1569.51497720703	1299.19995117188
1570.13842440573	1295.59997558594
1570.76179020904	1310
1571.38507462442	1293.80004882813
1572.00827765936	1305
1572.63139932132	1279.40002441406
1573.25443961777	1285.19995117188
1573.87739855618	1282
1574.50027614402	1287.80004882813
1575.12307238877	1284.40002441406
1575.74578729789	1285.40002441406
1576.36842087885	1288.80004882813
1576.99097313912	1283
1577.61344408616	1290
1578.23583372745	1294.40002441406
1578.85814207046	1286.19995117188
1579.48036912264	1293
1580.10251489147	1284.59997558594
1580.72457938441	1290.40002441406
1581.34656260893	1275.80004882813
1581.9684645725	1279.19995117188
1582.59028528258	1276.59997558594
1583.21202474663	1279.19995117188
1583.83368297212	1274
1584.45525996652	1266.19995117188
1585.07675573728	1270.80004882813
1585.69817029188	1272
1586.31950363778	1261.19995117188
1586.94075578243	1261.19995117188
1587.5619267333	1266.19995117188
1588.18301649786	1272.80004882813
1588.80402508357	1288.40002441406
1589.42495249788	1278.19995117188
1590.04579874826	1278.80004882813
1590.66656384217	1281.40002441406
1591.28724778707	1278
1591.90785059042	1288
1592.52837225968	1287.40002441406
1593.14881280232	1268
1593.76917222578	1261.19995117188
1594.38945053753	1253.59997558594
1595.00964774502	1252
1595.62976385573	1257.19995117188
1596.24979887709	1258.59997558594
1596.86975281657	1262.59997558594
1597.48962568164	1261.59997558594
1598.10941747974	1258.59997558594
1598.72912821832	1245
1599.34875790486	1245.59997558594
1599.9683065468	1240.80004882813
1600.58777415159	1252
1601.2071607267	1254
1601.82646627958	1255.40002441406
1602.44569081769	1267
1603.06483434846	1254.80004882813
1603.68389687937	1249.19995117188
1604.30287841786	1233.19995117188
1604.92177897139	1229.59997558594
1605.54059854741	1233
1606.15933715337	1237.59997558594
1606.77799479672	1240.80004882813
1607.39657148492	1227.59997558594
1608.01506722542	1229.40002441406
1608.63348202566	1223.19995117188
1609.2518158931	1224.59997558594
1609.87006883519	1230.80004882813
1610.48824085939	1237.19995117188
1611.10633197312	1240.40002441406
1611.72434218386	1246
1612.34227149904	1242
1612.96011992612	1251
1613.57788747254	1263.19995117188
1614.19557414575	1255.40002441406
1614.8131799532	1261.59997558594
1615.43070490234	1258.19995117188
1616.04814900061	1255.59997558594
1616.66551225545	1260.80004882813
1617.28279467433	1236.19995117188
1617.89999626467	1239.80004882813
1618.51711703393	1234.40002441406
1619.13415698955	1236.80004882813
1619.75111613898	1237.19995117188
1620.36799448966	1233.19995117188
1620.98479204903	1230
1621.60150882455	1233
1622.21814482364	1229.80004882813
1622.83470005376	1226.19995117188
1623.45117452235	1234.19995117188
1624.06756823685	1215.59997558594
1624.6838812047	1211
1625.30011343335	1220.40002441406
1625.91626493022	1219.80004882813
1626.53233570278	1212.59997558594
1627.14832575845	1214.59997558594
1627.76423510468	1202
1628.38006374891	1207.80004882813
1628.99581169857	1213.80004882813
1629.61147896111	1212.59997558594
1630.22706554397	1212.59997558594
1630.84257145457	1223.59997558594
1631.45799670038	1208.80004882813
1632.07334128881	1224
1632.6886052273	1222.40002441406
1633.3037885233	1226.80004882813
1633.91889118425	1231
1634.53391321757	1220.80004882813
1635.1488546307	1217
1635.76371543108	1225
1636.37849562616	1237.40002441406
1636.99319522335	1219.80004882813
1637.60781423009	1231.80004882813
1638.22235265383	1230
1638.83681050198	1240.59997558594
1639.451187782	1231.40002441406
1640.0654845013	1229.19995117188
1640.67970066734	1234
1641.29383628752	1228.19995117188
1641.9078913693	1243.40002441406
1642.5218659201	1235.19995117188
1643.13575994735	1241
1643.74957345849	1241
1644.36330646094	1229.40002441406
1644.97695896213	1245.40002441406
1645.59053096951	1253.40002441406
1646.20402249049	1245.59997558594
1646.8174335325	1235.19995117188
1647.43076410298	1248.80004882813
1648.04401420935	1242
1648.65718385905	1244.80004882813
1649.2702730595	1248
1649.88328181812	1246.19995117188
1650.49621014236	1241.40002441406
1651.10905803963	1251.40002441406
1651.72182551735	1252.19995117188
1652.33451258297	1262
1652.9471192439	1254.19995117188
1653.55964550757	1263.80004882813
1654.1720913814	1258.40002441406
1654.78445687283	1258.40002441406
1655.39674198926	1254.80004882813
1656.00894673814	1238.40002441406
1656.62107112688	1234.59997558594
1657.23311516291	1223
1657.84507885365	1209.59997558594
1658.45696220652	1215.80004882813
1659.06876522895	1206.80004882813
1659.68048792835	1201.80004882813
1660.29213031217	1206.59997558594
1660.90369238779	1200
1661.51517416267	1198.80004882813
1662.12657564421	1201.59997558594
1662.73789683984	1193.19995117188
1663.34913775697	1183.80004882813
1663.96029840303	1186.19995117188
1664.57137878544	1176.40002441406
1665.18237891161	1169.40002441406
1665.79329878897	1174.59997558594
1666.40413842493	1174.40002441406
1667.01489782691	1170.59997558594
1667.62557700233	1179
1668.2361759586	1163.40002441406
1668.84669470315	1177
1669.4571332434	1181.19995117188
1670.06749158675	1165.19995117188
1670.67776974062	1162.59997558594
1671.28796771243	1164.19995117188
1671.8980855096	1153.59997558594
1672.50812313954	1152.59997558594
1673.11808060967	1162
1673.72795792739	1148.40002441406
1674.33775510013	1153
1674.9474721353	1148.59997558594
1675.55710904031	1150.80004882813
1676.16666582257	1144.80004882813
1676.7761424895	1139.59997558594
1677.38553904851	1140.80004882813
1677.99485550702	1141.19995117188
1678.60409187243	1140.80004882813
1679.21324815215	1137
1679.8223243536	1147.19995117188
1680.43132048419	1143.80004882813
1681.04023655132	1152.19995117188
1681.64907256241	1166
1682.25782852487	1164.59997558594
1682.86650444611	1165.19995117188
1683.47510033353	1178
1684.08361619455	1177.80004882813
1684.69205203657	1169.80004882813
1685.300407867	1168.59997558594
1685.90868369325	1159.80004882813
1686.51687952272	1152
1687.12499536283	1150.59997558594
1687.73303122098	1150.40002441406
1688.34098710457	1141.19995117188
1688.94886302101	1155.19995117188
1689.55665897772	1144.19995117188
1690.16437498208	1144.59997558594
1690.77201104152	1141.80004882813
1691.37956716342	1150.19995117188
1691.9870433552	1142.19995117188
1692.59443962426	1154
1693.20175597801	1160.59997558594
1693.80899242384	1154
1694.41614896916	1142.59997558594
1695.02322562138	1150.80004882813
1695.63022238789	1152
1696.23713927609	1152.59997558594
1696.8439762934	1157.59997558594
1697.4507334472	1151.40002441406
1698.05741074491	1152
1698.66400819391	1156
1699.27052580161	1150.19995117188
1699.87696357542	1153
1700.48332152272	1145.40002441406
1701.08959965092	1154.59997558594
1701.69579796742	1151.19995117188
1702.30191647962	1146
1702.90795519491	1138.80004882813
1703.51391412069	1138.80004882813
1704.11979326437	1141.59997558594
1704.72559263332	1136.40002441406
1705.33131223496	1138.80004882813
1705.93695207668	1133.19995117188
1706.54251216588	1126
1707.14799250994	1135.40002441406
1707.75339311628	1133.59997558594
1708.35871399227	1130.80004882813
1708.96395514532	1130
1709.56911658282	1134.19995117188
