634.948122577771	1111.19995117188
635.690341530823	1114.19995117188
636.43246851086	1120.59997558594
637.174503525845	1117.80004882813
637.916446583745	1122.80004882813
638.658297692538	1121.59997558594
639.400056860179	1123.40002441406
640.141724094637	1133.40002441406
640.883299403885	1139
641.62478279588	1136.80004882813
642.366174278594	1129.59997558594
643.107473859989	1137.19995117188
643.848681548029	1137.19995117188
644.589797350679	1138.19995117188
645.330821275901	1128.59997558594
646.071753331665	1129.80004882813
646.812593525922	1129.59997558594
647.553341866646	1123.59997558594
648.293998361798	1133.40002441406
649.03456301933	1132.40002441406
649.775035847216	1133.80004882813
650.515416853409	1129.80004882813
651.255706045874	1134
651.995903432568	1139
652.736009021453	1136.59997558594
653.476022820486	1126.19995117188
654.215944837629	1141.80004882813
654.955775080842	1137.59997558594
655.695513558081	1129.59997558594
656.435160277301	1132.59997558594
657.174715246465	1131.80004882813
657.914178473527	1134
658.653549966449	1126.19995117188
659.392829733176	1145.19995117188
660.132017781678	1137
660.871114119901	1132.19995117188
661.610118755803	1137.80004882813
662.349031697343	1137.59997558594
663.087852952468	1139.80004882813
663.826582529139	1132.80004882813
664.565220435305	1135.19995117188
665.30376667892	1145.19995117188
666.04222126794	1138.80004882813
666.780584210316	1137
667.518855514	1135.40002441406
668.25703518694	1139
668.995123237096	1136.19995117188
669.733119672413	1143.40002441406
670.471024500842	1130.19995117188
671.208837730333	1129.19995117188
671.946559368839	1130
672.684189424308	1139.59997558594
673.421727904689	1141.40002441406
674.159174817929	1136.40002441406
674.896530171977	1139.59997558594
675.633793974786	1144.40002441406
676.370966234295	1144.40002441406
677.108046958461	1143.59997558594
677.845036155219	1148.59997558594
678.581933832528	1154
679.318739998323	1145
680.055454660558	1150.80004882813
680.792077827172	1143.80004882813
681.528609506116	1146.59997558594
682.265049705331	1134.59997558594
683.001398432759	1130.19995117188
683.737655696349	1127.19995117188
684.47382150404	1128.40002441406
685.20989586378	1126.80004882813
685.945878783503	1120.19995117188
686.68177027116	1132.80004882813
687.417570334688	1135.40002441406
688.153278982032	1138
688.888896221129	1152.40002441406
689.624422059921	1155
690.359856506349	1148.59997558594
691.095199568354	1154.19995117188
691.830451253874	1152.59997558594
692.565611570844	1151
693.300680527212	1149.59997558594
694.03565813091	1144.80004882813
694.770544389877	1146.19995117188
695.505339312053	1137
696.240042905372	1141
696.974655177772	1137.59997558594
697.70917613719	1143.59997558594
698.443605791561	1148.80004882813
699.177944148826	1142.40002441406
699.912191216909	1144
700.646347003755	1136.59997558594
701.380411517295	1149.19995117188
702.114384765465	1139.40002441406
702.848266756195	1143.19995117188
703.582057497421	1143.80004882813
704.315756997074	1141
705.049365263089	1141.40002441406
705.782882303399	1140.80004882813
706.516308125936	1134.80004882813
707.249642738626	1131.40002441406
707.982886149403	1143
708.716038366204	1139.80004882813
709.449099396949	1152
710.182069249577	1152.59997558594
710.914947932009	1143.80004882813
711.647735452181	1145
712.380431818022	1141.80004882813
713.113037037454	1144.59997558594
713.845551118411	1142.19995117188
714.577974068818	1144.59997558594
715.310305896604	1137.80004882813
716.042546609694	1146.59997558594
716.774696216013	1150.59997558594
717.506754723493	1153.40002441406
718.238722140053	1158.59997558594
718.970598473624	1160.40002441406
719.702383732127	1149.80004882813
720.43407792349	1159
721.165681055634	1143.40002441406
721.897193136486	1149.19995117188
722.628614173966	1151
723.359944175997	1154.19995117188
724.091183150505	1155.40002441406
724.822331105412	1146.40002441406
725.553388048638	1147.40002441406
726.284353988106	1141.59997558594
727.015228931734	1138.80004882813
727.746012887449	1141.80004882813
728.476705863162	1136.80004882813
729.207307866803	1144
729.937818906289	1142.59997558594
730.668238989535	1148.80004882813
731.398568124459	1145.40002441406
732.128806318986	1146.19995117188
732.858953581034	1142.59997558594
733.589009918514	1143.40002441406
734.318975339348	1143.19995117188
735.048849851452	1144.40002441406
735.778633462744	1137.80004882813
736.508326181137	1139
737.237928014549	1147.59997558594
737.967438970897	1146.59997558594
738.696859058095	1141.59997558594
739.426188284054	1136
740.155426656692	1133.40002441406
740.884574183922	1136.19995117188
741.613630873659	1133.40002441406
742.342596733815	1135.59997558594
743.071471772302	1139
743.800255997034	1139
744.528949415921	1149
745.257552036877	1143.59997558594
745.986063867811	1145.80004882813
746.714484916638	1154
747.442815191261	1171
748.171054699597	1155.40002441406
748.899203449554	1160.40002441406
749.627261449039	1160.40002441406
750.355228705966	1156.19995117188
751.083105228239	1151.80004882813
751.810891023765	1155.19995117188
752.538586100459	1154.19995117188
753.266190466218	1157.40002441406
753.99370412896	1159.40002441406
754.721127096582	1155.59997558594
755.448459377	1159
756.175700978114	1147.19995117188
756.902851907828	1159.80004882813
757.629912174055	1149.40002441406
758.356881784688	1150.80004882813
759.083760747639	1151.80004882813
759.810549070817	1149
760.537246762113	1151.40002441406
761.263853829442	1160.19995117188
761.990370280698	1159.80004882813
762.716796123791	1171.80004882813
763.443131366618	1170.19995117188
764.169376017082	1174.19995117188
764.895530083085	1165.19995117188
765.621593572527	1165.19995117188
766.347566493312	1174.19995117188
767.073448853336	1183.59997558594
767.799240660502	1187.59997558594
768.524941922707	1181
769.250552647854	1187.40002441406
769.976072843836	1198.80004882813
770.701502518551	1204.59997558594
771.426841679905	1210.59997558594
772.152090335793	1201.80004882813
772.877248494107	1201.80004882813
773.602316162747	1199
774.327293349609	1199.40002441406
775.052180062592	1194.19995117188
775.776976309589	1195.19995117188
776.501682098496	1193.80004882813
777.226297437206	1185.19995117188
777.950822333616	1188.80004882813
778.675256795621	1178
779.399600831111	1183.40002441406
780.123854447983	1187.19995117188
780.84801765413	1176.19995117188
781.572090457441	1171
782.296072865811	1165.40002441406
783.019964887131	1178
783.743766529297	1164.19995117188
784.467477800194	1151.59997558594
785.191098707719	1159.40002441406
785.914629259756	1156.19995117188
786.638069464194	1163.59997558594
787.361419328932	1158.59997558594
788.084678861852	1161
788.807848070845	1158.59997558594
789.530926963798	1150.59997558594
790.253915548602	1153.59997558594
790.976813833144	1153.40002441406
791.699621825307	1158.40002441406
792.422339532986	1142.19995117188
793.144966964061	1159.80004882813
793.86750412642	1162
794.589951027946	1161.80004882813
795.312307676536	1157
796.03457408006	1156.80004882813
796.756750246417	1154.80004882813
797.478836183477	1155.40002441406
798.200831899137	1154
798.92273740127	1160.59997558594
799.644552697769	1157.19995117188
800.36627779651	1156.40002441406
801.087912705374	1153
801.809457432251	1145.80004882813
802.530911985017	1154.59997558594
803.252276371558	1157.80004882813
803.973550599748	1169.80004882813
804.694734677472	1160
805.415828612611	1160
806.136832413045	1170.19995117188
806.857746086646	1162.59997558594
807.578569641305	1162
808.299303084892	1156.19995117188
809.019946425289	1163.59997558594
809.740499670372	1151.59997558594
810.460962828022	1162
811.181335906114	1157.19995117188
811.901618912524	1164.19995117188
812.621811855131	1155.59997558594
813.341914741809	1163.40002441406
814.061927580433	1155
814.781850378881	1150.40002441406
815.501683145025	1155
816.221425886743	1158.19995117188
816.941078611903	1152.40002441406
817.660641328387	1148.40002441406
818.380114044065	1156.19995117188
819.099496766808	1149.80004882813
819.818789504492	1143.40002441406
820.53799226499	1142.80004882813
821.257105056168	1147.40002441406
821.976127885904	1139.40002441406
822.695060762064	1149.19995117188
823.413903692525	1154.59997558594
824.132656685151	1154.59997558594
824.851319747817	1153.19995117188
825.569892888388	1143.40002441406
826.288376114739	1144
827.006769434737	1144.40002441406
827.725072856249	1145.59997558594
828.443286387142	1139.40002441406
829.161410035285	1144.80004882813
829.87944380855	1148
830.597387714798	1146
831.315241761898	1146
832.033005957715	1148.19995117188
832.750680310119	1137.80004882813
833.468264826969	1134.80004882813
834.18575951614	1134
834.903164385486	1131.59997558594
835.620479442878	1138.40002441406
836.337704696181	1133.59997558594
837.054840153255	1142
837.771885821962	1148
838.488841710172	1141.59997558594
839.20570782574	1135.59997558594
839.922484176531	1134.40002441406
840.639170770409	1138
841.355767615231	1139.19995117188
842.072274718864	1133
842.788692089164	1132.80004882813
843.505019733993	1131.80004882813
844.221257661209	1123.80004882813
844.937405878676	1132
845.65346439425	1134.19995117188
846.369433215789	1141.59997558594
847.085312351156	1149.19995117188
847.801101808205	1154.19995117188
848.516801594793	1157.80004882813
849.232411718781	1143.80004882813
849.947932188021	1146.40002441406
850.663363010376	1150.40002441406
851.378704193698	1138.40002441406
852.093955745842	1133.19995117188
852.809117674669	1140.19995117188
853.524189988028	1143.40002441406
854.239172693778	1141.80004882813
854.954065799768	1140
855.668869313857	1145
856.383583243899	1148
857.098207597743	1151
857.812742383246	1143
858.527187608255	1141.19995117188
859.241543280628	1131
859.955809408218	1142
860.669985998868	1140.19995117188
861.384073060437	1140
862.098070600772	1149.59997558594
862.811978627724	1143.59997558594
863.52579714914	1139
864.239526172873	1140
864.953165706776	1140.59997558594
865.666715758687	1142.59997558594
866.380176336464	1147.80004882813
867.093547447951	1143.40002441406
867.806829100996	1146.40002441406
868.520021303444	1146.59997558594
869.233124063149	1133.19995117188
869.94613738795	1139.80004882813
870.659061285693	1135
871.37189576423	1138.40002441406
872.084640831403	1134
872.797296495057	1135.19995117188
873.509862763039	1134.40002441406
874.22233964319	1141.40002441406
874.934727143353	1150.40002441406
875.647025271374	1144.59997558594
876.359234035097	1158
877.071353442361	1153
877.783383501015	1152
878.495324218895	1136.40002441406
879.207175603844	1134.80004882813
879.918937663705	1135.80004882813
880.630610406318	1147.40002441406
881.342193839524	1149.19995117188
882.053687971161	1156
882.765092809069	1158.19995117188
883.476408361091	1152.80004882813
884.187634635066	1147.59997558594
884.898771638828	1148.40002441406
885.609819380221	1150
886.320777867076	1152.19995117188
887.031647107236	1143.59997558594
887.742427108536	1141.80004882813
888.453117878816	1144
889.16371942591	1138
889.874231757652	1134.40002441406
890.584654881883	1134.80004882813
891.294988806434	1145.59997558594
892.005233539141	1147.19995117188
892.715389087837	1143.80004882813
893.42545546036	1138
894.135432664543	1136.40002441406
894.845320708216	1143.40002441406
895.555119599216	1137.40002441406
896.264829345375	1144.19995117188
896.974449954526	1135.19995117188
897.683981434496	1142
898.393423793125	1143.59997558594
899.102777038235	1145.40002441406
899.812041177664	1148
900.521216219239	1144.80004882813
901.230302170793	1132.80004882813
901.939299040155	1140.59997558594
902.64820683515	1136.80004882813
903.357025563612	1140.59997558594
904.065755233368	1145.80004882813
904.774395852247	1145
905.482947428076	1146.19995117188
906.191409968682	1153
906.899783481897	1148.40002441406
907.608067975538	1149.59997558594
908.316263457443	1155.59997558594
909.02436993543	1151.40002441406
909.732387417327	1149.80004882813
910.440315910959	1142.19995117188
911.148155424154	1140
911.855905964731	1141.19995117188
912.563567540521	1147.80004882813
913.271140159339	1144
913.978623829017	1146
914.686018557374	1153.59997558594
915.393324352237	1153
916.100541221421	1157.80004882813
916.807669172752	1149.59997558594
917.514708214054	1158.59997558594
918.221658353142	1159.40002441406
918.928519597843	1158.59997558594
919.635291955976	1155.19995117188
920.341975435358	1161.40002441406
921.048570043813	1167.19995117188
921.75507578916	1163.80004882813
922.461492679212	1169.40002441406
923.167820721795	1166.80004882813
923.874059924726	1156.40002441406
924.58021029582	1145.40002441406
925.286271842893	1147.80004882813
925.992244573769	1145.40002441406
926.698128496262	1148.40002441406
927.403923618184	1152
928.109629947355	1147.19995117188
928.815247491593	1144.80004882813
929.520776258708	1146.19995117188
930.226216256519	1142
930.931567492841	1146
931.636829975482	1142
932.342003712263	1152.80004882813
933.047088710995	1149
933.752084979491	1143
934.456992525564	1136.59997558594
935.161811357024	1143.80004882813
935.866541481688	1133.40002441406
936.571182907363	1141.19995117188
937.275735641861	1132
937.980199692995	1143
938.684575068572	1140.59997558594
939.388861776411	1140
940.093059824311	1138
940.797169220085	1136.59997558594
941.501189971544	1138.40002441406
942.205122086495	1135.80004882813
942.908965572751	1133.59997558594
943.612720438111	1133
944.316386690391	1132.59997558594
945.019964337391	1133.19995117188
945.723453386924	1131.80004882813
946.426853846795	1137
947.130165724808	1133.40002441406
947.83338902877	1124
948.536523766488	1132.59997558594
949.239569945764	1134.59997558594
949.942527574402	1134.40002441406
950.64539666021	1134.40002441406
951.348177210993	1126.40002441406
952.050869234548	1128.59997558594
952.753472738683	1123.80004882813
953.455987731199	1128.40002441406
954.158414219898	1134.80004882813
954.860752212587	1127.59997558594
955.563001717061	1126.80004882813
956.265162741124	1122.59997558594
956.967235292576	1116.80004882813
957.669219379224	1118
958.371115008857	1126
959.072922189283	1124
959.774640928301	1134.19995117188
960.476271233708	1135.19995117188
961.177813113301	1138.80004882813
961.879266574882	1133.80004882813
962.580631626248	1138.59997558594
963.281908275194	1132.19995117188
963.98309652952	1132.59997558594
964.684196397022	1117.59997558594
965.3852078855	1119.40002441406
966.086131002745	1125.19995117188
966.786965756555	1128.80004882813
967.487712154726	1124.80004882813
968.188370205055	1136.80004882813
968.888939915331	1139.19995117188
969.589421293352	1140.19995117188
970.289814346909	1144
970.990119083801	1134.80004882813
971.690335511819	1121
972.39046363875	1119.19995117188
973.090503472398	1119.59997558594
973.790455020545	1114.40002441406
974.490318290987	1117.19995117188
975.190093291516	1128.40002441406
975.889780029923	1136.40002441406
976.589378513998	1125
977.288888751527	1127.40002441406
977.988310750308	1130.19995117188
978.687644518122	1141.40002441406
979.386890062767	1129
980.086047392025	1135.19995117188
980.785116513689	1131.40002441406
981.484097435542	1132.40002441406
982.182990165377	1136.19995117188
982.88179471098	1133.80004882813
983.580511080137	1132.19995117188
984.279139280632	1133
984.977679320253	1135.40002441406
985.67613120679	1131.59997558594
986.374494948027	1130.19995117188
987.072770551745	1127.40002441406
987.770958025731	1129.40002441406
988.469057377772	1125.40002441406
989.167068615649	1124.80004882813
989.864991747145	1130
990.562826780047	1130
991.260573722134	1128.19995117188
991.958232581195	1133.59997558594
992.655803365003	1138.40002441406
993.353286081346	1141
994.050680738006	1143
994.74798734276	1131.80004882813
995.44520590339	1139
996.142336427681	1141
996.839378923407	1135.40002441406
997.536333398348	1135.40002441406
998.233199860289	1127.19995117188
998.929978317004	1131.59997558594
999.626668776274	1138.40002441406
1000.32327124587	1138
1001.01978573359	1130.40002441406
1001.71621224718	1130.80004882813
1002.41255079445	1132.80004882813
1003.10880138315	1126.40002441406
1003.80496402107	1124.19995117188
1004.50103871599	1139.80004882813
1005.19702547567	1139.19995117188
1005.8929243079	1135
1006.58873522045	1136
1007.2844582211	1132.80004882813
1007.98009331761	1131.40002441406
1008.67564051776	1137
1009.37109982933	1133
1010.06647126009	1139.80004882813
1010.7617548178	1140.19995117188
1011.45695051026	1137
1012.15205834522	1133.19995117188
1012.84707833045	1137.40002441406
1013.54201047373	1143.59997558594
1014.23685478284	1141
1014.93161126553	1131.80004882813
1015.62627992959	1131.59997558594
1016.32086078277	1125.59997558594
1017.01535383285	1119.59997558594
1017.70975908761	1116.19995117188
1018.40407655479	1124.80004882813
1019.09830624219	1130.40002441406
1019.79244815755	1123.19995117188
1020.48650230866	1125.80004882813
1021.18046870328	1125.80004882813
1021.87434734917	1127.19995117188
1022.56813825411	1126
1023.26184142584	1122.59997558594
1023.95545687216	1125.80004882813
1024.64898460082	1117.80004882813
1025.34242461957	1113.40002441406
1026.0357769362	1125.40002441406
1026.72904155846	1112.80004882813
1027.42221849412	1114.59997558594
1028.11530775094	1116.80004882813
1028.80830933668	1113.40002441406
1029.50122325911	1116.19995117188
1030.19404952599	1115.80004882813
1030.88678814508	1117
1031.57943912414	1129
1032.27200247093	1131.59997558594
1032.96447819323	1135.19995117188
1033.65686629878	1148.59997558594
1034.34916679534	1152.40002441406
1035.04137969068	1147.40002441406
1035.73350499256	1147.80004882813
1036.42554270874	1147.40002441406
1037.11749284697	1129.40002441406
1037.80935541501	1134.80004882813
1038.50113042062	1130.19995117188
1039.19281787156	1134
1039.88441777559	1131.80004882813
1040.57593014046	1129.40002441406
1041.26735497393	1121.40002441406
1041.95869228376	1118
1042.6499420777	1125.80004882813
1043.3411043635	1120.40002441406
1044.03217914893	1110
1044.72316644174	1107.59997558594
1045.41406624968	1111.59997558594
1046.1048785805	1104.80004882813
1046.79560344197	1115.59997558594
1047.48624084182	1118.40002441406
1048.17679078783	1120.19995117188
1048.86725328774	1121
1049.55762834929	1124.80004882813
1050.24791598025	1119.40002441406
1050.93811618837	1123.40002441406
1051.62822898139	1139.80004882813
1052.31825436707	1133.40002441406
1053.00819235315	1145.40002441406
1053.6980429474	1139.59997558594
1054.38780615755	1142.40002441406
1055.07748199136	1134.80004882813
1055.76707045658	1135
1056.45657156095	1140
1057.14598531222	1128.19995117188
1057.83531171814	1134
1058.52455078646	1124.40002441406
1059.21370252494	1124.59997558594
1059.90276694129	1132.80004882813
1060.5917440433	1117
1061.28063383868	1129.19995117188
1061.9694363352	1128
1062.65815154059	1119.19995117188
1063.34677946261	1130.19995117188
1064.03532010899	1129.80004882813
1064.72377348748	1125.40002441406
1065.41213960583	1128.40002441406
1066.10041847177	1121
1066.78861009306	1121.80004882813
1067.47671447743	1132.19995117188
1068.16473163263	1125.40002441406
1068.85266156639	1129.80004882813
1069.54050428647	1134.59997558594
1070.2282598006	1135.40002441406
1070.91592811652	1139.59997558594
1071.60350924198	1126.19995117188
1072.29100318471	1135.40002441406
1072.97840995245	1127.80004882813
1073.66572955295	1134.59997558594
1074.35296199394	1119.40002441406
1075.04010728316	1124.19995117188
1075.72716542836	1121
1076.41413643726	1115.80004882813
1077.10102031761	1118.80004882813
1077.78781707715	1114.59997558594
1078.4745267236	1127.19995117188
1079.16114926471	1132.40002441406
1079.84768470822	1131.59997558594
1080.53413306185	1132.40002441406
1081.22049433336	1130.19995117188
1081.90676853046	1135
1082.5929556609	1131.59997558594
1083.27905573241	1134.59997558594
1083.96506875272	1129
1084.65099472957	1121.59997558594
1085.3368336707	1115.19995117188
1086.02258558383	1118
1086.70825047669	1114.80004882813
1087.39382835703	1129.80004882813
1088.07931923257	1117.19995117188
1088.76472311104	1115
1089.45004000018	1114.40002441406
1090.13526990771	1115.40002441406
1090.82041284137	1117.40002441406
1091.50546880889	1126.80004882813
1092.19043781799	1136.80004882813
1092.87531987642	1123
1093.56011499188	1127
1094.24482317212	1120
1094.92944442486	1121.19995117188
1095.61397875783	1125.80004882813
1096.29842617876	1123.40002441406
1096.98278669537	1132
1097.6670603154	1125.80004882813
1098.35124704656	1120.59997558594
1099.03534689659	1116
1099.71935987322	1117.40002441406
1100.40328598416	1115.19995117188
1101.08712523713	1120
1101.77087763988	1129
1102.45454320012	1125.80004882813
1103.13812192557	1125
1103.82161382396	1119
1104.50501890301	1116.19995117188
1105.18833717045	1127
1105.87156863399	1119
1106.55471330137	1120.80004882813
1107.2377711803	1134.59997558594
1107.9207422785	1128.40002441406
1108.60362660369	1118.80004882813
1109.2864241636	1120.19995117188
1109.96913496594	1122.40002441406
1110.65175901844	1125.59997558594
1111.33429632882	1122.59997558594
1112.01674690479	1123.40002441406
1112.69911075408	1120.80004882813
1113.38138788439	1115.19995117188
1114.06357830346	1114.80004882813
1114.745682019	1122.19995117188
1115.42769903872	1119.19995117188
1116.10962937035	1128.19995117188
1116.7914730216	1126.40002441406
1117.47323000018	1121.19995117188
1118.15490031382	1134
1118.83648397022	1126.59997558594
1119.51798097712	1131.40002441406
1120.1993913422	1133.19995117188
1120.88071507321	1126.19995117188
1121.56195217784	1134.59997558594
1122.24310266381	1142.59997558594
1122.92416653884	1147
1123.60514381064	1155
1124.28603448692	1159.19995117188
1124.9668385754	1151.19995117188
1125.64755608378	1149.59997558594
1126.32818701978	1142
1127.00873139111	1130.59997558594
1127.68918920548	1136
1128.3695604706	1145.59997558594
1129.04984519419	1142.19995117188
1129.73004338394	1135.80004882813
1130.41015504758	1144.59997558594
1131.09018019281	1137.19995117188
1131.77011882734	1146.40002441406
1132.44997095888	1139.40002441406
1133.12973659514	1134.59997558594
1133.80941574381	1135
1134.48900841263	1139.80004882813
1135.16851460927	1137
1135.84793434147	1134.59997558594
1136.52726761692	1136.59997558594
1137.20651444333	1125.40002441406
1137.8856748284	1123.40002441406
1138.56474877984	1126
1139.24373630536	1127.19995117188
1139.92263741265	1127.19995117188
1140.60145210943	1128
1141.28018040339	1122
1141.95882230225	1123
1142.6373778137	1113.80004882813
1143.31584694545	1125.59997558594
1143.99422970519	1122.59997558594
1144.67252610064	1126.59997558594
1145.35073613949	1132.19995117188
1146.02885982944	1130.19995117188
1146.7068971782	1125
1147.38484819347	1129.59997558594
1148.06271288294	1120.80004882813
1148.74049125432	1124.19995117188
1149.41818331531	1133.80004882813
1150.0957890736	1131
1150.77330853689	1133.19995117188
1151.45074171289	1134.80004882813
1152.12808860928	1131.59997558594
1152.80534923378	1121.80004882813
1153.48252359407	1121.80004882813
1154.15961169786	1117.59997558594
1154.83661355283	1115.80004882813
1155.51352916669	1112.59997558594
1156.19035854713	1118.80004882813
1156.86710170185	1119.80004882813
1157.54375863855	1131.40002441406
1158.22032936491	1123.19995117188
1158.89681388863	1131.19995117188
1159.57321221741	1122.40002441406
1160.24952435894	1123.80004882813
1160.92575032092	1119.59997558594
1161.60189011103	1123
1162.27794373697	1106.40002441406
1162.95391120644	1115.80004882813
1163.62979252712	1108
1164.3055877067	1112.80004882813
1164.98129675288	1111.19995117188
1165.65691967336	1113.59997558594
1166.33245647581	1110.80004882813
1167.00790716792	1113
1167.6832717574	1111.59997558594
1168.35855025193	1105.19995117188
1169.0337426592	1106.40002441406
1169.70884898689	1117.19995117188
1170.3838692427	1115.40002441406
1171.05880343431	1124.19995117188
1171.73365156941	1121.80004882813
1172.40841365569	1123.19995117188
1173.08308970083	1114
1173.75767971253	1127.40002441406
1174.43218369847	1115.19995117188
1175.10660166633	1119.19995117188
1175.7809336238	1126.40002441406
1176.45517957857	1128.40002441406
1177.12933953832	1135.40002441406
1177.80341351073	1133.59997558594
1178.47740150349	1127.40002441406
1179.15130352429	1133.59997558594
1179.8251195808	1140.80004882813
1180.49884968071	1141.40002441406
1181.1724938317	1146
1181.84605204145	1136.19995117188
1182.51952431766	1139.19995117188
1183.19291066799	1137.80004882813
1183.86621110013	1136.19995117188
1184.53942562176	1144.19995117188
1185.21255424057	1144.19995117188
1185.88559696422	1145.19995117188
1186.55855380041	1155.40002441406
1187.2314247568	1148
1187.90420984109	1155
1188.57690906095	1153.80004882813
1189.24952242405	1152.59997558594
1189.92204993808	1153.40002441406
1190.59449161071	1157.40002441406
1191.26684744962	1148.40002441406
1191.93911746249	1148.80004882813
1192.61130165699	1154
1193.28340004081	1146.19995117188
1193.95541262161	1149
1194.62733940707	1143.59997558594
1195.29918040487	1137
1195.97093562269	1141.80004882813
1196.64260506819	1138.59997558594
1197.31418874905	1141.19995117188
1197.98568667295	1145.80004882813
1198.65709884755	1143.40002441406
1199.32842528053	1148.80004882813
1199.99966597957	1147.59997558594
1200.67082095234	1133.59997558594
1201.3418902065	1136.19995117188
1202.01287374974	1135.80004882813
1202.68377158971	1141.40002441406
1203.3545837341	1147.59997558594
1204.02531019057	1139
1204.6959509668	1138.80004882813
1205.36650607045	1140.80004882813
1206.03697550919	1137.80004882813
1206.70735929069	1133.80004882813
1207.37765742263	1128.19995117188
1208.04786991266	1131.40002441406
1208.71799676846	1124.19995117188
1209.38803799769	1123.19995117188
1210.05799360803	1117.80004882813
1210.72786360714	1129.80004882813
1211.39764800268	1122.80004882813
1212.06734680233	1121.80004882813
1212.73696001375	1118
1213.4064876446	1116.40002441406
1214.07592970255	1118.19995117188
1214.74528619526	1108.40002441406
1215.4145571304	1120.40002441406
1216.08374251564	1120.80004882813
1216.75284235863	1112.40002441406
1217.42185666704	1118.19995117188
1218.09078544854	1125.40002441406
1218.75962871078	1123.59997558594
1219.42838646143	1126
1220.09705870816	1114.59997558594
1220.76564545861	1123.40002441406
1221.43414672046	1131.19995117188
1222.10256250136	1134.40002441406
1222.77089280898	1128.19995117188
1223.43913765098	1123.19995117188
1224.107297035	1113.80004882813
1224.77537096873	1109
1225.44335945981	1120
1226.1112625159	1117
1226.77908014467	1111.40002441406
1227.44681235376	1124
1228.11445915085	1120.59997558594
1228.78202054357	1122
1229.44949653961	1133.40002441406
1230.11688714659	1128
1230.7841923722	1131.80004882813
1231.45141222407	1128.59997558594
1232.11854670988	1131.80004882813
1232.78559583726	1124.19995117188
1233.45255961388	1114.40002441406
1234.1194380474	1121.80004882813
1234.78623114546	1123.19995117188
1235.45293891572	1120.59997558594
1236.11956136583	1133.59997558594
1236.78609850345	1120.80004882813
1237.45255033623	1121.59997558594
1238.11891687182	1128
1238.78519811788	1125.19995117188
1239.45139408205	1124.59997558594
1240.11750477198	1114.19995117188
1240.78353019534	1118.19995117188
1241.44947035976	1110.40002441406
1242.11532527291	1108.19995117188
1242.78109494242	1106.80004882813
1243.44677937595	1102.19995117188
1244.11237858115	1111.80004882813
1244.77789256567	1108.40002441406
1245.44332133715	1105.19995117188
1246.10866490325	1100
1246.7739232716	1108.80004882813
1247.43909644987	1109
1248.10418444569	1104.59997558594
1248.76918726671	1112
1249.43410492059	1111.80004882813
1250.09893741496	1117.40002441406
1250.76368475747	1116.80004882813
1251.42834695576	1120
1252.09292401749	1118.59997558594
1252.75741595029	1114.59997558594
1253.42182276182	1118.59997558594
1254.08614445971	1118
1254.75038105161	1114
1255.41453254515	1114.19995117188
1256.07859894799	1123
1256.74258026777	1113.40002441406
1257.40647651213	1112.19995117188
1258.0702876887	1108.80004882813
1258.73401380514	1115.59997558594
1259.39765486908	1118.19995117188
1260.06121088817	1114.80004882813
1260.72468187004	1115.19995117188
1261.38806782233	1120.40002441406
1262.05136875269	1107
1262.71458466875	1109.40002441406
1263.37771557815	1112
1264.04076148854	1118.40002441406
1264.70372240753	1113
1265.3665983428	1115.59997558594
1266.02938930195	1112.40002441406
1266.69209529263	1120.80004882813
1267.35471632249	1120
1268.01725239914	1107.80004882813
1268.67970353024	1100
1269.34206972342	1100
1270.00435098631	1105.19995117188
1270.66654732655	1112.80004882813
1271.32865875177	1100.80004882813
1271.9906852696	1108.80004882813
1272.65262688768	1109.80004882813
1273.31448361365	1114
1273.97625545514	1116.40002441406
1274.63794241978	1116.59997558594
1275.2995445152	1117.19995117188
1275.96106174903	1124.59997558594
1276.62249412892	1125
1277.28384166248	1116.59997558594
1277.94510435735	1119.19995117188
1278.60628222116	1117.80004882813
1279.26737526155	1115.80004882813
1279.92838348613	1108.19995117188
1280.58930690255	1108.59997558594
1281.25014551842	1108.59997558594
1281.91089934139	1103.59997558594
1282.57156837907	1105
1283.2321526391	1110.40002441406
1283.89265212911	1107.80004882813
1284.55306685671	1109.59997558594
1285.21339682955	1105
1285.87364205525	1109.40002441406
1286.53380254142	1108.59997558594
1287.19387829571	1112.80004882813
1287.85386932573	1114.80004882813
1288.51377563911	1122.80004882813
1289.17359724348	1113.59997558594
1289.83333414646	1120
1290.49298635567	1117.59997558594
1291.15255387874	1110.40002441406
1291.8120367233	1112.59997558594
1292.47143489696	1113.19995117188
1293.13074840736	1105
1293.7899772621	1115.19995117188
1294.44912146882	1113
1295.10818103513	1112.59997558594
1295.76715596866	1117.40002441406
1296.42604627704	1107.59997558594
1297.08485196787	1119.59997558594
1297.74357304878	1114.59997558594
1298.4022095274	1121.59997558594
1299.06076141134	1121.19995117188
1299.71922870821	1123
1300.37761142565	1114.80004882813
1301.03590957126	1117.19995117188
1301.69412315268	1122.59997558594
1302.3522521775	1123.59997558594
1303.01029665336	1127.19995117188
1303.66825658787	1122
1304.32613198865	1126.80004882813
1304.98392286332	1123.19995117188
1305.64162921948	1127.19995117188
1306.29925106476	1127.80004882813
1306.95678840677	1134.59997558594
1307.61424125312	1125.19995117188
1308.27160961145	1122.40002441406
1308.92889348934	1130
1309.58609289443	1131.59997558594
1310.24320783432	1133.80004882813
1310.90023831664	1136.80004882813
1311.55718434898	1126.40002441406
1312.21404593897	1129.40002441406
1312.87082309421	1133.59997558594
1313.52751582233	1138.19995117188
1314.18412413092	1140.19995117188
1314.84064802761	1131.80004882813
1315.49708752	1134.40002441406
1316.1534426157	1132
1316.80971332233	1131.80004882813
1317.46589964749	1127.40002441406
1318.1220015988	1138.40002441406
1318.77801918386	1134.40002441406
1319.43395241028	1135.59997558594
1320.08980128567	1140.19995117188
1320.74556581764	1131.59997558594
1321.4012460138	1134.40002441406
1322.05684188176	1140
1322.71235342911	1131
1323.36778066347	1136
1324.02312359245	1130.40002441406
1324.67838222365	1125.19995117188
1325.33355656468	1130.80004882813
1325.98864662314	1111
1326.64365240663	1115.40002441406
1327.29857392277	1117.19995117188
1327.95341117915	1122.40002441406
1328.60816418339	1121
1329.26283294308	1121.59997558594
1329.91741746582	1118.19995117188
1330.57191775923	1113.40002441406
1331.2263338309	1111.40002441406
1331.88066568843	1113.19995117188
1332.53491333943	1112.59997558594
1333.1890767915	1122
1333.84315605224	1120.40002441406
1334.49715112925	1117.59997558594
1335.15106203013	1122
1335.80488876249	1126.40002441406
1336.45863133391	1127.80004882813
1337.112289752	1125
1337.76586402437	1125.80004882813
1338.4193541586	1122
1339.0727601623	1123.40002441406
1339.72608204306	1122
1340.37931980849	1125.19995117188
1341.03247346617	1136.19995117188
1341.68554302372	1126.80004882813
1342.33852848871	1138.80004882813
1342.99142986876	1143.19995117188
1343.64424717145	1137.59997558594
1344.29698040438	1140.59997558594
1344.94962957515	1146.40002441406
1345.60219469135	1150.40002441406
1346.25467576058	1154.59997558594
1346.90707279042	1141.19995117188
1347.55938578848	1147.80004882813
1348.21161476235	1140.80004882813
1348.86375971962	1143.40002441406
1349.51582066787	1142.40002441406
1350.16779761472	1145.80004882813
1350.81969056774	1145.80004882813
1351.47149953453	1141
1352.12322452269	1146.19995117188
1352.77486553979	1149.59997558594
1353.42642259344	1156.19995117188
1354.07789569122	1150.19995117188
1354.72928484072	1157.80004882813
1355.38059004953	1150.40002441406
1356.03181132525	1147.80004882813
1356.68294867545	1156
1357.33400210773	1161
1357.98497162968	1154.59997558594
1358.63585724889	1163.59997558594
1359.28665897294	1157.59997558594
1359.93737680942	1152.59997558594
1360.58801076591	1161
1361.23856085001	1157.59997558594
1361.88902706929	1148.59997558594
1362.53940943135	1143.59997558594
1363.18970794377	1150
1363.83992261413	1149.59997558594
1364.49005345003	1155
1365.14010045904	1156.40002441406
1365.79006364874	1164.40002441406
1366.43994302673	1157.19995117188
1367.08973860058	1156
1367.73945037788	1158.19995117188
1368.38907836621	1147
1369.03862257315	1137
1369.68808300629	1140
1370.3374596732	1137.80004882813
1370.98675258148	1132.19995117188
1371.63596173868	1138.19995117188
1372.28508715241	1128.80004882813
1372.93412883024	1123.59997558594
1373.58308677974	1121.40002441406
1374.2319610085	1123.59997558594
1374.8807515241	1130.80004882813
1375.52945833412	1124.40002441406
1376.17808144612	1126.40002441406
1376.82662086771	1125.40002441406
1377.47507660644	1121
1378.12344866989	1116.59997558594
1378.77173706565	1122.80004882813
1379.41994180129	1115.59997558594
1380.06806288439	1120
1380.71610032252	1121
1381.36405412326	1125.40002441406
1382.01192429419	1117.19995117188
1382.65971084287	1118.19995117188
1383.30741377688	1117
1383.95503310381	1122.59997558594
1384.60256883121	1117.19995117188
1385.25002096667	1127.59997558594
1385.89738951775	1124.19995117188
1386.54467449204	1121.40002441406
1387.19187589709	1121
1387.8389937405	1122
1388.48602802982	1118.80004882813
1389.13297877262	1113
1389.77984597649	1120.80004882813
1390.42662964899	1116.19995117188
1391.07332979768	1119.40002441406
1391.71994643015	1118.59997558594
1392.36647955395	1111.19995117188
1393.01292917667	1114.80004882813
1393.65929530586	1106.80004882813
1394.3055779491	1122.19995117188
1394.95177711395	1116.40002441406
1395.59789280799	1118.59997558594
1396.24392503877	1109.19995117188
1396.88987381387	1099.59997558594
1397.53573914086	1109.19995117188
1398.1815210273	1109
1398.82721948075	1108.40002441406
1399.47283450878	1119
1400.11836611897	1113.59997558594
1400.76381431886	1109.59997558594
1401.40917911603	1110.40002441406
1402.05446051805	1111.40002441406
1402.69965853247	1106.80004882813
1403.34477316686	1105.59997558594
1403.98980442878	1099.40002441406
1404.6347523258	1098.59997558594
1405.27961686548	1104.19995117188
1405.92439805538	1105.59997558594
1406.56909590306	1103.80004882813
1407.21371041608	1109.19995117188
1407.85824160202	1103
1408.50268946841	1105.80004882813
1409.14705402284	1103.40002441406
1409.79133527285	1097
1410.43553322601	1101.19995117188
1411.07964788987	1100.80004882813
1411.723679272	1106.19995117188
1412.36762737996	1110.80004882813
1413.01149222129	1100
1413.65527380357	1117.40002441406
1414.29897213435	1117.80004882813
1414.94258722118	1110.19995117188
1415.58611907163	1115
1416.22956769325	1116
1416.87293309359	1124.40002441406
1417.51621528021	1105.80004882813
1418.15941426067	1106.40002441406
1418.80253004253	1107
1419.44556263333	1105
1420.08851204063	1117.40002441406
1420.731378272	1117.40002441406
1421.37416133497	1124.19995117188
1422.0168612371	1134.40002441406
1422.65947798596	1133
1423.30201158908	1129.80004882813
1423.94446205403	1123.19995117188
1424.58682938835	1116.80004882813
1425.2291135996	1125
1425.87131469532	1130.80004882813
1426.51343268308	1117.19995117188
1427.15546757042	1122.19995117188
1427.79741936488	1122.59997558594
1428.43928807403	1112.59997558594
1429.0810737054	1120.19995117188
1429.72277626656	1114.80004882813
1430.36439576504	1116
1431.00593220841	1118.19995117188
1431.64738560419	1113
1432.28875595995	1111.19995117188
1432.93004328324	1106
1433.57124758159	1107
1434.21236886255	1101.19995117188
1434.85340713368	1115.80004882813
1435.49436240252	1114.40002441406
1436.13523467661	1114
1436.77602396349	1112.19995117188
1437.41673027073	1109.80004882813
1438.05735360585	1113
1438.69789397641	1117.40002441406
1439.33835138994	1115
1439.978725854	1103.59997558594
1440.61901737612	1107.80004882813
1441.25922596385	1101.59997558594
1441.89935162473	1106.19995117188
1442.53939436631	1111.59997558594
1443.17935419612	1115.59997558594
1443.81923112171	1114
1444.45902515061	1112.40002441406
1445.09873629038	1122.19995117188
1445.73836454854	1116.40002441406
1446.37790993265	1125.40002441406
1447.01737245024	1121.40002441406
1447.65675210885	1122.80004882813
1448.29604891602	1124.19995117188
1448.93526287928	1114.40002441406
1449.57439400618	1120.80004882813
1450.21344230426	1115.59997558594
1450.85240778105	1126.80004882813
1451.49129044409	1130.59997558594
1452.13009030092	1123.59997558594
1452.76880735907	1126.80004882813
1453.40744162608	1119
1454.04599310949	1128.19995117188
1454.68446181683	1116.40002441406
1455.32284775564	1117.59997558594
1455.96115093345	1121.19995117188
1456.5993713578	1126
1457.23750903623	1132.80004882813
1457.87556397626	1117.19995117188
1458.51353618543	1118
1459.15142567127	1103.40002441406
1459.78923244132	1121.40002441406
1460.42695650311	1119
1461.06459786417	1123.59997558594
1461.70215653203	1119.19995117188
1462.33963251423	1111.19995117188
1462.97702581829	1115.40002441406
1463.61433645175	1118.80004882813
1464.25156442214	1107.80004882813
1464.88870973699	1107.80004882813
1465.52577240382	1107.19995117188
1466.16275243017	1102
1466.79964982356	1108.59997558594
1467.43646459154	1106.40002441406
1468.07319674161	1109.19995117188
1468.70984628132	1102.80004882813
1469.34641321818	1105.80004882813
1469.98289755974	1115.19995117188
1470.6192993135	1115.59997558594
1471.25561848701	1116.19995117188
1471.89185508779	1107
1472.52800912336	1104.59997558594
1473.16408060124	1108.19995117188
1473.80006952897	1107
1474.43597591407	1096.40002441406
1475.07179976406	1100.59997558594
1475.70754108647	1101.80004882813
1476.34319988883	1099.80004882813
1476.97877617865	1106.59997558594
1477.61426996345	1089.80004882813
1478.24968125077	1094.40002441406
1478.88501004812	1090.19995117188
1479.52025636303	1095.59997558594
1480.15542020302	1104
1480.79050157561	1102.19995117188
1481.42550048832	1111.40002441406
1482.06041694867	1100.19995117188
1482.69525096418	1104.19995117188
1483.33000254237	1100.40002441406
1483.96467169077	1092.19995117188
1484.59925841689	1099
1485.23376272825	1090.19995117188
1485.86818463237	1092
1486.50252413677	1089.19995117188
1487.13678124896	1091
1487.77095597646	1093
1488.4050483268	1093.59997558594
1489.03905830749	1093
1489.67298592604	1084.59997558594
1490.30683118996	1097
1490.9405941068	1096.59997558594
1491.57427468403	1094.19995117188
1492.2078729292	1103.19995117188
1492.84138884981	1113.59997558594
1493.47482245338	1109.19995117188
1494.10817374742	1104.59997558594
1494.74144273944	1116.59997558594
1495.37462943696	1118.19995117188
1496.0077338475	1113
1496.64075597856	1127.59997558594
1497.27369583765	1121.19995117188
1497.9065534323	1104.40002441406
1498.53932877001	1115.80004882813
1499.17202185829	1113.40002441406
1499.80463270465	1107
1500.43716131661	1117
1501.06960770167	1115.80004882813
1501.70197186735	1122.40002441406
1502.33425382116	1137
1502.96645357059	1134.80004882813
1503.59857112317	1134.59997558594
1504.23060648641	1132.40002441406
1504.8625596678	1126.19995117188
1505.49443067486	1125.19995117188
1506.1262195151	1133.59997558594
1506.75792619602	1131.19995117188
1507.38955072513	1122.40002441406
1508.02109310993	1121.80004882813
1508.65255335794	1127
1509.28393147666	1117.80004882813
1509.91522747359	1113.80004882813
1510.54644135624	1120.80004882813
1511.17757313212	1120.19995117188
1511.80862280872	1114.80004882813
1512.43959039356	1120
1513.07047589413	1117.19995117188
1513.70127931795	1106.40002441406
1514.33200067251	1109
1514.96263996531	1098.80004882813
1515.59319720386	1092.59997558594
1516.22367239567	1093
1516.85406554822	1091.40002441406
1517.48437666903	1091.19995117188
1518.1146057656	1087.59997558594
1518.74475284542	1091.59997558594
1519.374817916	1099.59997558594
1520.00480098483	1095.80004882813
1520.63470205942	1088
1521.26452114726	1090.59997558594
1521.89425825586	1086.19995117188
1522.52391339271	1082.59997558594
1523.15348656531	1083.40002441406
1523.78297778116	1092.59997558594
1524.41238704775	1094.59997558594
1525.04171437259	1097.80004882813
1525.67095976317	1089
1526.30012322699	1089.80004882813
1526.92920477154	1084.40002441406
1527.55820440432	1086.80004882813
1528.18712213283	1088.40002441406
1528.81595796455	1082
1529.44471190699	1082.19995117188
1530.07338396764	1070.19995117188
1530.70197415399	1077.19995117188
1531.33048247353	1092.40002441406
1531.95890893377	1085.80004882813
1532.58725354219	1090
1533.21551630629	1094.19995117188
1533.84369723356	1096.19995117188
1534.47179633148	1099.40002441406
1535.09981360757	1096.40002441406
1535.72774906929	1095.80004882813
1536.35560272415	1093.19995117188
1536.98337457963	1096.59997558594
1537.61106464323	1096.59997558594
1538.23867292243	1100
1538.86619942473	1106.19995117188
1539.49364415762	1099.40002441406
1540.12100712857	1100.80004882813
1540.74828834509	1103.40002441406
1541.37548781466	1104.80004882813
1542.00260554478	1101.80004882813
1542.62964154291	1105.19995117188
1543.25659581655	1099.80004882813
1543.8834683732	1091.19995117188
1544.51025922034	1088.40002441406
1545.13696836544	1088.19995117188
1545.76359581601	1085.40002441406
1546.39014157952	1092
1547.01660566345	1089.19995117188
1547.64298807531	1085.19995117188
1548.26928882255	1088.80004882813
1548.89550791269	1087.40002441406
1549.52164535318	1088
1550.14770115153	1082.19995117188
1550.77367531521	1080.40002441406
1551.39956785171	1085.59997558594
1552.0253787685	1081
1552.65110807307	1081.19995117188
1553.2767557729	1082.19995117188
1553.90232187548	1082.40002441406
1554.52780638828	1085.19995117188
1555.15320931879	1081
1555.77853067447	1083.59997558594
1556.40377046282	1080
1557.02892869132	1085
1557.65400536744	1081.80004882813
1558.27900049866	1095.59997558594
1558.90391409247	1085.59997558594
1559.52874615633	1092.80004882813
1560.15349669773	1095.19995117188
1560.77816572414	1094.80004882813
1561.40275324305	1091.40002441406
1562.02725926192	1095.19995117188
1562.65168378824	1088.59997558594
1563.27602682948	1091.59997558594
1563.90028839311	1092
1564.52446848662	1086.80004882813
1565.14856711748	1096.19995117188
1565.77258429316	1095
1566.39652002113	1094
1567.02037430887	1096.80004882813
1567.64414716387	1098.19995117188
1568.26783859357	1088
1568.89144860547	1092
1569.51497720703	1093
1570.13842440573	1091.40002441406
1570.76179020904	1088.40002441406
1571.38507462442	1092.80004882813
1572.00827765936	1095.80004882813
1572.63139932132	1103
1573.25443961777	1101.59997558594
1573.87739855618	1101
1574.50027614402	1096.19995117188
1575.12307238877	1102
1575.74578729789	1091.59997558594
1576.36842087885	1088
1576.99097313912	1085
1577.61344408616	1085.40002441406
1578.23583372745	1090.40002441406
1578.85814207046	1091.19995117188
1579.48036912264	1096.59997558594
1580.10251489147	1080
1580.72457938441	1092.40002441406
1581.34656260893	1087.59997558594
1581.9684645725	1083.59997558594
1582.59028528258	1078.19995117188
1583.21202474663	1079
1583.83368297212	1080.80004882813
1584.45525996652	1081.59997558594
1585.07675573728	1079
1585.69817029188	1076.19995117188
1586.31950363778	1076.19995117188
1586.94075578243	1076.40002441406
1587.5619267333	1075.80004882813
1588.18301649786	1074.80004882813
1588.80402508357	1075.59997558594
1589.42495249788	1066.59997558594
1590.04579874826	1060.80004882813
1590.66656384217	1070
1591.28724778707	1069.80004882813
1591.90785059042	1069
1592.52837225968	1069.40002441406
1593.14881280232	1072.19995117188
1593.76917222578	1072
1594.38945053753	1070.80004882813
1595.00964774502	1068.40002441406
1595.62976385573	1069.40002441406
1596.24979887709	1073.40002441406
1596.86975281657	1071.19995117188
1597.48962568164	1075.59997558594
1598.10941747974	1073.59997558594
1598.72912821832	1069.59997558594
1599.34875790486	1070.40002441406
1599.9683065468	1069.59997558594
1600.58777415159	1057.80004882813
1601.2071607267	1067.19995117188
1601.82646627958	1059.40002441406
1602.44569081769	1061.80004882813
1603.06483434846	1061.19995117188
1603.68389687937	1066.59997558594
1604.30287841786	1058.59997558594
1604.92177897139	1061.40002441406
1605.54059854741	1062.19995117188
1606.15933715337	1073.59997558594
1606.77799479672	1072.59997558594
1607.39657148492	1076.59997558594
1608.01506722542	1073.19995117188
1608.63348202566	1077.80004882813
1609.2518158931	1069.59997558594
1609.87006883519	1062.80004882813
1610.48824085939	1057.59997558594
1611.10633197312	1062.80004882813
1611.72434218386	1063
1612.34227149904	1059.80004882813
1612.96011992612	1056
1613.57788747254	1064.19995117188
1614.19557414575	1068.19995117188
1614.8131799532	1058.40002441406
1615.43070490234	1062
1616.04814900061	1062.59997558594
1616.66551225545	1067
1617.28279467433	1070.80004882813
1617.89999626467	1070.80004882813
1618.51711703393	1079
1619.13415698955	1082.59997558594
1619.75111613898	1080
1620.36799448966	1082
1620.98479204903	1074.80004882813
1621.60150882455	1071
1622.21814482364	1072.80004882813
1622.83470005376	1079
1623.45117452235	1078.40002441406
1624.06756823685	1076.19995117188
1624.6838812047	1073.59997558594
1625.30011343335	1076.40002441406
1625.91626493022	1074.40002441406
1626.53233570278	1081.40002441406
1627.14832575845	1069
1627.76423510468	1060.19995117188
1628.38006374891	1061.40002441406
1628.99581169857	1052.40002441406
1629.61147896111	1054.59997558594
1630.22706554397	1050
1630.84257145457	1049.19995117188
1631.45799670038	1036.80004882813
1632.07334128881	1035
1632.6886052273	1026.80004882813
1633.3037885233	1030.19995117188
1633.91889118425	1031.40002441406
1634.53391321757	1032.19995117188
1635.1488546307	1037.40002441406
1635.76371543108	1040
1636.37849562616	1042.80004882813
1636.99319522335	1043.59997558594
1637.60781423009	1048.19995117188
1638.22235265383	1039.59997558594
1638.83681050198	1042.40002441406
1639.451187782	1046.19995117188
1640.0654845013	1043.19995117188
1640.67970066734	1052.19995117188
1641.29383628752	1041.80004882813
1641.9078913693	1049
1642.5218659201	1047.19995117188
1643.13575994735	1046.19995117188
1643.74957345849	1050.19995117188
1644.36330646094	1050.80004882813
1644.97695896213	1052.59997558594
1645.59053096951	1054.80004882813
1646.20402249049	1051.80004882813
1646.8174335325	1055
1647.43076410298	1057.40002441406
1648.04401420935	1063.59997558594
1648.65718385905	1071.59997558594
1649.2702730595	1059.80004882813
1649.88328181812	1061.40002441406
1650.49621014236	1066
1651.10905803963	1061.59997558594
1651.72182551735	1057.40002441406
1652.33451258297	1055.59997558594
1652.9471192439	1055.40002441406
1653.55964550757	1054
1654.1720913814	1057.40002441406
1654.78445687283	1052
1655.39674198926	1053.40002441406
1656.00894673814	1047.59997558594
1656.62107112688	1042.80004882813
1657.23311516291	1038.19995117188
1657.84507885365	1041.40002441406
1658.45696220652	1036
1659.06876522895	1032.59997558594
1659.68048792835	1034
1660.29213031217	1027.19995117188
1660.90369238779	1027.80004882813
1661.51517416267	1022.59997558594
1662.12657564421	1023.79998779297
1662.73789683984	1017.40002441406
1663.34913775697	1014.59997558594
1663.96029840303	1012.59997558594
1664.57137878544	1015.20001220703
1665.18237891161	1013.40002441406
1665.79329878897	1017.20001220703
1666.40413842493	1011.20001220703
1667.01489782691	1020.40002441406
1667.62557700233	1011.40002441406
1668.2361759586	1018.79998779297
1668.84669470315	1010
1669.4571332434	1008.79998779297
1670.06749158675	1002.59997558594
1670.67776974062	1007.40002441406
1671.28796771243	1007.79998779297
1671.8980855096	1008.79998779297
1672.50812313954	1012.59997558594
1673.11808060967	1009
1673.72795792739	1012.79998779297
1674.33775510013	1013.40002441406
1674.9474721353	1007.20001220703
1675.55710904031	998.599975585938
1676.16666582257	996.799987792969
1676.7761424895	998.200012207031
1677.38553904851	1001.20001220703
1677.99485550702	999
1678.60409187243	995.200012207031
1679.21324815215	998.799987792969
1679.8223243536	989.400024414063
1680.43132048419	992.200012207031
1681.04023655132	998.400024414063
1681.64907256241	1001.79998779297
1682.25782852487	1003.79998779297
1682.86650444611	997
1683.47510033353	998
1684.08361619455	1003.40002441406
1684.69205203657	1003
1685.300407867	1072.19995117188
1685.90868369325	1007
1686.51687952272	1000.59997558594
1687.12499536283	993.400024414063
1687.73303122098	1003.20001220703
1688.34098710457	1007.79998779297
1688.94886302101	1001.20001220703
1689.55665897772	1004
1690.16437498208	1006.79998779297
1690.77201104152	1009.79998779297
1691.37956716342	1004.79998779297
1691.9870433552	1000
1692.59443962426	1000.79998779297
1693.20175597801	1003.59997558594
1693.80899242384	1005
1694.41614896916	1007.79998779297
1695.02322562138	1001
1695.63022238789	999.799987792969
1696.23713927609	1001.79998779297
1696.8439762934	1005.20001220703
1697.4507334472	1001.40002441406
1698.05741074491	1005.40002441406
1698.66400819391	1009.59997558594
1699.27052580161	998.799987792969
1699.87696357542	1005
1700.48332152272	997
1701.08959965092	995.599975585938
1701.69579796742	996.400024414063
1702.30191647962	997.599975585938
1702.90795519491	998.400024414063
1703.51391412069	990.400024414063
1704.11979326437	991.799987792969
1704.72559263332	983.599975585938
1705.33131223496	984.200012207031
1705.93695207668	983.599975585938
1706.54251216588	988.200012207031
1707.14799250994	985.400024414063
1707.75339311628	981
1708.35871399227	983.400024414063
1708.96395514532	986.200012207031
1709.56911658282	982.200012207031
