634.948122577771	1109.80004882813
635.690341530823	1102.80004882813
636.43246851086	1115.59997558594
637.174503525845	1126.80004882813
637.916446583745	1127.59997558594
638.658297692538	1122.59997558594
639.400056860179	1131
640.141724094637	1132.19995117188
640.883299403885	1113.80004882813
641.62478279588	1116
642.366174278594	1118.59997558594
643.107473859989	1114
643.848681548029	1113.19995117188
644.589797350679	1110
645.330821275901	1111
646.071753331665	1119.40002441406
646.812593525922	1111
647.553341866646	1110.80004882813
648.293998361798	1114.40002441406
649.03456301933	1125
649.775035847216	1119.80004882813
650.515416853409	1121
651.255706045874	1120.19995117188
651.995903432568	1130
652.736009021453	1120.59997558594
653.476022820486	1124.59997558594
654.215944837629	1121.40002441406
654.955775080842	1120
655.695513558081	1118.59997558594
656.435160277301	1116.80004882813
657.174715246465	1116.59997558594
657.914178473527	1115.80004882813
658.653549966449	1117.59997558594
659.392829733176	1116.80004882813
660.132017781678	1127.80004882813
660.871114119901	1129
661.610118755803	1130.19995117188
662.349031697343	1134.80004882813
663.087852952468	1146.19995117188
663.826582529139	1143.80004882813
664.565220435305	1135.40002441406
665.30376667892	1142.59997558594
666.04222126794	1137.80004882813
666.780584210316	1123.40002441406
667.518855514	1119.19995117188
668.25703518694	1128
668.995123237096	1122.19995117188
669.733119672413	1120.59997558594
670.471024500842	1121
671.208837730333	1127.19995117188
671.946559368839	1132.59997558594
672.684189424308	1134
673.421727904689	1133
674.159174817929	1136.19995117188
674.896530171977	1133.59997558594
675.633793974786	1130.19995117188
676.370966234295	1127.40002441406
677.108046958461	1137.40002441406
677.845036155219	1139.59997558594
678.581933832528	1129.80004882813
679.318739998323	1125.19995117188
680.055454660558	1137
680.792077827172	1125.59997558594
681.528609506116	1125.40002441406
682.265049705331	1121
683.001398432759	1124.59997558594
683.737655696349	1129.19995117188
684.47382150404	1120.80004882813
685.20989586378	1117.80004882813
685.945878783503	1121.80004882813
686.68177027116	1122.40002441406
687.417570334688	1121.80004882813
688.153278982032	1130
688.888896221129	1122.80004882813
689.624422059921	1135.59997558594
690.359856506349	1135.80004882813
691.095199568354	1126.59997558594
691.830451253874	1130.19995117188
692.565611570844	1126.59997558594
693.300680527212	1129.59997558594
694.03565813091	1127.40002441406
694.770544389877	1132.19995117188
695.505339312053	1127
696.240042905372	1133.80004882813
696.974655177772	1135.59997558594
697.70917613719	1134.19995117188
698.443605791561	1135
699.177944148826	1126.59997558594
699.912191216909	1132.80004882813
700.646347003755	1133.80004882813
701.380411517295	1132.40002441406
702.114384765465	1136.80004882813
702.848266756195	1131
703.582057497421	1143.59997558594
704.315756997074	1143.59997558594
705.049365263089	1140.80004882813
705.782882303399	1132.59997558594
706.516308125936	1144.19995117188
707.249642738626	1138
707.982886149403	1129.40002441406
708.716038366204	1134.59997558594
709.449099396949	1127.59997558594
710.182069249577	1128.40002441406
710.914947932009	1122
711.647735452181	1129
712.380431818022	1135
713.113037037454	1124.59997558594
713.845551118411	1123.19995117188
714.577974068818	1125
715.310305896604	1131.40002441406
716.042546609694	1132.80004882813
716.774696216013	1119.80004882813
717.506754723493	1136
718.238722140053	1128.40002441406
718.970598473624	1130.59997558594
719.702383732127	1131
720.43407792349	1128.80004882813
721.165681055634	1134.19995117188
721.897193136486	1136.80004882813
722.628614173966	1136.59997558594
723.359944175997	1138
724.091183150505	1136.19995117188
724.822331105412	1136
725.553388048638	1141.80004882813
726.284353988106	1136.40002441406
727.015228931734	1136.19995117188
727.746012887449	1133
728.476705863162	1133.59997558594
729.207307866803	1133.59997558594
729.937818906289	1129.40002441406
730.668238989535	1125.59997558594
731.398568124459	1128.80004882813
732.128806318986	1132.40002441406
732.858953581034	1128.40002441406
733.589009918514	1131.59997558594
734.318975339348	1134
735.048849851452	1133.80004882813
735.778633462744	1138.80004882813
736.508326181137	1142.59997558594
737.237928014549	1139.19995117188
737.967438970897	1142.59997558594
738.696859058095	1137
739.426188284054	1139.40002441406
740.155426656692	1138.40002441406
740.884574183922	1144.19995117188
741.613630873659	1139.59997558594
742.342596733815	1147.40002441406
743.071471772302	1137.19995117188
743.800255997034	1137.19995117188
744.528949415921	1136.59997558594
745.257552036877	1125.19995117188
745.986063867811	1134.40002441406
746.714484916638	1139
747.442815191261	1143.40002441406
748.171054699597	1137
748.899203449554	1145.59997558594
749.627261449039	1145.59997558594
750.355228705966	1132.59997558594
751.083105228239	1135.19995117188
751.810891023765	1124.40002441406
752.538586100459	1139.40002441406
753.266190466218	1129.19995117188
753.99370412896	1135
754.721127096582	1142.40002441406
755.448459377	1132.80004882813
756.175700978114	1144
756.902851907828	1149.19995117188
757.629912174055	1137.40002441406
758.356881784688	1144.19995117188
759.083760747639	1147
759.810549070817	1160.59997558594
760.537246762113	1146.59997558594
761.263853829442	1141
761.990370280698	1132.40002441406
762.716796123791	1128.59997558594
763.443131366618	1139.40002441406
764.169376017082	1132.59997558594
764.895530083085	1141.80004882813
765.621593572527	1145.19995117188
766.347566493312	1152.19995117188
767.073448853336	1161
767.799240660502	1166.80004882813
768.524941922707	1162
769.250552647854	1168.59997558594
769.976072843836	1176
770.701502518551	1177.80004882813
771.426841679905	1180
772.152090335793	1180.59997558594
772.877248494107	1176.40002441406
773.602316162747	1176.19995117188
774.327293349609	1174.80004882813
775.052180062592	1182.59997558594
775.776976309589	1184.19995117188
776.501682098496	1177.19995117188
777.226297437206	1170.19995117188
777.950822333616	1164.19995117188
778.675256795621	1164.80004882813
779.399600831111	1165.40002441406
780.123854447983	1165.80004882813
780.84801765413	1150
781.572090457441	1153.40002441406
782.296072865811	1150
783.019964887131	1147.59997558594
783.743766529297	1142.40002441406
784.467477800194	1151.80004882813
785.191098707719	1143.40002441406
785.914629259756	1150
786.638069464194	1155.19995117188
787.361419328932	1149.40002441406
788.084678861852	1139.40002441406
788.807848070845	1141.80004882813
789.530926963798	1136
790.253915548602	1133.59997558594
790.976813833144	1126
791.699621825307	1132.40002441406
792.422339532986	1130.40002441406
793.144966964061	1135.59997558594
793.86750412642	1131
794.589951027946	1136.59997558594
795.312307676536	1143.40002441406
796.03457408006	1136.40002441406
796.756750246417	1132
797.478836183477	1144.59997558594
798.200831899137	1142.80004882813
798.92273740127	1131
799.644552697769	1131.19995117188
800.36627779651	1140.59997558594
801.087912705374	1138.80004882813
801.809457432251	1138.40002441406
802.530911985017	1140.59997558594
803.252276371558	1132
803.973550599748	1145.80004882813
804.694734677472	1118.19995117188
805.415828612611	1125.40002441406
806.136832413045	1128.19995117188
806.857746086646	1131
807.578569641305	1132.59997558594
808.299303084892	1143.40002441406
809.019946425289	1143.19995117188
809.740499670372	1147.80004882813
810.460962828022	1152.59997558594
811.181335906114	1145.59997558594
811.901618912524	1138.80004882813
812.621811855131	1138.80004882813
813.341914741809	1132.59997558594
814.061927580433	1140.59997558594
814.781850378881	1145
815.501683145025	1138.59997558594
816.221425886743	1144.59997558594
816.941078611903	1144.80004882813
817.660641328387	1142.80004882813
818.380114044065	1148.19995117188
819.099496766808	1142.59997558594
819.818789504492	1146.80004882813
820.53799226499	1146.40002441406
821.257105056168	1133.80004882813
821.976127885904	1135.40002441406
822.695060762064	1137
823.413903692525	1142.59997558594
824.132656685151	1146.80004882813
824.851319747817	1136.40002441406
825.569892888388	1135.59997558594
826.288376114739	1148.59997558594
827.006769434737	1137.59997558594
827.725072856249	1152.59997558594
828.443286387142	1135.59997558594
829.161410035285	1136.19995117188
829.87944380855	1130.40002441406
830.597387714798	1129
831.315241761898	1138.40002441406
832.033005957715	1131.80004882813
832.750680310119	1131.19995117188
833.468264826969	1138.59997558594
834.18575951614	1133.59997558594
834.903164385486	1137.59997558594
835.620479442878	1145.40002441406
836.337704696181	1151.19995117188
837.054840153255	1145.59997558594
837.771885821962	1134.19995117188
838.488841710172	1131.40002441406
839.20570782574	1131
839.922484176531	1141
840.639170770409	1135.59997558594
841.355767615231	1129.80004882813
842.072274718864	1127.59997558594
842.788692089164	1139.40002441406
843.505019733993	1143.40002441406
844.221257661209	1142.80004882813
844.937405878676	1140.80004882813
845.65346439425	1130.80004882813
846.369433215789	1132
847.085312351156	1134.19995117188
847.801101808205	1138
848.516801594793	1129.40002441406
849.232411718781	1136.40002441406
849.947932188021	1129.59997558594
850.663363010376	1130
851.378704193698	1129.80004882813
852.093955745842	1132.80004882813
852.809117674669	1132.19995117188
853.524189988028	1137.80004882813
854.239172693778	1137.80004882813
854.954065799768	1133.59997558594
855.668869313857	1140.80004882813
856.383583243899	1139.40002441406
857.098207597743	1139.59997558594
857.812742383246	1133.59997558594
858.527187608255	1131.80004882813
859.241543280628	1129
859.955809408218	1133.80004882813
860.669985998868	1137.19995117188
861.384073060437	1139
862.098070600772	1146.40002441406
862.811978627724	1143.59997558594
863.52579714914	1146.19995117188
864.239526172873	1140.80004882813
864.953165706776	1152.80004882813
865.666715758687	1131.59997558594
866.380176336464	1127.40002441406
867.093547447951	1130
867.806829100996	1125.80004882813
868.520021303444	1137.80004882813
869.233124063149	1129
869.94613738795	1124.19995117188
870.659061285693	1126.40002441406
871.37189576423	1131.19995117188
872.084640831403	1135.59997558594
872.797296495057	1136
873.509862763039	1122.19995117188
874.22233964319	1121.80004882813
874.934727143353	1128
875.647025271374	1124.19995117188
876.359234035097	1134.19995117188
877.071353442361	1123
877.783383501015	1132.19995117188
878.495324218895	1134.59997558594
879.207175603844	1130.19995117188
879.918937663705	1137
880.630610406318	1139.19995117188
881.342193839524	1136.40002441406
882.053687971161	1135
882.765092809069	1129.40002441406
883.476408361091	1136
884.187634635066	1140.19995117188
884.898771638828	1136.19995117188
885.609819380221	1135
886.320777867076	1138.59997558594
887.031647107236	1132
887.742427108536	1127
888.453117878816	1122.19995117188
889.16371942591	1131
889.874231757652	1127
890.584654881883	1129
891.294988806434	1138
892.005233539141	1131.59997558594
892.715389087837	1143
893.42545546036	1128
894.135432664543	1134.40002441406
894.845320708216	1135.40002441406
895.555119599216	1124
896.264829345375	1119.40002441406
896.974449954526	1131
897.683981434496	1127.19995117188
898.393423793125	1125.59997558594
899.102777038235	1136.59997558594
899.812041177664	1131.59997558594
900.521216219239	1130.59997558594
901.230302170793	1123.40002441406
901.939299040155	1133
902.64820683515	1128
903.357025563612	1127.80004882813
904.065755233368	1118
904.774395852247	1121
905.482947428076	1121.59997558594
906.191409968682	1127.40002441406
906.899783481897	1123.19995117188
907.608067975538	1128
908.316263457443	1133.59997558594
909.02436993543	1139
909.732387417327	1137
910.440315910959	1136.19995117188
911.148155424154	1136
911.855905964731	1135.40002441406
912.563567540521	1129.19995117188
913.271140159339	1127.80004882813
913.978623829017	1134
914.686018557374	1132.19995117188
915.393324352237	1135.59997558594
916.100541221421	1127.40002441406
916.807669172752	1135.80004882813
917.514708214054	1131.59997558594
918.221658353142	1135.80004882813
918.928519597843	1133
919.635291955976	1135.59997558594
920.341975435358	1131.40002441406
921.048570043813	1128.80004882813
921.75507578916	1133
922.461492679212	1129.40002441406
923.167820721795	1133.80004882813
923.874059924726	1136
924.58021029582	1145.59997558594
925.286271842893	1148
925.992244573769	1138.19995117188
926.698128496262	1142.19995117188
927.403923618184	1135.19995117188
928.109629947355	1131.19995117188
928.815247491593	1124.40002441406
929.520776258708	1134.80004882813
930.226216256519	1131.40002441406
930.931567492841	1146.80004882813
931.636829975482	1132
932.342003712263	1125.40002441406
933.047088710995	1130
933.752084979491	1132.59997558594
934.456992525564	1130
935.161811357024	1121.59997558594
935.866541481688	1137.59997558594
936.571182907363	1122.80004882813
937.275735641861	1124.40002441406
937.980199692995	1119.80004882813
938.684575068572	1114.80004882813
939.388861776411	1110.80004882813
940.093059824311	1119.40002441406
940.797169220085	1123.40002441406
941.501189971544	1132.40002441406
942.205122086495	1127.19995117188
942.908965572751	1122
943.612720438111	1128.80004882813
944.316386690391	1129.19995117188
945.019964337391	1132.80004882813
945.723453386924	1128.19995117188
946.426853846795	1130.59997558594
947.130165724808	1117.40002441406
947.83338902877	1117.80004882813
948.536523766488	1113.40002441406
949.239569945764	1116.40002441406
949.942527574402	1120.80004882813
950.64539666021	1120.40002441406
951.348177210993	1119.40002441406
952.050869234548	1111.19995117188
952.753472738683	1116
953.455987731199	1121.19995117188
954.158414219898	1115.19995117188
954.860752212587	1112.80004882813
955.563001717061	1115.59997558594
956.265162741124	1121.19995117188
956.967235292576	1111.80004882813
957.669219379224	1110.19995117188
958.371115008857	1114.59997558594
959.072922189283	1121.40002441406
959.774640928301	1121.40002441406
960.476271233708	1119.40002441406
961.177813113301	1117.80004882813
961.879266574882	1115.80004882813
962.580631626248	1124.80004882813
963.281908275194	1121.59997558594
963.98309652952	1115.40002441406
964.684196397022	1122.19995117188
965.3852078855	1111.80004882813
966.086131002745	1114.40002441406
966.786965756555	1124.19995117188
967.487712154726	1110.80004882813
968.188370205055	1107.40002441406
968.888939915331	1111.19995117188
969.589421293352	1114.59997558594
970.289814346909	1115.59997558594
970.990119083801	1117.40002441406
971.690335511819	1127
972.39046363875	1121.80004882813
973.090503472398	1116.80004882813
973.790455020545	1116.19995117188
974.490318290987	1117.59997558594
975.190093291516	1124.59997558594
975.889780029923	1115
976.589378513998	1120.40002441406
977.288888751527	1113
977.988310750308	1128.40002441406
978.687644518122	1128.40002441406
979.386890062767	1126.80004882813
980.086047392025	1120
980.785116513689	1117.19995117188
981.484097435542	1117.40002441406
982.182990165377	1119.40002441406
982.88179471098	1122
983.580511080137	1125.80004882813
984.279139280632	1130
984.977679320253	1119
985.67613120679	1119.40002441406
986.374494948027	1122.19995117188
987.072770551745	1126
987.770958025731	1119.59997558594
988.469057377772	1116.40002441406
989.167068615649	1113.80004882813
989.864991747145	1120.59997558594
990.562826780047	1120.59997558594
991.260573722134	1118.80004882813
991.958232581195	1117.40002441406
992.655803365003	1112
993.353286081346	1115.59997558594
994.050680738006	1122.40002441406
994.74798734276	1119.80004882813
995.44520590339	1110.19995117188
996.142336427681	1109.40002441406
996.839378923407	1107.80004882813
997.536333398348	1122.40002441406
998.233199860289	1113.59997558594
998.929978317004	1119.19995117188
999.626668776274	1115.19995117188
1000.32327124587	1102
1001.01978573359	1105.80004882813
1001.71621224718	1111.19995117188
1002.41255079445	1115.40002441406
1003.10880138315	1110
1003.80496402107	1109.59997558594
1004.50103871599	1110.40002441406
1005.19702547567	1121.40002441406
1005.8929243079	1118
1006.58873522045	1114
1007.2844582211	1114.40002441406
1007.98009331761	1108.40002441406
1008.67564051776	1104.59997558594
1009.37109982933	1106.40002441406
1010.06647126009	1109.80004882813
1010.7617548178	1114.59997558594
1011.45695051026	1103.80004882813
1012.15205834522	1108
1012.84707833045	1114.59997558594
1013.54201047373	1121.19995117188
1014.23685478284	1120.80004882813
1014.93161126553	1117.59997558594
1015.62627992959	1123.80004882813
1016.32086078277	1121.59997558594
1017.01535383285	1118.59997558594
1017.70975908761	1123
1018.40407655479	1115.59997558594
1019.09830624219	1117.40002441406
1019.79244815755	1118.40002441406
1020.48650230866	1112.40002441406
1021.18046870328	1108.59997558594
1021.87434734917	1113.19995117188
1022.56813825411	1119.40002441406
1023.26184142584	1120.19995117188
1023.95545687216	1115.59997558594
1024.64898460082	1113.40002441406
1025.34242461957	1115.19995117188
1026.0357769362	1113.19995117188
1026.72904155846	1119.40002441406
1027.42221849412	1108.19995117188
1028.11530775094	1112.19995117188
1028.80830933668	1116
1029.50122325911	1110
1030.19404952599	1119
1030.88678814508	1124.80004882813
1031.57943912414	1122.40002441406
1032.27200247093	1117
1032.96447819323	1123.19995117188
1033.65686629878	1114.40002441406
1034.34916679534	1111.59997558594
1035.04137969068	1113.80004882813
1035.73350499256	1114.80004882813
1036.42554270874	1110.40002441406
1037.11749284697	1118.19995117188
1037.80935541501	1119.40002441406
1038.50113042062	1118.19995117188
1039.19281787156	1120.80004882813
1039.88441777559	1112.40002441406
1040.57593014046	1114.19995117188
1041.26735497393	1118.19995117188
1041.95869228376	1116.19995117188
1042.6499420777	1116.19995117188
1043.3411043635	1122.19995117188
1044.03217914893	1111.80004882813
1044.72316644174	1107.80004882813
1045.41406624968	1110.59997558594
1046.1048785805	1105.40002441406
1046.79560344197	1104.59997558594
1047.48624084182	1104.40002441406
1048.17679078783	1103.59997558594
1048.86725328774	1106.80004882813
1049.55762834929	1106.80004882813
1050.24791598025	1106
1050.93811618837	1097
1051.62822898139	1097.59997558594
1052.31825436707	1107
1053.00819235315	1099.19995117188
1053.6980429474	1105.40002441406
1054.38780615755	1103.40002441406
1055.07748199136	1103.59997558594
1055.76707045658	1108.59997558594
1056.45657156095	1106.19995117188
1057.14598531222	1095.59997558594
1057.83531171814	1098.80004882813
1058.52455078646	1107.19995117188
1059.21370252494	1108.40002441406
1059.90276694129	1110.40002441406
1060.5917440433	1099.59997558594
1061.28063383868	1109.80004882813
1061.9694363352	1104.59997558594
1062.65815154059	1099.59997558594
1063.34677946261	1105.59997558594
1064.03532010899	1107.40002441406
1064.72377348748	1107
1065.41213960583	1107.19995117188
1066.10041847177	1102.80004882813
1066.78861009306	1101
1067.47671447743	1101.40002441406
1068.16473163263	1098
1068.85266156639	1094.19995117188
1069.54050428647	1100.59997558594
1070.2282598006	1100.59997558594
1070.91592811652	1103.80004882813
1071.60350924198	1099
1072.29100318471	1104
1072.97840995245	1104.40002441406
1073.66572955295	1105
1074.35296199394	1103
1075.04010728316	1094.59997558594
1075.72716542836	1095.40002441406
1076.41413643726	1090.59997558594
1077.10102031761	1096
1077.78781707715	1089.19995117188
1078.4745267236	1097.19995117188
1079.16114926471	1092.19995117188
1079.84768470822	1097.40002441406
1080.53413306185	1088.80004882813
1081.22049433336	1094.19995117188
1081.90676853046	1101.40002441406
1082.5929556609	1099.19995117188
1083.27905573241	1106.80004882813
1083.96506875272	1109
1084.65099472957	1102
1085.3368336707	1095
1086.02258558383	1101.40002441406
1086.70825047669	1101.59997558594
1087.39382835703	1098.59997558594
1088.07931923257	1103.19995117188
1088.76472311104	1095.59997558594
1089.45004000018	1093.40002441406
1090.13526990771	1096.80004882813
1090.82041284137	1100.80004882813
1091.50546880889	1099.59997558594
1092.19043781799	1095.19995117188
1092.87531987642	1103.19995117188
1093.56011499188	1108.59997558594
1094.24482317212	1103.59997558594
1094.92944442486	1094.59997558594
1095.61397875783	1094.19995117188
1096.29842617876	1089.19995117188
1096.98278669537	1087.80004882813
1097.6670603154	1095.19995117188
1098.35124704656	1086.59997558594
1099.03534689659	1094.59997558594
1099.71935987322	1080.40002441406
1100.40328598416	1094.19995117188
1101.08712523713	1100.59997558594
1101.77087763988	1104.40002441406
1102.45454320012	1104.40002441406
1103.13812192557	1108.19995117188
1103.82161382396	1106
1104.50501890301	1108.19995117188
1105.18833717045	1102
1105.87156863399	1098
1106.55471330137	1091.40002441406
1107.2377711803	1097.80004882813
1107.9207422785	1099.59997558594
1108.60362660369	1098.80004882813
1109.2864241636	1096.80004882813
1109.96913496594	1101.40002441406
1110.65175901844	1096.40002441406
1111.33429632882	1083
1112.01674690479	1087.59997558594
1112.69911075408	1091
1113.38138788439	1088.40002441406
1114.06357830346	1096.19995117188
1114.745682019	1099.80004882813
1115.42769903872	1097.40002441406
1116.10962937035	1096.19995117188
1116.7914730216	1107
1117.47323000018	1100.59997558594
1118.15490031382	1104.19995117188
1118.83648397022	1115.19995117188
1119.51798097712	1103.80004882813
1120.1993913422	1111
1120.88071507321	1118.80004882813
1121.56195217784	1113
1122.24310266381	1112
1122.92416653884	1106.59997558594
1123.60514381064	1101.40002441406
1124.28603448692	1106.19995117188
1124.9668385754	1106.80004882813
1125.64755608378	1096.59997558594
1126.32818701978	1097.40002441406
1127.00873139111	1099
1127.68918920548	1095
1128.3695604706	1100.59997558594
1129.04984519419	1101.80004882813
1129.73004338394	1098
1130.41015504758	1100
1131.09018019281	1104.80004882813
1131.77011882734	1103.40002441406
1132.44997095888	1101.19995117188
1133.12973659514	1103.80004882813
1133.80941574381	1101.40002441406
1134.48900841263	1096.80004882813
1135.16851460927	1096.80004882813
1135.84793434147	1102
1136.52726761692	1100
1137.20651444333	1106.40002441406
1137.8856748284	1097.59997558594
1138.56474877984	1097.80004882813
1139.24373630536	1092.80004882813
1139.92263741265	1093.59997558594
1140.60145210943	1093.40002441406
1141.28018040339	1096.59997558594
1141.95882230225	1110
1142.6373778137	1095.40002441406
1143.31584694545	1102.59997558594
1143.99422970519	1108.19995117188
1144.67252610064	1107.40002441406
1145.35073613949	1108.40002441406
1146.02885982944	1096.40002441406
1146.7068971782	1097
1147.38484819347	1088.59997558594
1148.06271288294	1095.59997558594
1148.74049125432	1090.80004882813
1149.41818331531	1089.19995117188
1150.0957890736	1092.59997558594
1150.77330853689	1087.40002441406
1151.45074171289	1083.59997558594
1152.12808860928	1085.40002441406
1152.80534923378	1085.80004882813
1153.48252359407	1086.80004882813
1154.15961169786	1086
1154.83661355283	1088.80004882813
1155.51352916669	1084.59997558594
1156.19035854713	1090.80004882813
1156.86710170185	1083
1157.54375863855	1086.59997558594
1158.22032936491	1085.59997558594
1158.89681388863	1084.19995117188
1159.57321221741	1086
1160.24952435894	1081.40002441406
1160.92575032092	1081.80004882813
1161.60189011103	1088.59997558594
1162.27794373697	1077.59997558594
1162.95391120644	1080.40002441406
1163.62979252712	1082.40002441406
1164.3055877067	1090.59997558594
1164.98129675288	1090.59997558594
1165.65691967336	1088
1166.33245647581	1091.19995117188
1167.00790716792	1087.40002441406
1167.6832717574	1087.40002441406
1168.35855025193	1078.40002441406
1169.0337426592	1082
1169.70884898689	1093.19995117188
1170.3838692427	1090.19995117188
1171.05880343431	1096.59997558594
1171.73365156941	1098
1172.40841365569	1096
1173.08308970083	1092.59997558594
1173.75767971253	1094.40002441406
1174.43218369847	1092.80004882813
1175.10660166633	1097.40002441406
1175.7809336238	1093
1176.45517957857	1089
1177.12933953832	1087.19995117188
1177.80341351073	1096.59997558594
1178.47740150349	1090.80004882813
1179.15130352429	1101.59997558594
1179.8251195808	1095.19995117188
1180.49884968071	1097.19995117188
1181.1724938317	1107.80004882813
1181.84605204145	1103
1182.51952431766	1090
1183.19291066799	1098.19995117188
1183.86621110013	1090.80004882813
1184.53942562176	1093
1185.21255424057	1087.59997558594
1185.88559696422	1084.19995117188
1186.55855380041	1087.40002441406
1187.2314247568	1092.59997558594
1187.90420984109	1086
1188.57690906095	1094
1189.24952242405	1091.19995117188
1189.92204993808	1096.59997558594
1190.59449161071	1105.59997558594
1191.26684744962	1100.59997558594
1191.93911746249	1102.80004882813
1192.61130165699	1100.59997558594
1193.28340004081	1099.19995117188
1193.95541262161	1098.40002441406
1194.62733940707	1100
1195.29918040487	1103.40002441406
1195.97093562269	1100.80004882813
1196.64260506819	1089.40002441406
1197.31418874905	1097.19995117188
1197.98568667295	1097.80004882813
1198.65709884755	1091.40002441406
1199.32842528053	1094.40002441406
1199.99966597957	1092.19995117188
1200.67082095234	1093
1201.3418902065	1098
1202.01287374974	1096.80004882813
1202.68377158971	1089.59997558594
1203.3545837341	1096.59997558594
1204.02531019057	1093.40002441406
1204.6959509668	1094.80004882813
1205.36650607045	1094.80004882813
1206.03697550919	1089.59997558594
1206.70735929069	1094.40002441406
1207.37765742263	1090.80004882813
1208.04786991266	1091
1208.71799676846	1098.19995117188
1209.38803799769	1090
1210.05799360803	1087.59997558594
1210.72786360714	1082
1211.39764800268	1086.59997558594
1212.06734680233	1083
1212.73696001375	1071
1213.4064876446	1077
1214.07592970255	1077.80004882813
1214.74528619526	1079.40002441406
1215.4145571304	1077.40002441406
1216.08374251564	1078
1216.75284235863	1077.80004882813
1217.42185666704	1077
1218.09078544854	1071.80004882813
1218.75962871078	1068.59997558594
1219.42838646143	1076.40002441406
1220.09705870816	1075.80004882813
1220.76564545861	1081.59997558594
1221.43414672046	1073.40002441406
1222.10256250136	1084.40002441406
1222.77089280898	1078.80004882813
1223.43913765098	1071.59997558594
1224.107297035	1070
1224.77537096873	1069.80004882813
1225.44335945981	1077
1226.1112625159	1083.80004882813
1226.77908014467	1084.19995117188
1227.44681235376	1078.80004882813
1228.11445915085	1082.19995117188
1228.78202054357	1078.40002441406
1229.44949653961	1078.59997558594
1230.11688714659	1080.19995117188
1230.7841923722	1085.19995117188
1231.45141222407	1086.80004882813
1232.11854670988	1080
1232.78559583726	1085.19995117188
1233.45255961388	1082.59997558594
1234.1194380474	1081
1234.78623114546	1083.40002441406
1235.45293891572	1084
1236.11956136583	1082
1236.78609850345	1072.40002441406
1237.45255033623	1079.80004882813
1238.11891687182	1074.19995117188
1238.78519811788	1079.59997558594
1239.45139408205	1080.40002441406
1240.11750477198	1087
1240.78353019534	1089.59997558594
1241.44947035976	1082
1242.11532527291	1081.19995117188
1242.78109494242	1087.59997558594
1243.44677937595	1083.19995117188
1244.11237858115	1080.40002441406
1244.77789256567	1079.80004882813
1245.44332133715	1075.19995117188
1246.10866490325	1076.59997558594
1246.7739232716	1075.59997558594
1247.43909644987	1080.40002441406
1248.10418444569	1074
1248.76918726671	1079.19995117188
1249.43410492059	1076.40002441406
1250.09893741496	1076
1250.76368475747	1076.19995117188
1251.42834695576	1075.59997558594
1252.09292401749	1074.59997558594
1252.75741595029	1074.19995117188
1253.42182276182	1073.19995117188
1254.08614445971	1078.59997558594
1254.75038105161	1077
1255.41453254515	1080.80004882813
1256.07859894799	1083.80004882813
1256.74258026777	1077.19995117188
1257.40647651213	1079.59997558594
1258.0702876887	1075.80004882813
1258.73401380514	1077.19995117188
1259.39765486908	1073.80004882813
1260.06121088817	1078
1260.72468187004	1080
1261.38806782233	1071.80004882813
1262.05136875269	1078.19995117188
1262.71458466875	1077.59997558594
1263.37771557815	1079.19995117188
1264.04076148854	1079.19995117188
1264.70372240753	1068.59997558594
1265.3665983428	1069
1266.02938930195	1073.40002441406
1266.69209529263	1083.19995117188
1267.35471632249	1081.80004882813
1268.01725239914	1078.19995117188
1268.67970353024	1078.80004882813
1269.34206972342	1076
1270.00435098631	1077.40002441406
1270.66654732655	1075.59997558594
1271.32865875177	1075.59997558594
1271.9906852696	1069.40002441406
1272.65262688768	1075.59997558594
1273.31448361365	1072.19995117188
1273.97625545514	1073.59997558594
1274.63794241978	1073.80004882813
1275.2995445152	1074.19995117188
1275.96106174903	1080.40002441406
1276.62249412892	1079.59997558594
1277.28384166248	1075.40002441406
1277.94510435735	1079.59997558594
1278.60628222116	1078
1279.26737526155	1080.59997558594
1279.92838348613	1074.80004882813
1280.58930690255	1076.40002441406
1281.25014551842	1067.19995117188
1281.91089934139	1066.40002441406
1282.57156837907	1075
1283.2321526391	1067
1283.89265212911	1078.59997558594
1284.55306685671	1066.19995117188
1285.21339682955	1070.80004882813
1285.87364205525	1068.80004882813
1286.53380254142	1062.59997558594
1287.19387829571	1067.40002441406
1287.85386932573	1070.80004882813
1288.51377563911	1066.59997558594
1289.17359724348	1070.59997558594
1289.83333414646	1062.19995117188
1290.49298635567	1070.19995117188
1291.15255387874	1066
1291.8120367233	1076.59997558594
1292.47143489696	1082.80004882813
1293.13074840736	1082.80004882813
1293.7899772621	1082.80004882813
1294.44912146882	1081
1295.10818103513	1088.40002441406
1295.76715596866	1082
1296.42604627704	1073
1297.08485196787	1091.19995117188
1297.74357304878	1077.19995117188
1298.4022095274	1075.80004882813
1299.06076141134	1071.19995117188
1299.71922870821	1072.19995117188
1300.37761142565	1077.19995117188
1301.03590957126	1083.40002441406
1301.69412315268	1081
1302.3522521775	1078
1303.01029665336	1069.59997558594
1303.66825658787	1073.80004882813
1304.32613198865	1074.19995117188
1304.98392286332	1076.19995117188
1305.64162921948	1089.59997558594
1306.29925106476	1087.19995117188
1306.95678840677	1079.80004882813
1307.61424125312	1077.59997558594
1308.27160961145	1078.19995117188
1308.92889348934	1077.19995117188
1309.58609289443	1090.40002441406
1310.24320783432	1095.19995117188
1310.90023831664	1092.40002441406
1311.55718434898	1084.59997558594
1312.21404593897	1083.80004882813
1312.87082309421	1083.19995117188
1313.52751582233	1086.40002441406
1314.18412413092	1087.19995117188
1314.84064802761	1079.40002441406
1315.49708752	1087.19995117188
1316.1534426157	1086.40002441406
1316.80971332233	1086.19995117188
1317.46589964749	1087.19995117188
1318.1220015988	1098
1318.77801918386	1091.19995117188
1319.43395241028	1080.80004882813
1320.08980128567	1081.40002441406
1320.74556581764	1082.40002441406
1321.4012460138	1078.59997558594
1322.05684188176	1079
1322.71235342911	1084
1323.36778066347	1086.80004882813
1324.02312359245	1078
1324.67838222365	1080.40002441406
1325.33355656468	1076.80004882813
1325.98864662314	1071.59997558594
1326.64365240663	1078.19995117188
1327.29857392277	1072.19995117188
1327.95341117915	1073.19995117188
1328.60816418339	1075.80004882813
1329.26283294308	1070.80004882813
1329.91741746582	1067.80004882813
1330.57191775923	1067
1331.2263338309	1062
1331.88066568843	1074
1332.53491333943	1078.19995117188
1333.1890767915	1071.40002441406
1333.84315605224	1079.80004882813
1334.49715112925	1081.19995117188
1335.15106203013	1074
1335.80488876249	1063
1336.45863133391	1061.59997558594
1337.112289752	1074
1337.76586402437	1070.19995117188
1338.4193541586	1069.80004882813
1339.0727601623	1070.40002441406
1339.72608204306	1065.19995117188
1340.37931980849	1069.80004882813
1341.03247346617	1074.40002441406
1341.68554302372	1076.40002441406
1342.33852848871	1068.59997558594
1342.99142986876	1072
1343.64424717145	1074.19995117188
1344.29698040438	1076.59997558594
1344.94962957515	1084.40002441406
1345.60219469135	1083.40002441406
1346.25467576058	1083
1346.90707279042	1087
1347.55938578848	1086.19995117188
1348.21161476235	1081.19995117188
1348.86375971962	1083.80004882813
1349.51582066787	1082.59997558594
1350.16779761472	1090
1350.81969056774	1091
1351.47149953453	1093
1352.12322452269	1091.80004882813
1352.77486553979	1092.59997558594
1353.42642259344	1099.59997558594
1354.07789569122	1100.59997558594
1354.72928484072	1094.59997558594
1355.38059004953	1087.40002441406
1356.03181132525	1096.40002441406
1356.68294867545	1105.19995117188
1357.33400210773	1093
1357.98497162968	1092.80004882813
1358.63585724889	1093.80004882813
1359.28665897294	1094
1359.93737680942	1103.59997558594
1360.58801076591	1095.40002441406
1361.23856085001	1099.19995117188
1361.88902706929	1096
1362.53940943135	1100.59997558594
1363.18970794377	1111.80004882813
1363.83992261413	1108.19995117188
1364.49005345003	1098.19995117188
1365.14010045904	1101.19995117188
1365.79006364874	1101.19995117188
1366.43994302673	1116.59997558594
1367.08973860058	1107.59997558594
1367.73945037788	1096.59997558594
1368.38907836621	1096.40002441406
1369.03862257315	1092.19995117188
1369.68808300629	1084.80004882813
1370.3374596732	1083.59997558594
1370.98675258148	1074.40002441406
1371.63596173868	1085.80004882813
1372.28508715241	1086.80004882813
1372.93412883024	1081.40002441406
1373.58308677974	1074.19995117188
1374.2319610085	1082.59997558594
1374.8807515241	1079
1375.52945833412	1078.19995117188
1376.17808144612	1071.40002441406
1376.82662086771	1075
1377.47507660644	1070.59997558594
1378.12344866989	1070.19995117188
1378.77173706565	1070.19995117188
1379.41994180129	1068.80004882813
1380.06806288439	1070.40002441406
1380.71610032252	1074
1381.36405412326	1076.80004882813
1382.01192429419	1068.19995117188
1382.65971084287	1063.59997558594
1383.30741377688	1056.59997558594
1383.95503310381	1066.19995117188
1384.60256883121	1066.59997558594
1385.25002096667	1072.40002441406
1385.89738951775	1064.59997558594
1386.54467449204	1055
1387.19187589709	1055.80004882813
1387.8389937405	1058.19995117188
1388.48602802982	1061.59997558594
1389.13297877262	1060.59997558594
1389.77984597649	1064.59997558594
1390.42662964899	1062.59997558594
1391.07332979768	1065.19995117188
1391.71994643015	1062.80004882813
1392.36647955395	1070.19995117188
1393.01292917667	1070.40002441406
1393.65929530586	1059.59997558594
1394.3055779491	1060
1394.95177711395	1056.80004882813
1395.59789280799	1055
1396.24392503877	1060.80004882813
1396.88987381387	1056.80004882813
1397.53573914086	1063.80004882813
1398.1815210273	1057.80004882813
1398.82721948075	1059.19995117188
1399.47283450878	1060
1400.11836611897	1061.40002441406
1400.76381431886	1058.40002441406
1401.40917911603	1068.80004882813
1402.05446051805	1073.19995117188
1402.69965853247	1057.40002441406
1403.34477316686	1064.40002441406
1403.98980442878	1057.40002441406
1404.6347523258	1061.40002441406
1405.27961686548	1062.40002441406
1405.92439805538	1062.19995117188
1406.56909590306	1056.59997558594
1407.21371041608	1056.59997558594
1407.85824160202	1049.59997558594
1408.50268946841	1051.19995117188
1409.14705402284	1056.40002441406
1409.79133527285	1053.59997558594
1410.43553322601	1056.80004882813
1411.07964788987	1056.59997558594
1411.723679272	1060.40002441406
1412.36762737996	1063.80004882813
1413.01149222129	1059.59997558594
1413.65527380357	1067
1414.29897213435	1067.40002441406
1414.94258722118	1061
1415.58611907163	1058
1416.22956769325	1061.19995117188
1416.87293309359	1055
1417.51621528021	1062
1418.15941426067	1056.40002441406
1418.80253004253	1058.40002441406
1419.44556263333	1054.80004882813
1420.08851204063	1058.80004882813
1420.731378272	1061.59997558594
1421.37416133497	1062.40002441406
1422.0168612371	1059.40002441406
1422.65947798596	1064.40002441406
1423.30201158908	1059.80004882813
1423.94446205403	1059.19995117188
1424.58682938835	1053.19995117188
1425.2291135996	1053.80004882813
1425.87131469532	1058.59997558594
1426.51343268308	1064.59997558594
1427.15546757042	1059.59997558594
1427.79741936488	1060.19995117188
1428.43928807403	1069.19995117188
1429.0810737054	1063.80004882813
1429.72277626656	1061.80004882813
1430.36439576504	1050.59997558594
1431.00593220841	1061.59997558594
1431.64738560419	1049.59997558594
1432.28875595995	1043
1432.93004328324	1044.80004882813
1433.57124758159	1043.40002441406
1434.21236886255	1048.80004882813
1434.85340713368	1047.80004882813
1435.49436240252	1050.19995117188
1436.13523467661	1048.59997558594
1436.77602396349	1057.59997558594
1437.41673027073	1054.19995117188
1438.05735360585	1059
1438.69789397641	1053.40002441406
1439.33835138994	1059.59997558594
1439.978725854	1059.19995117188
1440.61901737612	1060.80004882813
1441.25922596385	1061.59997558594
1441.89935162473	1062.19995117188
1442.53939436631	1060
1443.17935419612	1048.40002441406
1443.81923112171	1054.19995117188
1444.45902515061	1046.80004882813
1445.09873629038	1050.80004882813
1445.73836454854	1050.40002441406
1446.37790993265	1052.19995117188
1447.01737245024	1050.19995117188
1447.65675210885	1054.19995117188
1448.29604891602	1055.80004882813
1448.93526287928	1058
1449.57439400618	1058.19995117188
1450.21344230426	1057.19995117188
1450.85240778105	1051
1451.49129044409	1054.80004882813
1452.13009030092	1049.59997558594
1452.76880735907	1045
1453.40744162608	1053.40002441406
1454.04599310949	1051.40002441406
1454.68446181683	1053
1455.32284775564	1054.19995117188
1455.96115093345	1049
1456.5993713578	1055.40002441406
1457.23750903623	1050.59997558594
1457.87556397626	1049
1458.51353618543	1045.19995117188
1459.15142567127	1047.59997558594
1459.78923244132	1048.80004882813
1460.42695650311	1049.19995117188
1461.06459786417	1041.59997558594
1461.70215653203	1048.80004882813
1462.33963251423	1042.80004882813
1462.97702581829	1047.19995117188
1463.61433645175	1046.40002441406
1464.25156442214	1049
1464.88870973699	1046
1465.52577240382	1046.40002441406
1466.16275243017	1044.40002441406
1466.79964982356	1041.19995117188
1467.43646459154	1046.59997558594
1468.07319674161	1044
1468.70984628132	1048
1469.34641321818	1043.40002441406
1469.98289755974	1049
1470.6192993135	1049.40002441406
1471.25561848701	1053.80004882813
1471.89185508779	1056.40002441406
1472.52800912336	1050
1473.16408060124	1053.80004882813
1473.80006952897	1055.59997558594
1474.43597591407	1049
1475.07179976406	1047.40002441406
1475.70754108647	1049.19995117188
1476.34319988883	1050.19995117188
1476.97877617865	1055.40002441406
1477.61426996345	1055.80004882813
1478.24968125077	1048.59997558594
1478.88501004812	1049.19995117188
1479.52025636303	1061.40002441406
1480.15542020302	1055.19995117188
1480.79050157561	1057.40002441406
1481.42550048832	1053.80004882813
1482.06041694867	1060.80004882813
1482.69525096418	1053.80004882813
1483.33000254237	1058.19995117188
1483.96467169077	1053.19995117188
1484.59925841689	1049.59997558594
1485.23376272825	1049.19995117188
1485.86818463237	1044.40002441406
1486.50252413677	1050.40002441406
1487.13678124896	1053.80004882813
1487.77095597646	1046.59997558594
1488.4050483268	1042.19995117188
1489.03905830749	1038.40002441406
1489.67298592604	1038.59997558594
1490.30683118996	1046.80004882813
1490.9405941068	1042.59997558594
1491.57427468403	1044.59997558594
1492.2078729292	1047.40002441406
1492.84138884981	1044.59997558594
1493.47482245338	1047.80004882813
1494.10817374742	1051
1494.74144273944	1047.40002441406
1495.37462943696	1049.40002441406
1496.0077338475	1056
1496.64075597856	1047.40002441406
1497.27369583765	1046.19995117188
1497.9065534323	1044.59997558594
1498.53932877001	1047.59997558594
1499.17202185829	1043.40002441406
1499.80463270465	1046.40002441406
1500.43716131661	1042.40002441406
1501.06960770167	1033.80004882813
1501.70197186735	1037.19995117188
1502.33425382116	1051.19995117188
1502.96645357059	1052
1503.59857112317	1057.80004882813
1504.23060648641	1056.59997558594
1504.8625596678	1061.59997558594
1505.49443067486	1061.80004882813
1506.1262195151	1055.19995117188
1506.75792619602	1065.80004882813
1507.38955072513	1056
1508.02109310993	1063.59997558594
1508.65255335794	1060.40002441406
1509.28393147666	1055.80004882813
1509.91522747359	1055.19995117188
1510.54644135624	1053.59997558594
1511.17757313212	1053.80004882813
1511.80862280872	1057
1512.43959039356	1072.80004882813
1513.07047589413	1070.19995117188
1513.70127931795	1060.80004882813
1514.33200067251	1066.80004882813
1514.96263996531	1061.19995117188
1515.59319720386	1055.59997558594
1516.22367239567	1052.59997558594
1516.85406554822	1051.59997558594
1517.48437666903	1051.19995117188
1518.1146057656	1054.80004882813
1518.74475284542	1050.59997558594
1519.374817916	1045.40002441406
1520.00480098483	1046.19995117188
1520.63470205942	1046.80004882813
1521.26452114726	1036.19995117188
1521.89425825586	1035.80004882813
1522.52391339271	1039.40002441406
1523.15348656531	1039
1523.78297778116	1043.40002441406
1524.41238704775	1034.59997558594
1525.04171437259	1043.59997558594
1525.67095976317	1041.19995117188
1526.30012322699	1037.80004882813
1526.92920477154	1041.40002441406
1527.55820440432	1033.80004882813
1528.18712213283	1027.80004882813
1528.81595796455	1037
1529.44471190699	1032.59997558594
1530.07338396764	1031
1530.70197415399	1036.40002441406
1531.33048247353	1032.40002441406
1531.95890893377	1037.59997558594
1532.58725354219	1036.19995117188
1533.21551630629	1045
1533.84369723356	1042.59997558594
1534.47179633148	1053.80004882813
1535.09981360757	1045.80004882813
1535.72774906929	1053
1536.35560272415	1049
1536.98337457963	1051.19995117188
1537.61106464323	1048.19995117188
1538.23867292243	1049.19995117188
1538.86619942473	1046.40002441406
1539.49364415762	1050.59997558594
1540.12100712857	1047.59997558594
1540.74828834509	1043.19995117188
1541.37548781466	1044
1542.00260554478	1041.40002441406
1542.62964154291	1045.80004882813
1543.25659581655	1047.59997558594
1543.8834683732	1041.80004882813
1544.51025922034	1052.40002441406
1545.13696836544	1045.40002441406
1545.76359581601	1045.40002441406
1546.39014157952	1031.80004882813
1547.01660566345	1040.40002441406
1547.64298807531	1038.59997558594
1548.26928882255	1038.59997558594
1548.89550791269	1035.80004882813
1549.52164535318	1036.80004882813
1550.14770115153	1035.80004882813
1550.77367531521	1035.19995117188
1551.39956785171	1037.59997558594
1552.0253787685	1033.59997558594
1552.65110807307	1032.40002441406
1553.2767557729	1034
1553.90232187548	1036.80004882813
1554.52780638828	1033.59997558594
1555.15320931879	1044.40002441406
1555.77853067447	1039.40002441406
1556.40377046282	1036.40002441406
1557.02892869132	1040
1557.65400536744	1033
1558.27900049866	1036
1558.90391409247	1038.40002441406
1559.52874615633	1033
1560.15349669773	1039.80004882813
1560.77816572414	1037.59997558594
1561.40275324305	1035.59997558594
1562.02725926192	1040.19995117188
1562.65168378824	1043.80004882813
1563.27602682948	1044.59997558594
1563.90028839311	1045.80004882813
1564.52446848662	1037.19995117188
1565.14856711748	1041.19995117188
1565.77258429316	1041.19995117188
1566.39652002113	1046.80004882813
1567.02037430887	1036.59997558594
1567.64414716387	1039.59997558594
1568.26783859357	1037
1568.89144860547	1037
1569.51497720703	1037.40002441406
1570.13842440573	1036.80004882813
1570.76179020904	1039
1571.38507462442	1041
1572.00827765936	1036
1572.63139932132	1038
1573.25443961777	1047.59997558594
1573.87739855618	1035.80004882813
1574.50027614402	1036
1575.12307238877	1038.80004882813
1575.74578729789	1049
1576.36842087885	1042.80004882813
1576.99097313912	1037.80004882813
1577.61344408616	1047.40002441406
1578.23583372745	1037.80004882813
1578.85814207046	1036.80004882813
1579.48036912264	1039.19995117188
1580.10251489147	1039.40002441406
1580.72457938441	1033
1581.34656260893	1032.59997558594
1581.9684645725	1034.80004882813
1582.59028528258	1034
1583.21202474663	1037.80004882813
1583.83368297212	1031
1584.45525996652	1034
1585.07675573728	1027.59997558594
1585.69817029188	1027.19995117188
1586.31950363778	1032
1586.94075578243	1035.40002441406
1587.5619267333	1029.80004882813
1588.18301649786	1025.80004882813
1588.80402508357	1026.40002441406
1589.42495249788	1026.59997558594
1590.04579874826	1021
1590.66656384217	1021.20001220703
1591.28724778707	1019.79998779297
1591.90785059042	1024.59997558594
1592.52837225968	1020.59997558594
1593.14881280232	1019.20001220703
1593.76917222578	1018.20001220703
1594.38945053753	1019.59997558594
1595.00964774502	1015.79998779297
1595.62976385573	1020.20001220703
1596.24979887709	1020
1596.86975281657	1032.59997558594
1597.48962568164	1018.40002441406
1598.10941747974	1026.59997558594
1598.72912821832	1032.59997558594
1599.34875790486	1026.40002441406
1599.9683065468	1023.20001220703
1600.58777415159	1019.40002441406
1601.2071607267	1020.20001220703
1601.82646627958	1027.19995117188
1602.44569081769	1021
1603.06483434846	1021.79998779297
1603.68389687937	1020.20001220703
1604.30287841786	1018.40002441406
1604.92177897139	1023.59997558594
1605.54059854741	1009.59997558594
1606.15933715337	1017.59997558594
1606.77799479672	1014.79998779297
1607.39657148492	1022.79998779297
1608.01506722542	1022
1608.63348202566	1009.59997558594
1609.2518158931	1014
1609.87006883519	1012.59997558594
1610.48824085939	1012.79998779297
1611.10633197312	1021.79998779297
1611.72434218386	1014.79998779297
1612.34227149904	1018.59997558594
1612.96011992612	1018.40002441406
1613.57788747254	1018.40002441406
1614.19557414575	1015.40002441406
1614.8131799532	1013.20001220703
1615.43070490234	1016.59997558594
1616.04814900061	1014.20001220703
1616.66551225545	1010.40002441406
1617.28279467433	1010
1617.89999626467	1002
1618.51711703393	1007.59997558594
1619.13415698955	1007.79998779297
1619.75111613898	1006.40002441406
1620.36799448966	1009.59997558594
1620.98479204903	1015.20001220703
1621.60150882455	1009.40002441406
1622.21814482364	1017.40002441406
1622.83470005376	1021.59997558594
1623.45117452235	1019.59997558594
1624.06756823685	1014.40002441406
1624.6838812047	1017.79998779297
1625.30011343335	1015.40002441406
1625.91626493022	1014.79998779297
1626.53233570278	1019.40002441406
1627.14832575845	1017.20001220703
1627.76423510468	1014
1628.38006374891	1014.40002441406
1628.99581169857	1009.79998779297
1629.61147896111	1012
1630.22706554397	1017.79998779297
1630.84257145457	1008.59997558594
1631.45799670038	1014
1632.07334128881	1010.20001220703
1632.6886052273	1017
1633.3037885233	1011.20001220703
1633.91889118425	1010.40002441406
1634.53391321757	1012.40002441406
1635.1488546307	1010.59997558594
1635.76371543108	1011.59997558594
1636.37849562616	1007.79998779297
1636.99319522335	1004.40002441406
1637.60781423009	1001.20001220703
1638.22235265383	1006.59997558594
1638.83681050198	994.799987792969
1639.451187782	1007.59997558594
1640.0654845013	1010
1640.67970066734	1011.20001220703
1641.29383628752	1010.40002441406
1641.9078913693	1008.59997558594
1642.5218659201	1010.59997558594
1643.13575994735	1012
1643.74957345849	1008.79998779297
1644.36330646094	1011.40002441406
1644.97695896213	1011.59997558594
1645.59053096951	1013
1646.20402249049	1012.79998779297
1646.8174335325	1012.79998779297
1647.43076410298	1019
1648.04401420935	1021.40002441406
1648.65718385905	1018.20001220703
1649.2702730595	1012.20001220703
1649.88328181812	1016.40002441406
1650.49621014236	1024
1651.10905803963	1019.40002441406
1651.72182551735	1013
1652.33451258297	1017
1652.9471192439	1017.40002441406
1653.55964550757	1014.79998779297
1654.1720913814	1010.79998779297
1654.78445687283	1017.79998779297
1655.39674198926	1010.59997558594
1656.00894673814	1008
1656.62107112688	1001
1657.23311516291	1003.40002441406
1657.84507885365	999.799987792969
1658.45696220652	1002
1659.06876522895	997.799987792969
1659.68048792835	1000.59997558594
1660.29213031217	996.799987792969
1660.90369238779	995.400024414063
1661.51517416267	992.400024414063
1662.12657564421	996.200012207031
1662.73789683984	995.400024414063
1663.34913775697	995
1663.96029840303	993.200012207031
1664.57137878544	994.799987792969
1665.18237891161	992
1665.79329878897	993.400024414063
1666.40413842493	995.599975585938
1667.01489782691	991
1667.62557700233	992.799987792969
1668.2361759586	988.400024414063
1668.84669470315	982.599975585938
1669.4571332434	983.200012207031
1670.06749158675	980.799987792969
1670.67776974062	985.400024414063
1671.28796771243	981.799987792969
1671.8980855096	982
1672.50812313954	978.599975585938
1673.11808060967	979.799987792969
1673.72795792739	977.599975585938
1674.33775510013	977.799987792969
1674.9474721353	976.599975585938
1675.55710904031	978.799987792969
1676.16666582257	981
1676.7761424895	975.400024414063
1677.38553904851	984.200012207031
1677.99485550702	981.200012207031
1678.60409187243	980.599975585938
1679.21324815215	977.599975585938
1679.8223243536	980.599975585938
1680.43132048419	982.200012207031
1681.04023655132	973
1681.64907256241	977.599975585938
1682.25782852487	982.200012207031
1682.86650444611	976
1683.47510033353	975.599975585938
1684.08361619455	973.599975585938
1684.69205203657	972.599975585938
1685.300407867	978.200012207031
1685.90868369325	976.400024414063
1686.51687952272	981.799987792969
1687.12499536283	978.400024414063
1687.73303122098	978
1688.34098710457	973.599975585938
1688.94886302101	976.599975585938
1689.55665897772	971
1690.16437498208	969.799987792969
1690.77201104152	966.400024414063
1691.37956716342	970.200012207031
1691.9870433552	969
1692.59443962426	970.799987792969
1693.20175597801	973.400024414063
1693.80899242384	970.400024414063
1694.41614896916	972.799987792969
1695.02322562138	970.200012207031
1695.63022238789	970
1696.23713927609	972
1696.8439762934	974
1697.4507334472	969
1698.05741074491	970.599975585938
1698.66400819391	965.599975585938
1699.27052580161	966.599975585938
1699.87696357542	974
1700.48332152272	970.799987792969
1701.08959965092	972.599975585938
1701.69579796742	968.200012207031
1702.30191647962	969.200012207031
1702.90795519491	966.200012207031
1703.51391412069	965
1704.11979326437	962.400024414063
1704.72559263332	965
1705.33131223496	968.400024414063
1705.93695207668	965.799987792969
1706.54251216588	968.200012207031
1707.14799250994	969.400024414063
1707.75339311628	967.599975585938
1708.35871399227	958.200012207031
1708.96395514532	967.400024414063
1709.56911658282	963
