634.948122577771	1145
635.690341530823	1148.19995117188
636.43246851086	1158.59997558594
637.174503525845	1158.59997558594
637.916446583745	1168.59997558594
638.658297692538	1176.19995117188
639.400056860179	1175.19995117188
640.141724094637	1176.19995117188
640.883299403885	1178.59997558594
641.62478279588	1167.40002441406
642.366174278594	1160.19995117188
643.107473859989	1158.19995117188
643.848681548029	1154
644.589797350679	1154
645.330821275901	1151.80004882813
646.071753331665	1159.19995117188
646.812593525922	1158.40002441406
647.553341866646	1153.80004882813
648.293998361798	1170
649.03456301933	1166.59997558594
649.775035847216	1167.19995117188
650.515416853409	1166.19995117188
651.255706045874	1179
651.995903432568	1172.19995117188
652.736009021453	1168
653.476022820486	1169.59997558594
654.215944837629	1173
654.955775080842	1165.80004882813
655.695513558081	1165.40002441406
656.435160277301	1162.80004882813
657.174715246465	1166.19995117188
657.914178473527	1166
658.653549966449	1171.40002441406
659.392829733176	1165.80004882813
660.132017781678	1168.59997558594
660.871114119901	1168.19995117188
661.610118755803	1175
662.349031697343	1188.40002441406
663.087852952468	1192.40002441406
663.826582529139	1186.59997558594
664.565220435305	1190.19995117188
665.30376667892	1180.19995117188
666.04222126794	1184.19995117188
666.780584210316	1174.40002441406
667.518855514	1175.80004882813
668.25703518694	1169.59997558594
668.995123237096	1172.59997558594
669.733119672413	1169.40002441406
670.471024500842	1163.19995117188
671.208837730333	1171.19995117188
671.946559368839	1184.40002441406
672.684189424308	1179.59997558594
673.421727904689	1184.80004882813
674.159174817929	1179.19995117188
674.896530171977	1175.40002441406
675.633793974786	1174.80004882813
676.370966234295	1178.80004882813
677.108046958461	1191.19995117188
677.845036155219	1181.80004882813
678.581933832528	1178
679.318739998323	1187
680.055454660558	1185.40002441406
680.792077827172	1172
681.528609506116	1183.40002441406
682.265049705331	1170.80004882813
683.001398432759	1179
683.737655696349	1177.59997558594
684.47382150404	1181.19995117188
685.20989586378	1182.59997558594
685.945878783503	1179.40002441406
686.68177027116	1174.40002441406
687.417570334688	1175.19995117188
688.153278982032	1176.40002441406
688.888896221129	1187
689.624422059921	1191
690.359856506349	1183.40002441406
691.095199568354	1193.19995117188
691.830451253874	1180
692.565611570844	1184.19995117188
693.300680527212	1184.80004882813
694.03565813091	1185
694.770544389877	1192.59997558594
695.505339312053	1188.80004882813
696.240042905372	1202.19995117188
696.974655177772	1190.40002441406
697.70917613719	1187.59997558594
698.443605791561	1187
699.177944148826	1180.59997558594
699.912191216909	1173.40002441406
700.646347003755	1177
701.380411517295	1178.80004882813
702.114384765465	1189.40002441406
702.848266756195	1185.19995117188
703.582057497421	1200.40002441406
704.315756997074	1190
705.049365263089	1196.19995117188
705.782882303399	1193.59997558594
706.516308125936	1198.19995117188
707.249642738626	1183.40002441406
707.982886149403	1184.19995117188
708.716038366204	1190.40002441406
709.449099396949	1188
710.182069249577	1186.40002441406
710.914947932009	1187.80004882813
711.647735452181	1175.19995117188
712.380431818022	1176.59997558594
713.113037037454	1177.59997558594
713.845551118411	1179
714.577974068818	1189.19995117188
715.310305896604	1189
716.042546609694	1186.40002441406
716.774696216013	1182.40002441406
717.506754723493	1182.40002441406
718.238722140053	1188.59997558594
718.970598473624	1189.59997558594
719.702383732127	1187.19995117188
720.43407792349	1193.19995117188
721.165681055634	1196.59997558594
721.897193136486	1182
722.628614173966	1203
723.359944175997	1195.80004882813
724.091183150505	1203.19995117188
724.822331105412	1200
725.553388048638	1185
726.284353988106	1180.59997558594
727.015228931734	1180.80004882813
727.746012887449	1182
728.476705863162	1186.80004882813
729.207307866803	1182
729.937818906289	1178.59997558594
730.668238989535	1182.19995117188
731.398568124459	1175.80004882813
732.128806318986	1172.80004882813
732.858953581034	1186
733.589009918514	1186
734.318975339348	1188.80004882813
735.048849851452	1190
735.778633462744	1194.59997558594
736.508326181137	1184.19995117188
737.237928014549	1187.40002441406
737.967438970897	1204.19995117188
738.696859058095	1203
739.426188284054	1185
740.155426656692	1180.59997558594
740.884574183922	1190.80004882813
741.613630873659	1193.40002441406
742.342596733815	1194.80004882813
743.071471772302	1203.40002441406
743.800255997034	1191.19995117188
744.528949415921	1195.40002441406
745.257552036877	1188.19995117188
745.986063867811	1183.59997558594
746.714484916638	1190.59997558594
747.442815191261	1186.59997558594
748.171054699597	1188
748.899203449554	1189
749.627261449039	1191.59997558594
750.355228705966	1190.80004882813
751.083105228239	1189.19995117188
751.810891023765	1188.19995117188
752.538586100459	1182
753.266190466218	1180
753.99370412896	1187.19995117188
754.721127096582	1189.19995117188
755.448459377	1186.19995117188
756.175700978114	1182.80004882813
756.902851907828	1181.59997558594
757.629912174055	1189.80004882813
758.356881784688	1197.59997558594
759.083760747639	1184
759.810549070817	1197.19995117188
760.537246762113	1194.19995117188
761.263853829442	1191
761.990370280698	1194
762.716796123791	1180
763.443131366618	1185.59997558594
764.169376017082	1185.40002441406
764.895530083085	1191.19995117188
765.621593572527	1202.59997558594
766.347566493312	1207.40002441406
767.073448853336	1210.59997558594
767.799240660502	1213.59997558594
768.524941922707	1231.59997558594
769.250552647854	1233.40002441406
769.976072843836	1238.40002441406
770.701502518551	1246
771.426841679905	1250.59997558594
772.152090335793	1242.19995117188
772.877248494107	1254.40002441406
773.602316162747	1246
774.327293349609	1246.19995117188
775.052180062592	1234.80004882813
775.776976309589	1231.19995117188
776.501682098496	1232
777.226297437206	1226.40002441406
777.950822333616	1232.19995117188
778.675256795621	1224.40002441406
779.399600831111	1217.80004882813
780.123854447983	1226
780.84801765413	1215.59997558594
781.572090457441	1216
782.296072865811	1204.19995117188
783.019964887131	1196
783.743766529297	1190
784.467477800194	1197.19995117188
785.191098707719	1195.19995117188
785.914629259756	1196.19995117188
786.638069464194	1193.19995117188
787.361419328932	1201.80004882813
788.084678861852	1201.80004882813
788.807848070845	1201
789.530926963798	1196.40002441406
790.253915548602	1187.19995117188
790.976813833144	1188.19995117188
791.699621825307	1193
792.422339532986	1209.80004882813
793.144966964061	1197
793.86750412642	1185.59997558594
794.589951027946	1197.19995117188
795.312307676536	1192.40002441406
796.03457408006	1187
796.756750246417	1182.40002441406
797.478836183477	1179.80004882813
798.200831899137	1191.59997558594
798.92273740127	1172.59997558594
799.644552697769	1182.19995117188
800.36627779651	1193
801.087912705374	1177.59997558594
801.809457432251	1181.19995117188
802.530911985017	1183.80004882813
803.252276371558	1178
803.973550599748	1181.80004882813
804.694734677472	1171.80004882813
805.415828612611	1174.59997558594
806.136832413045	1191
806.857746086646	1191
807.578569641305	1195.40002441406
808.299303084892	1188.40002441406
809.019946425289	1199.80004882813
809.740499670372	1194.19995117188
810.460962828022	1211
811.181335906114	1199.40002441406
811.901618912524	1194
812.621811855131	1193.80004882813
813.341914741809	1189
814.061927580433	1192
814.781850378881	1185.80004882813
815.501683145025	1184.19995117188
816.221425886743	1198.59997558594
816.941078611903	1201.19995117188
817.660641328387	1195.19995117188
818.380114044065	1208.59997558594
819.099496766808	1199.19995117188
819.818789504492	1198.80004882813
820.53799226499	1194
821.257105056168	1191.59997558594
821.976127885904	1200.40002441406
822.695060762064	1188.19995117188
823.413903692525	1194
824.132656685151	1198.59997558594
824.851319747817	1188.80004882813
825.569892888388	1194.59997558594
826.288376114739	1198
827.006769434737	1200.59997558594
827.725072856249	1182.59997558594
828.443286387142	1188.59997558594
829.161410035285	1183
829.87944380855	1175.59997558594
830.597387714798	1185.19995117188
831.315241761898	1182.80004882813
832.033005957715	1187.80004882813
832.750680310119	1180.59997558594
833.468264826969	1181.40002441406
834.18575951614	1195
834.903164385486	1183.59997558594
835.620479442878	1195
836.337704696181	1199.40002441406
837.054840153255	1198.80004882813
837.771885821962	1195
838.488841710172	1192.59997558594
839.20570782574	1193.19995117188
839.922484176531	1197.59997558594
840.639170770409	1194.19995117188
841.355767615231	1192.80004882813
842.072274718864	1189
842.788692089164	1189.59997558594
843.505019733993	1189.19995117188
844.221257661209	1191.80004882813
844.937405878676	1198
845.65346439425	1192.80004882813
846.369433215789	1190.80004882813
847.085312351156	1193.19995117188
847.801101808205	1199.80004882813
848.516801594793	1196.59997558594
849.232411718781	1185
849.947932188021	1183.80004882813
850.663363010376	1193.40002441406
851.378704193698	1187
852.093955745842	1185.80004882813
852.809117674669	1181
853.524189988028	1185.80004882813
854.239172693778	1185.19995117188
854.954065799768	1182.19995117188
855.668869313857	1185.80004882813
856.383583243899	1179.19995117188
857.098207597743	1185.59997558594
857.812742383246	1189
858.527187608255	1188.40002441406
859.241543280628	1184.59997558594
859.955809408218	1186
860.669985998868	1180.19995117188
861.384073060437	1189.80004882813
862.098070600772	1191.40002441406
862.811978627724	1194.80004882813
863.52579714914	1186.40002441406
864.239526172873	1194.59997558594
864.953165706776	1198.40002441406
865.666715758687	1192.80004882813
866.380176336464	1188.59997558594
867.093547447951	1185
867.806829100996	1187.40002441406
868.520021303444	1187.80004882813
869.233124063149	1180.40002441406
869.94613738795	1180.59997558594
870.659061285693	1186.40002441406
871.37189576423	1183.19995117188
872.084640831403	1189.59997558594
872.797296495057	1193.59997558594
873.509862763039	1187.59997558594
874.22233964319	1181
874.934727143353	1178.80004882813
875.647025271374	1174.59997558594
876.359234035097	1176.59997558594
877.071353442361	1177.59997558594
877.783383501015	1169.59997558594
878.495324218895	1182.40002441406
879.207175603844	1187.19995117188
879.918937663705	1182.19995117188
880.630610406318	1194
881.342193839524	1199
882.053687971161	1195.59997558594
882.765092809069	1180
883.476408361091	1187.40002441406
884.187634635066	1190.40002441406
884.898771638828	1185.80004882813
885.609819380221	1182
886.320777867076	1184.80004882813
887.031647107236	1186.40002441406
887.742427108536	1182
888.453117878816	1176.19995117188
889.16371942591	1178.19995117188
889.874231757652	1173.40002441406
890.584654881883	1180
891.294988806434	1181.19995117188
892.005233539141	1191
892.715389087837	1179.19995117188
893.42545546036	1181.19995117188
894.135432664543	1177.19995117188
894.845320708216	1175
895.555119599216	1182.40002441406
896.264829345375	1177.19995117188
896.974449954526	1168.40002441406
897.683981434496	1174.40002441406
898.393423793125	1171.59997558594
899.102777038235	1171.59997558594
899.812041177664	1168.19995117188
900.521216219239	1175.59997558594
901.230302170793	1172.19995117188
901.939299040155	1177.40002441406
902.64820683515	1180.40002441406
903.357025563612	1175.19995117188
904.065755233368	1168.19995117188
904.774395852247	1161.59997558594
905.482947428076	1167.19995117188
906.191409968682	1167.80004882813
906.899783481897	1171.59997558594
907.608067975538	1174.40002441406
908.316263457443	1177.40002441406
909.02436993543	1194
909.732387417327	1195.19995117188
910.440315910959	1193
911.148155424154	1190.80004882813
911.855905964731	1184.80004882813
912.563567540521	1191.80004882813
913.271140159339	1181.19995117188
913.978623829017	1182.40002441406
914.686018557374	1181.59997558594
915.393324352237	1187.19995117188
916.100541221421	1175.19995117188
916.807669172752	1178
917.514708214054	1177.80004882813
918.221658353142	1181.80004882813
918.928519597843	1184.80004882813
919.635291955976	1176.40002441406
920.341975435358	1174.40002441406
921.048570043813	1161.19995117188
921.75507578916	1170.40002441406
922.461492679212	1177.80004882813
923.167820721795	1184
923.874059924726	1188.19995117188
924.58021029582	1187.59997558594
925.286271842893	1182.40002441406
925.992244573769	1185.59997558594
926.698128496262	1185.80004882813
927.403923618184	1190.19995117188
928.109629947355	1186.19995117188
928.815247491593	1191.80004882813
929.520776258708	1187.40002441406
930.226216256519	1181.80004882813
930.931567492841	1187
931.636829975482	1187.40002441406
932.342003712263	1183.80004882813
933.047088710995	1181.80004882813
933.752084979491	1179.40002441406
934.456992525564	1182
935.161811357024	1182.59997558594
935.866541481688	1187.80004882813
936.571182907363	1189
937.275735641861	1180.19995117188
937.980199692995	1169.19995117188
938.684575068572	1164.19995117188
939.388861776411	1166.19995117188
940.093059824311	1159.59997558594
940.797169220085	1165.59997558594
941.501189971544	1170.40002441406
942.205122086495	1170.59997558594
942.908965572751	1174.40002441406
943.612720438111	1176.80004882813
944.316386690391	1182.19995117188
945.019964337391	1183.80004882813
945.723453386924	1168.19995117188
946.426853846795	1171
947.130165724808	1161.80004882813
947.83338902877	1157.80004882813
948.536523766488	1164.59997558594
949.239569945764	1163.80004882813
949.942527574402	1165
950.64539666021	1173.80004882813
951.348177210993	1166.59997558594
952.050869234548	1168.59997558594
952.753472738683	1161.59997558594
953.455987731199	1162.19995117188
954.158414219898	1161
954.860752212587	1161.59997558594
955.563001717061	1165.59997558594
956.265162741124	1165.19995117188
956.967235292576	1159.80004882813
957.669219379224	1159
958.371115008857	1158.19995117188
959.072922189283	1166.40002441406
959.774640928301	1165
960.476271233708	1159.19995117188
961.177813113301	1163.59997558594
961.879266574882	1160.19995117188
962.580631626248	1162
963.281908275194	1163.19995117188
963.98309652952	1159.19995117188
964.684196397022	1161.80004882813
965.3852078855	1164.59997558594
966.086131002745	1158.40002441406
966.786965756555	1161.59997558594
967.487712154726	1158.59997558594
968.188370205055	1164
968.888939915331	1157.40002441406
969.589421293352	1155.80004882813
970.289814346909	1158.80004882813
970.990119083801	1162.80004882813
971.690335511819	1162.40002441406
972.39046363875	1168
973.090503472398	1177.59997558594
973.790455020545	1158.59997558594
974.490318290987	1161.80004882813
975.190093291516	1171.19995117188
975.889780029923	1167.40002441406
976.589378513998	1172.80004882813
977.288888751527	1165
977.988310750308	1172.40002441406
978.687644518122	1170.40002441406
979.386890062767	1172.19995117188
980.086047392025	1174
980.785116513689	1167
981.484097435542	1169.19995117188
982.182990165377	1156.59997558594
982.88179471098	1164
983.580511080137	1167.40002441406
984.279139280632	1167
984.977679320253	1168.19995117188
985.67613120679	1160
986.374494948027	1176.40002441406
987.072770551745	1171.40002441406
987.770958025731	1168.80004882813
988.469057377772	1173.19995117188
989.167068615649	1168
989.864991747145	1165.80004882813
990.562826780047	1159.80004882813
991.260573722134	1154.40002441406
991.958232581195	1147.80004882813
992.655803365003	1161.59997558594
993.353286081346	1155.40002441406
994.050680738006	1158.80004882813
994.74798734276	1164.40002441406
995.44520590339	1165
996.142336427681	1156.80004882813
996.839378923407	1151.19995117188
997.536333398348	1159.40002441406
998.233199860289	1152.40002441406
998.929978317004	1158.80004882813
999.626668776274	1157.59997558594
1000.32327124587	1158.59997558594
1001.01978573359	1158.80004882813
1001.71621224718	1164.59997558594
1002.41255079445	1162.40002441406
1003.10880138315	1157.59997558594
1003.80496402107	1154.59997558594
1004.50103871599	1156.59997558594
1005.19702547567	1171.40002441406
1005.8929243079	1158.80004882813
1006.58873522045	1169.59997558594
1007.2844582211	1163.59997558594
1007.98009331761	1164.40002441406
1008.67564051776	1158.40002441406
1009.37109982933	1160.80004882813
1010.06647126009	1154.19995117188
1010.7617548178	1157
1011.45695051026	1162.40002441406
1012.15205834522	1155
1012.84707833045	1153.59997558594
1013.54201047373	1162.59997558594
1014.23685478284	1161
1014.93161126553	1172.40002441406
1015.62627992959	1180.40002441406
1016.32086078277	1164
1017.01535383285	1166.80004882813
1017.70975908761	1166.80004882813
1018.40407655479	1164
1019.09830624219	1154.19995117188
1019.79244815755	1165.80004882813
1020.48650230866	1152.40002441406
1021.18046870328	1155.59997558594
1021.87434734917	1169
1022.56813825411	1159.19995117188
1023.26184142584	1161.40002441406
1023.95545687216	1164.19995117188
1024.64898460082	1165
1025.34242461957	1154.80004882813
1026.0357769362	1161
1026.72904155846	1148.59997558594
1027.42221849412	1151.80004882813
1028.11530775094	1152.40002441406
1028.80830933668	1150.59997558594
1029.50122325911	1155.19995117188
1030.19404952599	1161.40002441406
1030.88678814508	1155
1031.57943912414	1151.80004882813
1032.27200247093	1156
1032.96447819323	1158.40002441406
1033.65686629878	1149.80004882813
1034.34916679534	1155.19995117188
1035.04137969068	1155.80004882813
1035.73350499256	1155.19995117188
1036.42554270874	1159.40002441406
1037.11749284697	1158
1037.80935541501	1151.19995117188
1038.50113042062	1156
1039.19281787156	1157.59997558594
1039.88441777559	1160.40002441406
1040.57593014046	1154.80004882813
1041.26735497393	1142
1041.95869228376	1151.80004882813
1042.6499420777	1154.59997558594
1043.3411043635	1157.59997558594
1044.03217914893	1157.80004882813
1044.72316644174	1152
1045.41406624968	1152
1046.1048785805	1154.80004882813
1046.79560344197	1148.80004882813
1047.48624084182	1153.19995117188
1048.17679078783	1145.19995117188
1048.86725328774	1149.40002441406
1049.55762834929	1149
1050.24791598025	1154.80004882813
1050.93811618837	1151
1051.62822898139	1153.59997558594
1052.31825436707	1146.59997558594
1053.00819235315	1147.19995117188
1053.6980429474	1149.19995117188
1054.38780615755	1145.59997558594
1055.07748199136	1150.40002441406
1055.76707045658	1153
1056.45657156095	1152.19995117188
1057.14598531222	1143.59997558594
1057.83531171814	1148.19995117188
1058.52455078646	1147.19995117188
1059.21370252494	1149.59997558594
1059.90276694129	1152.80004882813
1060.5917440433	1150.40002441406
1061.28063383868	1149.19995117188
1061.9694363352	1154
1062.65815154059	1153.80004882813
1063.34677946261	1156
1064.03532010899	1149
1064.72377348748	1152.59997558594
1065.41213960583	1157.19995117188
1066.10041847177	1152.40002441406
1066.78861009306	1147.59997558594
1067.47671447743	1145.59997558594
1068.16473163263	1142
1068.85266156639	1149.80004882813
1069.54050428647	1147.59997558594
1070.2282598006	1156.40002441406
1070.91592811652	1153.59997558594
1071.60350924198	1150.59997558594
1072.29100318471	1150.59997558594
1072.97840995245	1150.40002441406
1073.66572955295	1145.59997558594
1074.35296199394	1144
1075.04010728316	1136
1075.72716542836	1136
1076.41413643726	1130.19995117188
1077.10102031761	1133.19995117188
1077.78781707715	1128.59997558594
1078.4745267236	1140.40002441406
1079.16114926471	1135.40002441406
1079.84768470822	1134.80004882813
1080.53413306185	1135.59997558594
1081.22049433336	1141.59997558594
1081.90676853046	1138.80004882813
1082.5929556609	1139
1083.27905573241	1145.59997558594
1083.96506875272	1152
1084.65099472957	1147.80004882813
1085.3368336707	1138
1086.02258558383	1147.40002441406
1086.70825047669	1139.19995117188
1087.39382835703	1139.19995117188
1088.07931923257	1139.59997558594
1088.76472311104	1146.40002441406
1089.45004000018	1144
1090.13526990771	1137.80004882813
1090.82041284137	1140.19995117188
1091.50546880889	1138.59997558594
1092.19043781799	1137.80004882813
1092.87531987642	1148.19995117188
1093.56011499188	1156.59997558594
1094.24482317212	1158
1094.92944442486	1144.40002441406
1095.61397875783	1147
1096.29842617876	1137.40002441406
1096.98278669537	1141
1097.6670603154	1136.59997558594
1098.35124704656	1139.19995117188
1099.03534689659	1137.59997558594
1099.71935987322	1142
1100.40328598416	1141.19995117188
1101.08712523713	1141.59997558594
1101.77087763988	1141.59997558594
1102.45454320012	1151.59997558594
1103.13812192557	1137.80004882813
1103.82161382396	1140.80004882813
1104.50501890301	1144.19995117188
1105.18833717045	1132.80004882813
1105.87156863399	1141
1106.55471330137	1140.19995117188
1107.2377711803	1141.59997558594
1107.9207422785	1139
1108.60362660369	1137
1109.2864241636	1141
1109.96913496594	1137.80004882813
1110.65175901844	1134.40002441406
1111.33429632882	1129.19995117188
1112.01674690479	1127.19995117188
1112.69911075408	1139.40002441406
1113.38138788439	1144
1114.06357830346	1135.19995117188
1114.745682019	1144.80004882813
1115.42769903872	1145
1116.10962937035	1148.40002441406
1116.7914730216	1152.80004882813
1117.47323000018	1140.80004882813
1118.15490031382	1150.59997558594
1118.83648397022	1154.40002441406
1119.51798097712	1152.80004882813
1120.1993913422	1156.80004882813
1120.88071507321	1159.40002441406
1121.56195217784	1155.40002441406
1122.24310266381	1143.40002441406
1122.92416653884	1146
1123.60514381064	1147.59997558594
1124.28603448692	1135.40002441406
1124.9668385754	1146.80004882813
1125.64755608378	1140.59997558594
1126.32818701978	1132.80004882813
1127.00873139111	1132.40002441406
1127.68918920548	1129.80004882813
1128.3695604706	1135.40002441406
1129.04984519419	1141.59997558594
1129.73004338394	1141.19995117188
1130.41015504758	1145.40002441406
1131.09018019281	1143.19995117188
1131.77011882734	1147.80004882813
1132.44997095888	1149
1133.12973659514	1148.80004882813
1133.80941574381	1146.59997558594
1134.48900841263	1135.80004882813
1135.16851460927	1135.59997558594
1135.84793434147	1148.40002441406
1136.52726761692	1138.59997558594
1137.20651444333	1140.80004882813
1137.8856748284	1139.40002441406
1138.56474877984	1146
1139.24373630536	1133
1139.92263741265	1138.40002441406
1140.60145210943	1139
1141.28018040339	1133.59997558594
1141.95882230225	1135
1142.6373778137	1134.19995117188
1143.31584694545	1137.40002441406
1143.99422970519	1144
1144.67252610064	1137.59997558594
1145.35073613949	1135.80004882813
1146.02885982944	1149.80004882813
1146.7068971782	1146.19995117188
1147.38484819347	1141
1148.06271288294	1138.40002441406
1148.74049125432	1131.80004882813
1149.41818331531	1136.80004882813
1150.0957890736	1138
1150.77330853689	1136.19995117188
1151.45074171289	1138
1152.12808860928	1131.40002441406
1152.80534923378	1130.59997558594
1153.48252359407	1139
1154.15961169786	1132.59997558594
1154.83661355283	1136.19995117188
1155.51352916669	1133.40002441406
1156.19035854713	1137.80004882813
1156.86710170185	1133.80004882813
1157.54375863855	1132.19995117188
1158.22032936491	1134.80004882813
1158.89681388863	1132.19995117188
1159.57321221741	1132.40002441406
1160.24952435894	1133.19995117188
1160.92575032092	1131.40002441406
1161.60189011103	1124.59997558594
1162.27794373697	1130.80004882813
1162.95391120644	1128.19995117188
1163.62979252712	1134.19995117188
1164.3055877067	1135.80004882813
1164.98129675288	1126.80004882813
1165.65691967336	1130.40002441406
1166.33245647581	1127.19995117188
1167.00790716792	1130.40002441406
1167.6832717574	1120.80004882813
1168.35855025193	1123.59997558594
1169.0337426592	1135
1169.70884898689	1132.19995117188
1170.3838692427	1127
1171.05880343431	1125.19995117188
1171.73365156941	1138
1172.40841365569	1140.19995117188
1173.08308970083	1145
1173.75767971253	1141.40002441406
1174.43218369847	1139.80004882813
1175.10660166633	1144.19995117188
1175.7809336238	1139.59997558594
1176.45517957857	1131.59997558594
1177.12933953832	1135.19995117188
1177.80341351073	1136.40002441406
1178.47740150349	1141.59997558594
1179.15130352429	1147
1179.8251195808	1146.59997558594
1180.49884968071	1143.40002441406
1181.1724938317	1151.80004882813
1181.84605204145	1146.80004882813
1182.51952431766	1144
1183.19291066799	1137
1183.86621110013	1132.80004882813
1184.53942562176	1136.59997558594
1185.21255424057	1131
1185.88559696422	1127.40002441406
1186.55855380041	1128
1187.2314247568	1138
1187.90420984109	1130.59997558594
1188.57690906095	1138.80004882813
1189.24952242405	1140.19995117188
1189.92204993808	1142.80004882813
1190.59449161071	1148.80004882813
1191.26684744962	1144.59997558594
1191.93911746249	1147.80004882813
1192.61130165699	1141.59997558594
1193.28340004081	1143.59997558594
1193.95541262161	1135
1194.62733940707	1132
1195.29918040487	1148.40002441406
1195.97093562269	1136.40002441406
1196.64260506819	1141.19995117188
1197.31418874905	1132.59997558594
1197.98568667295	1139.19995117188
1198.65709884755	1138.19995117188
1199.32842528053	1144.40002441406
1199.99966597957	1136.40002441406
1200.67082095234	1128.80004882813
1201.3418902065	1138.59997558594
1202.01287374974	1130.59997558594
1202.68377158971	1128
1203.3545837341	1127.40002441406
1204.02531019057	1126.59997558594
1204.6959509668	1118.80004882813
1205.36650607045	1133.59997558594
1206.03697550919	1137
1206.70735929069	1133.59997558594
1207.37765742263	1128
1208.04786991266	1131.59997558594
1208.71799676846	1131.19995117188
1209.38803799769	1125.80004882813
1210.05799360803	1135.59997558594
1210.72786360714	1130.80004882813
1211.39764800268	1127.19995117188
1212.06734680233	1121.80004882813
1212.73696001375	1119.80004882813
1213.4064876446	1120.40002441406
1214.07592970255	1122
1214.74528619526	1118.80004882813
1215.4145571304	1110.59997558594
1216.08374251564	1113.40002441406
1216.75284235863	1119
1217.42185666704	1107.80004882813
1218.09078544854	1113.80004882813
1218.75962871078	1120.59997558594
1219.42838646143	1112.80004882813
1220.09705870816	1114
1220.76564545861	1112.59997558594
1221.43414672046	1118.40002441406
1222.10256250136	1117.59997558594
1222.77089280898	1125.59997558594
1223.43913765098	1121.40002441406
1224.107297035	1127.19995117188
1224.77537096873	1122
1225.44335945981	1125
1226.1112625159	1121.59997558594
1226.77908014467	1120.40002441406
1227.44681235376	1127.80004882813
1228.11445915085	1119.19995117188
1228.78202054357	1122.19995117188
1229.44949653961	1123.80004882813
1230.11688714659	1116.80004882813
1230.7841923722	1130.40002441406
1231.45141222407	1119.19995117188
1232.11854670988	1111.80004882813
1232.78559583726	1113
1233.45255961388	1121.59997558594
1234.1194380474	1116.80004882813
1234.78623114546	1114.80004882813
1235.45293891572	1117.40002441406
1236.11956136583	1119
1236.78609850345	1115.59997558594
1237.45255033623	1120.40002441406
1238.11891687182	1125.80004882813
1238.78519811788	1127.80004882813
1239.45139408205	1124
1240.11750477198	1124.19995117188
1240.78353019534	1122.59997558594
1241.44947035976	1120.59997558594
1242.11532527291	1120.80004882813
1242.78109494242	1120.59997558594
1243.44677937595	1112.40002441406
1244.11237858115	1115.80004882813
1244.77789256567	1109.80004882813
1245.44332133715	1114.19995117188
1246.10866490325	1113.40002441406
1246.7739232716	1117
1247.43909644987	1123
1248.10418444569	1115.40002441406
1248.76918726671	1126.80004882813
1249.43410492059	1114.19995117188
1250.09893741496	1104.59997558594
1250.76368475747	1113.40002441406
1251.42834695576	1108.80004882813
1252.09292401749	1108.19995117188
1252.75741595029	1102
1253.42182276182	1095.80004882813
1254.08614445971	1101.59997558594
1254.75038105161	1104.80004882813
1255.41453254515	1107.59997558594
1256.07859894799	1112.80004882813
1256.74258026777	1120.59997558594
1257.40647651213	1114.59997558594
1258.0702876887	1115
1258.73401380514	1110.19995117188
1259.39765486908	1111.40002441406
1260.06121088817	1118.19995117188
1260.72468187004	1115.19995117188
1261.38806782233	1114
1262.05136875269	1110.40002441406
1262.71458466875	1110.59997558594
1263.37771557815	1115.80004882813
1264.04076148854	1114.59997558594
1264.70372240753	1108.40002441406
1265.3665983428	1107.40002441406
1266.02938930195	1109.80004882813
1266.69209529263	1110.19995117188
1267.35471632249	1108.19995117188
1268.01725239914	1107.40002441406
1268.67970353024	1109.80004882813
1269.34206972342	1111.40002441406
1270.00435098631	1114.59997558594
1270.66654732655	1109
1271.32865875177	1108.40002441406
1271.9906852696	1103
1272.65262688768	1105.40002441406
1273.31448361365	1097.80004882813
1273.97625545514	1106.40002441406
1274.63794241978	1108.40002441406
1275.2995445152	1111
1275.96106174903	1108.80004882813
1276.62249412892	1110
1277.28384166248	1110.40002441406
1277.94510435735	1109.19995117188
1278.60628222116	1113.19995117188
1279.26737526155	1113.59997558594
1279.92838348613	1101.40002441406
1280.58930690255	1105.40002441406
1281.25014551842	1102.80004882813
1281.91089934139	1101.59997558594
1282.57156837907	1100.19995117188
1283.2321526391	1099
1283.89265212911	1104.19995117188
1284.55306685671	1099.59997558594
1285.21339682955	1097.40002441406
1285.87364205525	1098.59997558594
1286.53380254142	1090.59997558594
1287.19387829571	1093.80004882813
1287.85386932573	1102.80004882813
1288.51377563911	1095.59997558594
1289.17359724348	1103
1289.83333414646	1094.19995117188
1290.49298635567	1099
1291.15255387874	1109.59997558594
1291.8120367233	1119.19995117188
1292.47143489696	1122.19995117188
1293.13074840736	1111.40002441406
1293.7899772621	1109.19995117188
1294.44912146882	1120.19995117188
1295.10818103513	1117.40002441406
1295.76715596866	1114
1296.42604627704	1107.40002441406
1297.08485196787	1105.19995117188
1297.74357304878	1109.80004882813
1298.4022095274	1103.80004882813
1299.06076141134	1111.40002441406
1299.71922870821	1102.59997558594
1300.37761142565	1118.40002441406
1301.03590957126	1116.59997558594
1301.69412315268	1120.40002441406
1302.3522521775	1108.80004882813
1303.01029665336	1108.59997558594
1303.66825658787	1109.19995117188
1304.32613198865	1102.40002441406
1304.98392286332	1107.80004882813
1305.64162921948	1112.80004882813
1306.29925106476	1111.40002441406
1306.95678840677	1112.19995117188
1307.61424125312	1103
1308.27160961145	1101.40002441406
1308.92889348934	1101.19995117188
1309.58609289443	1105
1310.24320783432	1109.19995117188
1310.90023831664	1110.59997558594
1311.55718434898	1115.59997558594
1312.21404593897	1118.80004882813
1312.87082309421	1119.40002441406
1313.52751582233	1119.40002441406
1314.18412413092	1116.19995117188
1314.84064802761	1107.80004882813
1315.49708752	1108.40002441406
1316.1534426157	1115.80004882813
1316.80971332233	1114
1317.46589964749	1112.40002441406
1318.1220015988	1117.59997558594
1318.77801918386	1119.19995117188
1319.43395241028	1114.40002441406
1320.08980128567	1107.80004882813
1320.74556581764	1114.40002441406
1321.4012460138	1110.19995117188
1322.05684188176	1113.40002441406
1322.71235342911	1109.19995117188
1323.36778066347	1107.19995117188
1324.02312359245	1110.40002441406
1324.67838222365	1114.59997558594
1325.33355656468	1110.40002441406
1325.98864662314	1111
1326.64365240663	1111.40002441406
1327.29857392277	1113.40002441406
1327.95341117915	1108.59997558594
1328.60816418339	1099.59997558594
1329.26283294308	1098.80004882813
1329.91741746582	1102.80004882813
1330.57191775923	1102.19995117188
1331.2263338309	1097.59997558594
1331.88066568843	1097.80004882813
1332.53491333943	1103.40002441406
1333.1890767915	1112
1333.84315605224	1111
1334.49715112925	1106
1335.15106203013	1116.59997558594
1335.80488876249	1100
1336.45863133391	1099.40002441406
1337.112289752	1101.80004882813
1337.76586402437	1105.59997558594
1338.4193541586	1098.19995117188
1339.0727601623	1102.59997558594
1339.72608204306	1101.80004882813
1340.37931980849	1104
1341.03247346617	1109.40002441406
1341.68554302372	1107.80004882813
1342.33852848871	1111.80004882813
1342.99142986876	1105.59997558594
1343.64424717145	1109.80004882813
1344.29698040438	1103.80004882813
1344.94962957515	1111.40002441406
1345.60219469135	1113.19995117188
1346.25467576058	1116.80004882813
1346.90707279042	1122.19995117188
1347.55938578848	1116.40002441406
1348.21161476235	1112.80004882813
1348.86375971962	1113.19995117188
1349.51582066787	1117.80004882813
1350.16779761472	1120.80004882813
1350.81969056774	1113
1351.47149953453	1125.59997558594
1352.12322452269	1122.40002441406
1352.77486553979	1125.59997558594
1353.42642259344	1126.80004882813
1354.07789569122	1131
1354.72928484072	1122.19995117188
1355.38059004953	1142
1356.03181132525	1146
1356.68294867545	1134.19995117188
1357.33400210773	1134.40002441406
1357.98497162968	1137.80004882813
1358.63585724889	1130.80004882813
1359.28665897294	1135.19995117188
1359.93737680942	1140.19995117188
1360.58801076591	1135.40002441406
1361.23856085001	1141
1361.88902706929	1141
1362.53940943135	1124.80004882813
1363.18970794377	1142.80004882813
1363.83992261413	1143.19995117188
1364.49005345003	1145.80004882813
1365.14010045904	1136.19995117188
1365.79006364874	1135
1366.43994302673	1143.19995117188
1367.08973860058	1147.19995117188
1367.73945037788	1143.59997558594
1368.38907836621	1135.19995117188
1369.03862257315	1126.80004882813
1369.68808300629	1123.19995117188
1370.3374596732	1124.19995117188
1370.98675258148	1118
1371.63596173868	1119.59997558594
1372.28508715241	1120.19995117188
1372.93412883024	1122.40002441406
1373.58308677974	1125
1374.2319610085	1124.59997558594
1374.8807515241	1114
1375.52945833412	1104.40002441406
1376.17808144612	1102
1376.82662086771	1110.19995117188
1377.47507660644	1105.19995117188
1378.12344866989	1101.19995117188
1378.77173706565	1102
1379.41994180129	1107.40002441406
1380.06806288439	1095.59997558594
1380.71610032252	1101.19995117188
1381.36405412326	1095.59997558594
1382.01192429419	1098.40002441406
1382.65971084287	1108.80004882813
1383.30741377688	1102.80004882813
1383.95503310381	1091
1384.60256883121	1097.59997558594
1385.25002096667	1103.40002441406
1385.89738951775	1097.80004882813
1386.54467449204	1096.19995117188
1387.19187589709	1093
1387.8389937405	1092.59997558594
1388.48602802982	1096
1389.13297877262	1094.40002441406
1389.77984597649	1093.19995117188
1390.42662964899	1096
1391.07332979768	1095.59997558594
1391.71994643015	1090.40002441406
1392.36647955395	1087
1393.01292917667	1083.59997558594
1393.65929530586	1089.80004882813
1394.3055779491	1093.40002441406
1394.95177711395	1089.80004882813
1395.59789280799	1090
1396.24392503877	1092.59997558594
1396.88987381387	1090.80004882813
1397.53573914086	1095.19995117188
1398.1815210273	1097.59997558594
1398.82721948075	1095.19995117188
1399.47283450878	1091.59997558594
1400.11836611897	1096.40002441406
1400.76381431886	1095.19995117188
1401.40917911603	1094
1402.05446051805	1082.59997558594
1402.69965853247	1085.19995117188
1403.34477316686	1092
1403.98980442878	1091.19995117188
1404.6347523258	1098
1405.27961686548	1092.19995117188
1405.92439805538	1086.59997558594
1406.56909590306	1093.19995117188
1407.21371041608	1085.40002441406
1407.85824160202	1092.80004882813
1408.50268946841	1083
1409.14705402284	1080.40002441406
1409.79133527285	1076
1410.43553322601	1075.80004882813
1411.07964788987	1083.59997558594
1411.723679272	1088.19995117188
1412.36762737996	1084.80004882813
1413.01149222129	1094.80004882813
1413.65527380357	1087.59997558594
1414.29897213435	1094.40002441406
1414.94258722118	1088.40002441406
1415.58611907163	1094.19995117188
1416.22956769325	1090
1416.87293309359	1087.40002441406
1417.51621528021	1087.40002441406
1418.15941426067	1087.59997558594
1418.80253004253	1088.40002441406
1419.44556263333	1080
1420.08851204063	1085.19995117188
1420.731378272	1089
1421.37416133497	1088.59997558594
1422.0168612371	1089.40002441406
1422.65947798596	1080.59997558594
1423.30201158908	1090
1423.94446205403	1084.19995117188
1424.58682938835	1074.80004882813
1425.2291135996	1080
1425.87131469532	1080
1426.51343268308	1080.19995117188
1427.15546757042	1082.80004882813
1427.79741936488	1083.80004882813
1428.43928807403	1086.19995117188
1429.0810737054	1092.40002441406
1429.72277626656	1084.59997558594
1430.36439576504	1088.59997558594
1431.00593220841	1089
1431.64738560419	1083.19995117188
1432.28875595995	1078.40002441406
1432.93004328324	1079.19995117188
1433.57124758159	1077.40002441406
1434.21236886255	1080.59997558594
1434.85340713368	1085.80004882813
1435.49436240252	1081.59997558594
1436.13523467661	1086.19995117188
1436.77602396349	1078.40002441406
1437.41673027073	1086.40002441406
1438.05735360585	1085.19995117188
1438.69789397641	1088.40002441406
1439.33835138994	1083.80004882813
1439.978725854	1087.59997558594
1440.61901737612	1089.19995117188
1441.25922596385	1094.19995117188
1441.89935162473	1091.80004882813
1442.53939436631	1092
1443.17935419612	1084.80004882813
1443.81923112171	1090
1444.45902515061	1084.59997558594
1445.09873629038	1077.80004882813
1445.73836454854	1080.40002441406
1446.37790993265	1082.40002441406
1447.01737245024	1085.80004882813
1447.65675210885	1090.19995117188
1448.29604891602	1078
1448.93526287928	1081.40002441406
1449.57439400618	1084
1450.21344230426	1083.40002441406
1450.85240778105	1087
1451.49129044409	1085.19995117188
1452.13009030092	1081.19995117188
1452.76880735907	1077.19995117188
1453.40744162608	1084.59997558594
1454.04599310949	1083
1454.68446181683	1089
1455.32284775564	1084.59997558594
1455.96115093345	1079.59997558594
1456.5993713578	1085.19995117188
1457.23750903623	1081.40002441406
1457.87556397626	1077
1458.51353618543	1077.19995117188
1459.15142567127	1077.80004882813
1459.78923244132	1080.19995117188
1460.42695650311	1069.59997558594
1461.06459786417	1071.19995117188
1461.70215653203	1074
1462.33963251423	1073
1462.97702581829	1078.19995117188
1463.61433645175	1071.40002441406
1464.25156442214	1077
1464.88870973699	1078
1465.52577240382	1075.80004882813
1466.16275243017	1063.59997558594
1466.79964982356	1068.59997558594
1467.43646459154	1070.59997558594
1468.07319674161	1067.80004882813
1468.70984628132	1060.19995117188
1469.34641321818	1069.80004882813
1469.98289755974	1062.40002441406
1470.6192993135	1072.40002441406
1471.25561848701	1071
1471.89185508779	1078.19995117188
1472.52800912336	1089.40002441406
1473.16408060124	1082
1473.80006952897	1079.80004882813
1474.43597591407	1072.19995117188
1475.07179976406	1072.19995117188
1475.70754108647	1069.80004882813
1476.34319988883	1079.19995117188
1476.97877617865	1077.40002441406
1477.61426996345	1077
1478.24968125077	1084.59997558594
1478.88501004812	1072.40002441406
1479.52025636303	1076.59997558594
1480.15542020302	1078
1480.79050157561	1083.80004882813
1481.42550048832	1086.19995117188
1482.06041694867	1083.59997558594
1482.69525096418	1082.19995117188
1483.33000254237	1082.40002441406
1483.96467169077	1082.40002441406
1484.59925841689	1074.19995117188
1485.23376272825	1068.59997558594
1485.86818463237	1072.19995117188
1486.50252413677	1074.19995117188
1487.13678124896	1069.59997558594
1487.77095597646	1073.59997558594
1488.4050483268	1068.59997558594
1489.03905830749	1071.59997558594
1489.67298592604	1074.80004882813
1490.30683118996	1069.19995117188
1490.9405941068	1067.59997558594
1491.57427468403	1071
1492.2078729292	1075.80004882813
1492.84138884981	1071.19995117188
1493.47482245338	1068.59997558594
1494.10817374742	1074.59997558594
1494.74144273944	1075.19995117188
1495.37462943696	1077.59997558594
1496.0077338475	1077
1496.64075597856	1077.19995117188
1497.27369583765	1075.19995117188
1497.9065534323	1078.40002441406
1498.53932877001	1086.59997558594
1499.17202185829	1084.59997558594
1499.80463270465	1077.19995117188
1500.43716131661	1077.19995117188
1501.06960770167	1074.40002441406
1501.70197186735	1079.40002441406
1502.33425382116	1082.59997558594
1502.96645357059	1087.19995117188
1503.59857112317	1085.80004882813
1504.23060648641	1093.59997558594
1504.8625596678	1097
1505.49443067486	1084.19995117188
1506.1262195151	1101
1506.75792619602	1093.19995117188
1507.38955072513	1098
1508.02109310993	1092
1508.65255335794	1090.40002441406
1509.28393147666	1090.80004882813
1509.91522747359	1084.40002441406
1510.54644135624	1092.19995117188
1511.17757313212	1084.19995117188
1511.80862280872	1085.19995117188
1512.43959039356	1087.80004882813
1513.07047589413	1088
1513.70127931795	1088
1514.33200067251	1091
1514.96263996531	1087.40002441406
1515.59319720386	1081
1516.22367239567	1082.59997558594
1516.85406554822	1082.40002441406
1517.48437666903	1073
1518.1146057656	1074
1518.74475284542	1078.19995117188
1519.374817916	1070.59997558594
1520.00480098483	1077.40002441406
1520.63470205942	1078.59997558594
1521.26452114726	1069.80004882813
1521.89425825586	1073.59997558594
1522.52391339271	1066.80004882813
1523.15348656531	1067.80004882813
1523.78297778116	1070.19995117188
1524.41238704775	1065.80004882813
1525.04171437259	1059.40002441406
1525.67095976317	1069.80004882813
1526.30012322699	1063
1526.92920477154	1063.80004882813
1527.55820440432	1056.80004882813
1528.18712213283	1063.19995117188
1528.81595796455	1058.80004882813
1529.44471190699	1062.19995117188
1530.07338396764	1053.19995117188
1530.70197415399	1053
1531.33048247353	1062.80004882813
1531.95890893377	1059.40002441406
1532.58725354219	1063
1533.21551630629	1065.19995117188
1533.84369723356	1070.19995117188
1534.47179633148	1079.40002441406
1535.09981360757	1070.80004882813
1535.72774906929	1072
1536.35560272415	1076.80004882813
1536.98337457963	1071.40002441406
1537.61106464323	1075.19995117188
1538.23867292243	1076.59997558594
1538.86619942473	1069.40002441406
1539.49364415762	1078.40002441406
1540.12100712857	1082.59997558594
1540.74828834509	1080.19995117188
1541.37548781466	1080.19995117188
1542.00260554478	1072.59997558594
1542.62964154291	1069.59997558594
1543.25659581655	1071.80004882813
1543.8834683732	1068
1544.51025922034	1066.59997558594
1545.13696836544	1065.19995117188
1545.76359581601	1061.59997558594
1546.39014157952	1068.19995117188
1547.01660566345	1064
1547.64298807531	1062.40002441406
1548.26928882255	1067
1548.89550791269	1059
1549.52164535318	1056.80004882813
1550.14770115153	1064
1550.77367531521	1061
1551.39956785171	1051.59997558594
1552.0253787685	1055.59997558594
1552.65110807307	1061.19995117188
1553.2767557729	1065.59997558594
1553.90232187548	1065.59997558594
1554.52780638828	1065.40002441406
1555.15320931879	1062.40002441406
1555.77853067447	1056
1556.40377046282	1056.59997558594
1557.02892869132	1057
1557.65400536744	1060.40002441406
1558.27900049866	1061.59997558594
1558.90391409247	1063.80004882813
1559.52874615633	1064.59997558594
1560.15349669773	1053.40002441406
1560.77816572414	1064
1561.40275324305	1059
1562.02725926192	1065.19995117188
1562.65168378824	1061.80004882813
1563.27602682948	1063.19995117188
1563.90028839311	1066
1564.52446848662	1058
1565.14856711748	1058.80004882813
1565.77258429316	1076.40002441406
1566.39652002113	1069.40002441406
1567.02037430887	1068
1567.64414716387	1069.59997558594
1568.26783859357	1061.80004882813
1568.89144860547	1068.59997558594
1569.51497720703	1066.59997558594
1570.13842440573	1062.59997558594
1570.76179020904	1068.19995117188
1571.38507462442	1066.80004882813
1572.00827765936	1060.40002441406
1572.63139932132	1060
1573.25443961777	1068.59997558594
1573.87739855618	1056.19995117188
1574.50027614402	1053.40002441406
1575.12307238877	1057.40002441406
1575.74578729789	1060.59997558594
1576.36842087885	1062.19995117188
1576.99097313912	1062.80004882813
1577.61344408616	1059
1578.23583372745	1060.59997558594
1578.85814207046	1063
1579.48036912264	1066.40002441406
1580.10251489147	1060.59997558594
1580.72457938441	1057.40002441406
1581.34656260893	1052.40002441406
1581.9684645725	1044
1582.59028528258	1055.19995117188
1583.21202474663	1058.40002441406
1583.83368297212	1049.59997558594
1584.45525996652	1059.19995117188
1585.07675573728	1050
1585.69817029188	1048.19995117188
1586.31950363778	1052.80004882813
1586.94075578243	1051.40002441406
1587.5619267333	1047.80004882813
1588.18301649786	1046
1588.80402508357	1045.19995117188
1589.42495249788	1047
1590.04579874826	1043
1590.66656384217	1041.40002441406
1591.28724778707	1041
1591.90785059042	1033.59997558594
1592.52837225968	1040.40002441406
1593.14881280232	1037.59997558594
1593.76917222578	1032.40002441406
1594.38945053753	1031.80004882813
1595.00964774502	1040
1595.62976385573	1044
1596.24979887709	1039.40002441406
1596.86975281657	1037.40002441406
1597.48962568164	1040.59997558594
1598.10941747974	1047.59997558594
1598.72912821832	1052.59997558594
1599.34875790486	1049.40002441406
1599.9683065468	1045.59997558594
1600.58777415159	1042
1601.2071607267	1044.80004882813
1601.82646627958	1041.59997558594
1602.44569081769	1046.19995117188
1603.06483434846	1043
1603.68389687937	1039.59997558594
1604.30287841786	1037.59997558594
1604.92177897139	1037
1605.54059854741	1028.80004882813
1606.15933715337	1030.19995117188
1606.77799479672	1035.59997558594
1607.39657148492	1036.19995117188
1608.01506722542	1033.19995117188
1608.63348202566	1035.59997558594
1609.2518158931	1028.59997558594
1609.87006883519	1032.40002441406
1610.48824085939	1038
1611.10633197312	1042.40002441406
1611.72434218386	1032.80004882813
1612.34227149904	1036
1612.96011992612	1031
1613.57788747254	1030
1614.19557414575	1030.80004882813
1614.8131799532	1029.40002441406
1615.43070490234	1031.59997558594
1616.04814900061	1029.40002441406
1616.66551225545	1036
1617.28279467433	1019
1617.89999626467	1027
1618.51711703393	1034
1619.13415698955	1028.40002441406
1619.75111613898	1029
1620.36799448966	1028.80004882813
1620.98479204903	1035.19995117188
1621.60150882455	1036.19995117188
1622.21814482364	1034.80004882813
1622.83470005376	1031.40002441406
1623.45117452235	1036.80004882813
1624.06756823685	1036.80004882813
1624.6838812047	1034.59997558594
1625.30011343335	1032.80004882813
1625.91626493022	1033
1626.53233570278	1027.59997558594
1627.14832575845	1044.40002441406
1627.76423510468	1035.80004882813
1628.38006374891	1030.40002441406
1628.99581169857	1038.59997558594
1629.61147896111	1032.19995117188
1630.22706554397	1031.80004882813
1630.84257145457	1029.19995117188
1631.45799670038	1027
1632.07334128881	1024.19995117188
1632.6886052273	1020.40002441406
1633.3037885233	1024.40002441406
1633.91889118425	1023.79998779297
1634.53391321757	1032.59997558594
1635.1488546307	1024.59997558594
1635.76371543108	1024.80004882813
1636.37849562616	1023
1636.99319522335	1026
1637.60781423009	1021.79998779297
1638.22235265383	1024
1638.83681050198	1013.40002441406
1639.451187782	1022
1640.0654845013	1030.59997558594
1640.67970066734	1030
1641.29383628752	1031.19995117188
1641.9078913693	1034.40002441406
1642.5218659201	1037.80004882813
1643.13575994735	1037
1643.74957345849	1036.40002441406
1644.36330646094	1043
1644.97695896213	1035
1645.59053096951	1041
1646.20402249049	1040.19995117188
1646.8174335325	1036.80004882813
1647.43076410298	1041.40002441406
1648.04401420935	1048.40002441406
1648.65718385905	1050.59997558594
1649.2702730595	1055.59997558594
1649.88328181812	1054
1650.49621014236	1046.19995117188
1651.10905803963	1048
1651.72182551735	1043.40002441406
1652.33451258297	1043.40002441406
1652.9471192439	1034.40002441406
1653.55964550757	1039.40002441406
1654.1720913814	1037.59997558594
1654.78445687283	1031.80004882813
1655.39674198926	1026.80004882813
1656.00894673814	1030.59997558594
1656.62107112688	1020.79998779297
1657.23311516291	1019.79998779297
1657.84507885365	1025.80004882813
1658.45696220652	1019.40002441406
1659.06876522895	1020.20001220703
1659.68048792835	1020.40002441406
1660.29213031217	1016
1660.90369238779	1016.20001220703
1661.51517416267	1017.40002441406
1662.12657564421	1019.59997558594
1662.73789683984	1011.59997558594
1663.34913775697	1015.79998779297
1663.96029840303	1015.40002441406
1664.57137878544	1021.20001220703
1665.18237891161	1013.20001220703
1665.79329878897	1007.79998779297
1666.40413842493	1015
1667.01489782691	1016.40002441406
1667.62557700233	1008.59997558594
1668.2361759586	1012.79998779297
1668.84669470315	1002.20001220703
1669.4571332434	1001.79998779297
1670.06749158675	1002
1670.67776974062	1000.20001220703
1671.28796771243	1001
1671.8980855096	1003
1672.50812313954	997.599975585938
1673.11808060967	995.200012207031
1673.72795792739	995
1674.33775510013	996.200012207031
1674.9474721353	997.599975585938
1675.55710904031	994.200012207031
1676.16666582257	989.200012207031
1676.7761424895	990.799987792969
1677.38553904851	992.400024414063
1677.99485550702	992.400024414063
1678.60409187243	993.400024414063
1679.21324815215	992.200012207031
1679.8223243536	992.599975585938
1680.43132048419	990.200012207031
1681.04023655132	992.599975585938
1681.64907256241	994.599975585938
1682.25782852487	998.400024414063
1682.86650444611	993
1683.47510033353	987.599975585938
1684.08361619455	989.799987792969
1684.69205203657	987.599975585938
1685.300407867	990.400024414063
1685.90868369325	997
1686.51687952272	996.200012207031
1687.12499536283	995.799987792969
1687.73303122098	994.799987792969
1688.34098710457	996
1688.94886302101	992.200012207031
1689.55665897772	995.799987792969
1690.16437498208	989
1690.77201104152	990.200012207031
1691.37956716342	991.599975585938
1691.9870433552	992.799987792969
1692.59443962426	992.799987792969
1693.20175597801	986.799987792969
1693.80899242384	986.599975585938
1694.41614896916	993.200012207031
1695.02322562138	987.400024414063
1695.63022238789	985.400024414063
1696.23713927609	988.799987792969
1696.8439762934	984.799987792969
1697.4507334472	989
1698.05741074491	982.400024414063
1698.66400819391	979.599975585938
1699.27052580161	982.200012207031
1699.87696357542	986.599975585938
1700.48332152272	991.200012207031
1701.08959965092	990
1701.69579796742	989.599975585938
1702.30191647962	991.799987792969
1702.90795519491	983.200012207031
1703.51391412069	979.200012207031
1704.11979326437	979.599975585938
1704.72559263332	983
1705.33131223496	983.799987792969
1705.93695207668	977.799987792969
1706.54251216588	985.200012207031
1707.14799250994	986.200012207031
1707.75339311628	989.599975585938
1708.35871399227	979.599975585938
1708.96395514532	979.799987792969
1709.56911658282	981.200012207031
