634.948122577771	926.400024414063
635.690341530823	930.799987792969
636.43246851086	929.599975585938
637.174503525845	931
637.916446583745	935.799987792969
638.658297692538	929
639.400056860179	931
640.141724094637	932.200012207031
640.883299403885	933
641.62478279588	930.599975585938
642.366174278594	927.599975585938
643.107473859989	931.799987792969
643.848681548029	924.799987792969
644.589797350679	931
645.330821275901	926.799987792969
646.071753331665	926.200012207031
646.812593525922	924.400024414063
647.553341866646	929.799987792969
648.293998361798	929.599975585938
649.03456301933	929.599975585938
649.775035847216	931.799987792969
650.515416853409	931
651.255706045874	929.200012207031
651.995903432568	935.200012207031
652.736009021453	928.799987792969
653.476022820486	931.599975585938
654.215944837629	931.200012207031
654.955775080842	931.599975585938
655.695513558081	930
656.435160277301	927
657.174715246465	928.400024414063
657.914178473527	926.799987792969
658.653549966449	931.200012207031
659.392829733176	931
660.132017781678	934.200012207031
660.871114119901	930.599975585938
661.610118755803	938.400024414063
662.349031697343	939.200012207031
663.087852952468	934
663.826582529139	933
664.565220435305	938.400024414063
665.30376667892	931
666.04222126794	935
666.780584210316	929.599975585938
667.518855514	931
668.25703518694	934.200012207031
668.995123237096	933.200012207031
669.733119672413	939
670.471024500842	932
671.208837730333	930.200012207031
671.946559368839	936.400024414063
672.684189424308	931.200012207031
673.421727904689	935.599975585938
674.159174817929	935.200012207031
674.896530171977	928.799987792969
675.633793974786	934.599975585938
676.370966234295	931.200012207031
677.108046958461	936
677.845036155219	933
678.581933832528	933
679.318739998323	934.599975585938
680.055454660558	931.200012207031
680.792077827172	929.799987792969
681.528609506116	934.599975585938
682.265049705331	931.799987792969
683.001398432759	935.400024414063
683.737655696349	932.599975585938
684.47382150404	937
685.20989586378	937.799987792969
685.945878783503	934.400024414063
686.68177027116	934.799987792969
687.417570334688	934.799987792969
688.153278982032	933
688.888896221129	937.400024414063
689.624422059921	936.799987792969
690.359856506349	935.400024414063
691.095199568354	935.599975585938
691.830451253874	939.599975585938
692.565611570844	934.599975585938
693.300680527212	932.400024414063
694.03565813091	934.599975585938
694.770544389877	936.200012207031
695.505339312053	934.599975585938
696.240042905372	936.200012207031
696.974655177772	934.400024414063
697.70917613719	936
698.443605791561	935.599975585938
699.177944148826	938
699.912191216909	935.400024414063
700.646347003755	939.200012207031
701.380411517295	934.400024414063
702.114384765465	932.599975585938
702.848266756195	934.599975585938
703.582057497421	936
704.315756997074	936.400024414063
705.049365263089	934.799987792969
705.782882303399	933.599975585938
706.516308125936	937.599975585938
707.249642738626	940
707.982886149403	935.799987792969
708.716038366204	937.799987792969
709.449099396949	933.400024414063
710.182069249577	935.599975585938
710.914947932009	934.799987792969
711.647735452181	939
712.380431818022	935.200012207031
713.113037037454	936.400024414063
713.845551118411	932.400024414063
714.577974068818	934.200012207031
715.310305896604	933.799987792969
716.042546609694	935
716.774696216013	936.799987792969
717.506754723493	933
718.238722140053	940.799987792969
718.970598473624	938
719.702383732127	936.400024414063
720.43407792349	934.799987792969
721.165681055634	939.200012207031
721.897193136486	936.799987792969
722.628614173966	937.200012207031
723.359944175997	937
724.091183150505	939.200012207031
724.822331105412	939
725.553388048638	933.200012207031
726.284353988106	935.599975585938
727.015228931734	934.400024414063
727.746012887449	935.200012207031
728.476705863162	936.400024414063
729.207307866803	934.200012207031
729.937818906289	931.599975585938
730.668238989535	933.400024414063
731.398568124459	933.400024414063
732.128806318986	931.200012207031
732.858953581034	933.799987792969
733.589009918514	934.799987792969
734.318975339348	942.599975585938
735.048849851452	940.200012207031
735.778633462744	938.200012207031
736.508326181137	938
737.237928014549	933.200012207031
737.967438970897	940.200012207031
738.696859058095	939
739.426188284054	935.599975585938
740.155426656692	932.200012207031
740.884574183922	938.400024414063
741.613630873659	936.200012207031
742.342596733815	938.400024414063
743.071471772302	935
743.800255997034	939
744.528949415921	938.200012207031
745.257552036877	937
745.986063867811	940.400024414063
746.714484916638	938.400024414063
747.442815191261	940.200012207031
748.171054699597	935.799987792969
748.899203449554	932.599975585938
749.627261449039	936
750.355228705966	934
751.083105228239	938.400024414063
751.810891023765	935.599975585938
752.538586100459	935.599975585938
753.266190466218	936.799987792969
753.99370412896	936.400024414063
754.721127096582	936.200012207031
755.448459377	935
756.175700978114	939
756.902851907828	938.200012207031
757.629912174055	936.599975585938
758.356881784688	937.400024414063
759.083760747639	938.799987792969
759.810549070817	937.400024414063
760.537246762113	943
761.263853829442	934.400024414063
761.990370280698	937.400024414063
762.716796123791	934.200012207031
763.443131366618	936
764.169376017082	937
764.895530083085	939.599975585938
765.621593572527	938.799987792969
766.347566493312	946.400024414063
767.073448853336	942.400024414063
767.799240660502	946.400024414063
768.524941922707	943.799987792969
769.250552647854	946
769.976072843836	946
770.701502518551	951.400024414063
771.426841679905	952.400024414063
772.152090335793	950.799987792969
772.877248494107	952.799987792969
773.602316162747	951
774.327293349609	956
775.052180062592	948
775.776976309589	946.799987792969
776.501682098496	947.400024414063
777.226297437206	948.200012207031
777.950822333616	947.400024414063
778.675256795621	941.599975585938
779.399600831111	946
780.123854447983	949
780.84801765413	943.599975585938
781.572090457441	941.200012207031
782.296072865811	940.400024414063
783.019964887131	939.799987792969
783.743766529297	941.200012207031
784.467477800194	938.799987792969
785.191098707719	939.200012207031
785.914629259756	937.799987792969
786.638069464194	940
787.361419328932	941.599975585938
788.084678861852	939
788.807848070845	941
789.530926963798	937.599975585938
790.253915548602	938.799987792969
790.976813833144	934.400024414063
791.699621825307	937.400024414063
792.422339532986	938.200012207031
793.144966964061	940.400024414063
793.86750412642	937.200012207031
794.589951027946	940.599975585938
795.312307676536	939.799987792969
796.03457408006	938.799987792969
796.756750246417	935.400024414063
797.478836183477	934
798.200831899137	933.799987792969
798.92273740127	937.799987792969
799.644552697769	938.799987792969
800.36627779651	937.400024414063
801.087912705374	941
801.809457432251	935
802.530911985017	932.400024414063
803.252276371558	934
803.973550599748	937
804.694734677472	931.599975585938
805.415828612611	931
806.136832413045	931.200012207031
806.857746086646	936.400024414063
807.578569641305	940.599975585938
808.299303084892	941
809.019946425289	942.799987792969
809.740499670372	940.200012207031
810.460962828022	939
811.181335906114	939.200012207031
811.901618912524	942
812.621811855131	936.599975585938
813.341914741809	935.799987792969
814.061927580433	935.599975585938
814.781850378881	939.799987792969
815.501683145025	938.599975585938
816.221425886743	938.599975585938
816.941078611903	934.599975585938
817.660641328387	939.599975585938
818.380114044065	937.599975585938
819.099496766808	938.400024414063
819.818789504492	936.799987792969
820.53799226499	938.400024414063
821.257105056168	942.799987792969
821.976127885904	942.599975585938
822.695060762064	936.599975585938
823.413903692525	937
824.132656685151	940.200012207031
824.851319747817	939
825.569892888388	938.200012207031
826.288376114739	938.799987792969
827.006769434737	939
827.725072856249	940.799987792969
828.443286387142	940.200012207031
829.161410035285	934.200012207031
829.87944380855	939.599975585938
830.597387714798	934.799987792969
831.315241761898	933.200012207031
832.033005957715	936
832.750680310119	931.599975585938
833.468264826969	938.200012207031
834.18575951614	933.400024414063
834.903164385486	932.200012207031
835.620479442878	939.400024414063
836.337704696181	940
837.054840153255	940
837.771885821962	940.599975585938
838.488841710172	937.400024414063
839.20570782574	935.200012207031
839.922484176531	937.799987792969
840.639170770409	937.799987792969
841.355767615231	935
842.072274718864	940.400024414063
842.788692089164	941.400024414063
843.505019733993	936.799987792969
844.221257661209	941
844.937405878676	941.799987792969
845.65346439425	935.400024414063
846.369433215789	939.799987792969
847.085312351156	938.799987792969
847.801101808205	939
848.516801594793	938.200012207031
849.232411718781	944.599975585938
849.947932188021	939.599975585938
850.663363010376	937.799987792969
851.378704193698	938.599975585938
852.093955745842	942.799987792969
852.809117674669	938.400024414063
853.524189988028	938.200012207031
854.239172693778	937.799987792969
854.954065799768	939
855.668869313857	940.599975585938
856.383583243899	934.599975585938
857.098207597743	936.200012207031
857.812742383246	942.200012207031
858.527187608255	936.599975585938
859.241543280628	935
859.955809408218	937.799987792969
860.669985998868	936.799987792969
861.384073060437	935.400024414063
862.098070600772	935.799987792969
862.811978627724	937.400024414063
863.52579714914	937.599975585938
864.239526172873	939.799987792969
864.953165706776	936.799987792969
865.666715758687	937.599975585938
866.380176336464	937.200012207031
867.093547447951	936
867.806829100996	936.599975585938
868.520021303444	937.400024414063
869.233124063149	939.200012207031
869.94613738795	941.400024414063
870.659061285693	937.200012207031
871.37189576423	940
872.084640831403	941.599975585938
872.797296495057	941.400024414063
873.509862763039	937.400024414063
874.22233964319	936.200012207031
874.934727143353	937.200012207031
875.647025271374	936.799987792969
876.359234035097	937
877.071353442361	936.400024414063
877.783383501015	937.400024414063
878.495324218895	934.400024414063
879.207175603844	934.400024414063
879.918937663705	934.799987792969
880.630610406318	935.799987792969
881.342193839524	937.200012207031
882.053687971161	940.200012207031
882.765092809069	939.400024414063
883.476408361091	942.400024414063
884.187634635066	936.799987792969
884.898771638828	937.799987792969
885.609819380221	938.799987792969
886.320777867076	939.400024414063
887.031647107236	939.400024414063
887.742427108536	932.599975585938
888.453117878816	937
889.16371942591	941.400024414063
889.874231757652	939.599975585938
890.584654881883	942.799987792969
891.294988806434	941
892.005233539141	935.400024414063
892.715389087837	935.400024414063
893.42545546036	938.400024414063
894.135432664543	935.799987792969
894.845320708216	938
895.555119599216	939
896.264829345375	937
896.974449954526	933.599975585938
897.683981434496	936.799987792969
898.393423793125	932
899.102777038235	936.200012207031
899.812041177664	935.799987792969
900.521216219239	935
901.230302170793	938
901.939299040155	938.400024414063
902.64820683515	936.799987792969
903.357025563612	933.200012207031
904.065755233368	938.799987792969
904.774395852247	936
905.482947428076	932.799987792969
906.191409968682	937.799987792969
906.899783481897	933.200012207031
907.608067975538	937
908.316263457443	941.400024414063
909.02436993543	938.599975585938
909.732387417327	942
910.440315910959	941
911.148155424154	934.599975585938
911.855905964731	936.799987792969
912.563567540521	938.400024414063
913.271140159339	940.400024414063
913.978623829017	933.799987792969
914.686018557374	935.799987792969
915.393324352237	936.200012207031
916.100541221421	940.400024414063
916.807669172752	936.200012207031
917.514708214054	937
918.221658353142	938.400024414063
918.928519597843	940
919.635291955976	937.400024414063
920.341975435358	934
921.048570043813	932.599975585938
921.75507578916	933.200012207031
922.461492679212	936.200012207031
923.167820721795	936.599975585938
923.874059924726	937.200012207031
924.58021029582	941.400024414063
925.286271842893	941.599975585938
925.992244573769	939.200012207031
926.698128496262	945.599975585938
927.403923618184	942
928.109629947355	939.599975585938
928.815247491593	940
929.520776258708	936
930.226216256519	938.799987792969
930.931567492841	940
931.636829975482	941.200012207031
932.342003712263	943.599975585938
933.047088710995	940
933.752084979491	936
934.456992525564	935
935.161811357024	939
935.866541481688	935.400024414063
936.571182907363	940
937.275735641861	936
937.980199692995	939
938.684575068572	935
939.388861776411	934.200012207031
940.093059824311	936.200012207031
940.797169220085	933.799987792969
941.501189971544	938.799987792969
942.205122086495	934.400024414063
942.908965572751	941.200012207031
943.612720438111	936.400024414063
944.316386690391	938
945.019964337391	932
945.723453386924	935.400024414063
946.426853846795	935.599975585938
947.130165724808	937
947.83338902877	931.799987792969
948.536523766488	934.599975585938
949.239569945764	932
949.942527574402	935.200012207031
950.64539666021	935
951.348177210993	938.799987792969
952.050869234548	934.400024414063
952.753472738683	933.200012207031
953.455987731199	935.200012207031
954.158414219898	936.400024414063
954.860752212587	935.400024414063
955.563001717061	937.400024414063
956.265162741124	935.599975585938
956.967235292576	933.400024414063
957.669219379224	934
958.371115008857	931.400024414063
959.072922189283	934.200012207031
959.774640928301	932.799987792969
960.476271233708	933.599975585938
961.177813113301	932.799987792969
961.879266574882	937.599975585938
962.580631626248	936.200012207031
963.281908275194	933.400024414063
963.98309652952	937
964.684196397022	933.200012207031
965.3852078855	932.400024414063
966.086131002745	937
966.786965756555	939.400024414063
967.487712154726	932
968.188370205055	934.400024414063
968.888939915331	932.400024414063
969.589421293352	933
970.289814346909	936.599975585938
970.990119083801	931.400024414063
971.690335511819	933.400024414063
972.39046363875	932.599975585938
973.090503472398	934.799987792969
973.790455020545	928.200012207031
974.490318290987	935
975.190093291516	935.200012207031
975.889780029923	933.799987792969
976.589378513998	934.599975585938
977.288888751527	934.799987792969
977.988310750308	935.400024414063
978.687644518122	933
979.386890062767	935.400024414063
980.086047392025	933.799987792969
980.785116513689	938.599975585938
981.484097435542	934
982.182990165377	936.200012207031
982.88179471098	939
983.580511080137	938.400024414063
984.279139280632	933.599975585938
984.977679320253	937.200012207031
985.67613120679	933.799987792969
986.374494948027	939.599975585938
987.072770551745	936.599975585938
987.770958025731	934.799987792969
988.469057377772	938.599975585938
989.167068615649	934.799987792969
989.864991747145	932
990.562826780047	932
991.260573722134	932.599975585938
991.958232581195	932.200012207031
992.655803365003	934
993.353286081346	934.599975585938
994.050680738006	933
994.74798734276	938.200012207031
995.44520590339	937.200012207031
996.142336427681	929.599975585938
996.839378923407	932
997.536333398348	931.799987792969
998.233199860289	930
998.929978317004	929.599975585938
999.626668776274	933.799987792969
1000.32327124587	934
1001.01978573359	933.200012207031
1001.71621224718	935
1002.41255079445	935.599975585938
1003.10880138315	936.400024414063
1003.80496402107	933.200012207031
1004.50103871599	935.400024414063
1005.19702547567	934.400024414063
1005.8929243079	939
1006.58873522045	935
1007.2844582211	935.799987792969
1007.98009331761	935.200012207031
1008.67564051776	936.799987792969
1009.37109982933	935.400024414063
1010.06647126009	932
1010.7617548178	932.799987792969
1011.45695051026	932.200012207031
1012.15205834522	933.799987792969
1012.84707833045	932.799987792969
1013.54201047373	937
1014.23685478284	936.799987792969
1014.93161126553	936.599975585938
1015.62627992959	935.799987792969
1016.32086078277	936.799987792969
1017.01535383285	934
1017.70975908761	937.200012207031
1018.40407655479	935.200012207031
1019.09830624219	933.599975585938
1019.79244815755	939.599975585938
1020.48650230866	931.599975585938
1021.18046870328	935.200012207031
1021.87434734917	938.200012207031
1022.56813825411	938.400024414063
1023.26184142584	938.200012207031
1023.95545687216	935
1024.64898460082	938
1025.34242461957	932.799987792969
1026.0357769362	934.400024414063
1026.72904155846	934.799987792969
1027.42221849412	935
1028.11530775094	939.200012207031
1028.80830933668	934.599975585938
1029.50122325911	935.799987792969
1030.19404952599	934.599975585938
1030.88678814508	933.799987792969
1031.57943912414	933.799987792969
1032.27200247093	932.400024414063
1032.96447819323	933.599975585938
1033.65686629878	933.799987792969
1034.34916679534	930.400024414063
1035.04137969068	932.200012207031
1035.73350499256	938.400024414063
1036.42554270874	934.200012207031
1037.11749284697	937.200012207031
1037.80935541501	934
1038.50113042062	933.200012207031
1039.19281787156	931.599975585938
1039.88441777559	933
1040.57593014046	936
1041.26735497393	928
1041.95869228376	934.599975585938
1042.6499420777	934.400024414063
1043.3411043635	938.400024414063
1044.03217914893	930.799987792969
1044.72316644174	934
1045.41406624968	935.599975585938
1046.1048785805	932.599975585938
1046.79560344197	930.400024414063
1047.48624084182	936.200012207031
1048.17679078783	936.400024414063
1048.86725328774	932
1049.55762834929	936.400024414063
1050.24791598025	931.799987792969
1050.93811618837	932.599975585938
1051.62822898139	934.599975585938
1052.31825436707	934.799987792969
1053.00819235315	935.200012207031
1053.6980429474	937.200012207031
1054.38780615755	932.400024414063
1055.07748199136	933.200012207031
1055.76707045658	936.799987792969
1056.45657156095	927.599975585938
1057.14598531222	931
1057.83531171814	931.599975585938
1058.52455078646	932.799987792969
1059.21370252494	930.799987792969
1059.90276694129	934.200012207031
1060.5917440433	934
1061.28063383868	932.599975585938
1061.9694363352	935.400024414063
1062.65815154059	935.599975585938
1063.34677946261	933.599975585938
1064.03532010899	933.799987792969
1064.72377348748	932.599975585938
1065.41213960583	932.400024414063
1066.10041847177	933.799987792969
1066.78861009306	929.599975585938
1067.47671447743	930.400024414063
1068.16473163263	931
1068.85266156639	929.400024414063
1069.54050428647	930.200012207031
1070.2282598006	930.799987792969
1070.91592811652	932.200012207031
1071.60350924198	934.200012207031
1072.29100318471	932.200012207031
1072.97840995245	931.599975585938
1073.66572955295	929.400024414063
1074.35296199394	930.400024414063
1075.04010728316	932.200012207031
1075.72716542836	931
1076.41413643726	928.599975585938
1077.10102031761	926.599975585938
1077.78781707715	930.599975585938
1078.4745267236	929
1079.16114926471	929.599975585938
1079.84768470822	926.799987792969
1080.53413306185	928.200012207031
1081.22049433336	927.799987792969
1081.90676853046	928.599975585938
1082.5929556609	929.599975585938
1083.27905573241	933.799987792969
1083.96506875272	934.799987792969
1084.65099472957	933.400024414063
1085.3368336707	932.799987792969
1086.02258558383	932.400024414063
1086.70825047669	932.200012207031
1087.39382835703	932.599975585938
1088.07931923257	934.799987792969
1088.76472311104	934.799987792969
1089.45004000018	931.200012207031
1090.13526990771	930.400024414063
1090.82041284137	930
1091.50546880889	931.200012207031
1092.19043781799	932.599975585938
1092.87531987642	929.400024414063
1093.56011499188	932.799987792969
1094.24482317212	935.799987792969
1094.92944442486	933.400024414063
1095.61397875783	933.200012207031
1096.29842617876	935.599975585938
1096.98278669537	936.599975585938
1097.6670603154	933.400024414063
1098.35124704656	930.599975585938
1099.03534689659	925.400024414063
1099.71935987322	929.599975585938
1100.40328598416	930.599975585938
1101.08712523713	930.799987792969
1101.77087763988	932.200012207031
1102.45454320012	932.200012207031
1103.13812192557	931.400024414063
1103.82161382396	933.200012207031
1104.50501890301	931.599975585938
1105.18833717045	935.599975585938
1105.87156863399	934.400024414063
1106.55471330137	932.400024414063
1107.2377711803	935
1107.9207422785	932.799987792969
1108.60362660369	932.200012207031
1109.2864241636	933.599975585938
1109.96913496594	934.799987792969
1110.65175901844	929.799987792969
1111.33429632882	934.200012207031
1112.01674690479	931.599975585938
1112.69911075408	929
1113.38138788439	934
1114.06357830346	931.599975585938
1114.745682019	931.599975585938
1115.42769903872	927.599975585938
1116.10962937035	935.599975585938
1116.7914730216	929.599975585938
1117.47323000018	933.599975585938
1118.15490031382	932.599975585938
1118.83648397022	932.200012207031
1119.51798097712	936.599975585938
1120.1993913422	933.200012207031
1120.88071507321	940.400024414063
1121.56195217784	934.799987792969
1122.24310266381	937.400024414063
1122.92416653884	934.200012207031
1123.60514381064	933
1124.28603448692	929
1124.9668385754	937.400024414063
1125.64755608378	935
1126.32818701978	939.400024414063
1127.00873139111	936.400024414063
1127.68918920548	934.400024414063
1128.3695604706	931.200012207031
1129.04984519419	935.799987792969
1129.73004338394	934.799987792969
1130.41015504758	935.200012207031
1131.09018019281	938.400024414063
1131.77011882734	934.599975585938
1132.44997095888	934
1133.12973659514	937.400024414063
1133.80941574381	932.599975585938
1134.48900841263	936.400024414063
1135.16851460927	932.400024414063
1135.84793434147	935.599975585938
1136.52726761692	931.599975585938
1137.20651444333	934.599975585938
1137.8856748284	934
1138.56474877984	934.200012207031
1139.24373630536	932.799987792969
1139.92263741265	931.400024414063
1140.60145210943	932.799987792969
1141.28018040339	931.400024414063
1141.95882230225	935.200012207031
1142.6373778137	933.200012207031
1143.31584694545	934
1143.99422970519	932.799987792969
1144.67252610064	932.799987792969
1145.35073613949	933.200012207031
1146.02885982944	935.599975585938
1146.7068971782	935.599975585938
1147.38484819347	935.799987792969
1148.06271288294	935.400024414063
1148.74049125432	935.200012207031
1149.41818331531	931.200012207031
1150.0957890736	931.799987792969
1150.77330853689	930.200012207031
1151.45074171289	930
1152.12808860928	929.799987792969
1152.80534923378	931.799987792969
1153.48252359407	927.400024414063
1154.15961169786	932.799987792969
1154.83661355283	930.599975585938
1155.51352916669	932.599975585938
1156.19035854713	929.400024414063
1156.86710170185	932
1157.54375863855	933.400024414063
1158.22032936491	936.200012207031
1158.89681388863	926
1159.57321221741	933.200012207031
1160.24952435894	932.400024414063
1160.92575032092	929.599975585938
1161.60189011103	929.200012207031
1162.27794373697	936
1162.95391120644	930.400024414063
1163.62979252712	930.400024414063
1164.3055877067	928.200012207031
1164.98129675288	930.799987792969
1165.65691967336	934.799987792969
1166.33245647581	933.400024414063
1167.00790716792	934
1167.6832717574	932
1168.35855025193	935
1169.0337426592	930.400024414063
1169.70884898689	928
1170.3838692427	933.599975585938
1171.05880343431	934
1171.73365156941	930.799987792969
1172.40841365569	936.200012207031
1173.08308970083	936.200012207031
1173.75767971253	936.799987792969
1174.43218369847	935.200012207031
1175.10660166633	936.400024414063
1175.7809336238	933
1176.45517957857	932
1177.12933953832	935.200012207031
1177.80341351073	934
1178.47740150349	934.200012207031
1179.15130352429	938.400024414063
1179.8251195808	935.599975585938
1180.49884968071	942.799987792969
1181.1724938317	936.599975585938
1181.84605204145	934
1182.51952431766	932.400024414063
1183.19291066799	936.400024414063
1183.86621110013	938.200012207031
1184.53942562176	932.400024414063
1185.21255424057	932.200012207031
1185.88559696422	936.200012207031
1186.55855380041	937.200012207031
1187.2314247568	933.200012207031
1187.90420984109	936.599975585938
1188.57690906095	935.200012207031
1189.24952242405	937
1189.92204993808	939.400024414063
1190.59449161071	935.599975585938
1191.26684744962	940.400024414063
1191.93911746249	939
1192.61130165699	935.799987792969
1193.28340004081	935.599975585938
1193.95541262161	933.200012207031
1194.62733940707	935.400024414063
1195.29918040487	938
1195.97093562269	935.599975585938
1196.64260506819	934.599975585938
1197.31418874905	934.599975585938
1197.98568667295	933.599975585938
1198.65709884755	934.400024414063
1199.32842528053	932
1199.99966597957	936
1200.67082095234	937
1201.3418902065	933.799987792969
1202.01287374974	935.799987792969
1202.68377158971	933
1203.3545837341	930.400024414063
1204.02531019057	932
1204.6959509668	932.400024414063
1205.36650607045	934.400024414063
1206.03697550919	934
1206.70735929069	933.599975585938
1207.37765742263	937.599975585938
1208.04786991266	933.400024414063
1208.71799676846	931
1209.38803799769	933.200012207031
1210.05799360803	932.799987792969
1210.72786360714	937.400024414063
1211.39764800268	936.200012207031
1212.06734680233	932.799987792969
1212.73696001375	933.400024414063
1213.4064876446	931.200012207031
1214.07592970255	934.599975585938
1214.74528619526	932.599975585938
1215.4145571304	933
1216.08374251564	928.599975585938
1216.75284235863	930.400024414063
1217.42185666704	929.400024414063
1218.09078544854	929.400024414063
1218.75962871078	929.200012207031
1219.42838646143	928.599975585938
1220.09705870816	928.599975585938
1220.76564545861	928.799987792969
1221.43414672046	928.200012207031
1222.10256250136	929.599975585938
1222.77089280898	930.200012207031
1223.43913765098	934.799987792969
1224.107297035	933.200012207031
1224.77537096873	929.599975585938
1225.44335945981	936
1226.1112625159	932.200012207031
1226.77908014467	930.799987792969
1227.44681235376	928.599975585938
1228.11445915085	929.200012207031
1228.78202054357	929.799987792969
1229.44949653961	932
1230.11688714659	931
1230.7841923722	928.200012207031
1231.45141222407	933.200012207031
1232.11854670988	929
1232.78559583726	929.200012207031
1233.45255961388	927.599975585938
1234.1194380474	930
1234.78623114546	935
1235.45293891572	929.200012207031
1236.11956136583	931.599975585938
1236.78609850345	933.200012207031
1237.45255033623	932.200012207031
1238.11891687182	930.599975585938
1238.78519811788	932.799987792969
1239.45139408205	930.200012207031
1240.11750477198	928
1240.78353019534	930.799987792969
1241.44947035976	932
1242.11532527291	933.200012207031
1242.78109494242	932.400024414063
1243.44677937595	927
1244.11237858115	923.400024414063
1244.77789256567	929.599975585938
1245.44332133715	929.200012207031
1246.10866490325	927.400024414063
1246.7739232716	931.799987792969
1247.43909644987	933.200012207031
1248.10418444569	929.599975585938
1248.76918726671	928.400024414063
1249.43410492059	930.599975585938
1250.09893741496	930.599975585938
1250.76368475747	924.599975585938
1251.42834695576	928.799987792969
1252.09292401749	930
1252.75741595029	924.400024414063
1253.42182276182	932.400024414063
1254.08614445971	927
1254.75038105161	928
1255.41453254515	930.599975585938
1256.07859894799	930.400024414063
1256.74258026777	932.400024414063
1257.40647651213	931.200012207031
1258.0702876887	930.400024414063
1258.73401380514	927.400024414063
1259.39765486908	932.799987792969
1260.06121088817	930.200012207031
1260.72468187004	932.799987792969
1261.38806782233	924.799987792969
1262.05136875269	928.400024414063
1262.71458466875	932
1263.37771557815	929.400024414063
1264.04076148854	929.400024414063
1264.70372240753	932.799987792969
1265.3665983428	931.599975585938
1266.02938930195	930.599975585938
1266.69209529263	932.599975585938
1267.35471632249	932.200012207031
1268.01725239914	930.799987792969
1268.67970353024	925.599975585938
1269.34206972342	934.200012207031
1270.00435098631	931.599975585938
1270.66654732655	927.799987792969
1271.32865875177	927.599975585938
1271.9906852696	926.599975585938
1272.65262688768	924.799987792969
1273.31448361365	923.599975585938
1273.97625545514	930.599975585938
1274.63794241978	930
1275.2995445152	930.200012207031
1275.96106174903	929
1276.62249412892	930.400024414063
1277.28384166248	930.799987792969
1277.94510435735	932.799987792969
1278.60628222116	933.200012207031
1279.26737526155	932.599975585938
1279.92838348613	929
1280.58930690255	927.400024414063
1281.25014551842	927.599975585938
1281.91089934139	926.400024414063
1282.57156837907	926.799987792969
1283.2321526391	927
1283.89265212911	926.599975585938
1284.55306685671	925.200012207031
1285.21339682955	925.799987792969
1285.87364205525	923.599975585938
1286.53380254142	922.400024414063
1287.19387829571	923
1287.85386932573	931.599975585938
1288.51377563911	926
1289.17359724348	924.200012207031
1289.83333414646	925.400024414063
1290.49298635567	925.200012207031
1291.15255387874	931
1291.8120367233	934
1292.47143489696	931.799987792969
1293.13074840736	932.799987792969
1293.7899772621	933.599975585938
1294.44912146882	929.200012207031
1295.10818103513	930.799987792969
1295.76715596866	933.400024414063
1296.42604627704	929
1297.08485196787	930
1297.74357304878	929.599975585938
1298.4022095274	929
1299.06076141134	933
1299.71922870821	931.799987792969
1300.37761142565	936
1301.03590957126	930.599975585938
1301.69412315268	928.200012207031
1302.3522521775	932.200012207031
1303.01029665336	929.400024414063
1303.66825658787	929.400024414063
1304.32613198865	930.200012207031
1304.98392286332	934
1305.64162921948	930.599975585938
1306.29925106476	932.200012207031
1306.95678840677	931.799987792969
1307.61424125312	928.200012207031
1308.27160961145	929
1308.92889348934	932.200012207031
1309.58609289443	932.799987792969
1310.24320783432	932.799987792969
1310.90023831664	930.200012207031
1311.55718434898	934.599975585938
1312.21404593897	935
1312.87082309421	930.400024414063
1313.52751582233	930.599975585938
1314.18412413092	929.400024414063
1314.84064802761	926.799987792969
1315.49708752	927.799987792969
1316.1534426157	932
1316.80971332233	936.200012207031
1317.46589964749	936.400024414063
1318.1220015988	933.599975585938
1318.77801918386	939
1319.43395241028	931.400024414063
1320.08980128567	933.400024414063
1320.74556581764	933.200012207031
1321.4012460138	931.200012207031
1322.05684188176	932.599975585938
1322.71235342911	934
1323.36778066347	932.400024414063
1324.02312359245	931.599975585938
1324.67838222365	935.400024414063
1325.33355656468	932.799987792969
1325.98864662314	931.400024414063
1326.64365240663	935.599975585938
1327.29857392277	932.400024414063
1327.95341117915	929
1328.60816418339	930
1329.26283294308	930.599975585938
1329.91741746582	925.400024414063
1330.57191775923	931.400024414063
1331.2263338309	926.400024414063
1331.88066568843	934
1332.53491333943	928.599975585938
1333.1890767915	932.200012207031
1333.84315605224	931.200012207031
1334.49715112925	935
1335.15106203013	929.400024414063
1335.80488876249	930.599975585938
1336.45863133391	931.400024414063
1337.112289752	928.200012207031
1337.76586402437	925.599975585938
1338.4193541586	931.599975585938
1339.0727601623	931
1339.72608204306	931.400024414063
1340.37931980849	928.400024414063
1341.03247346617	931.599975585938
1341.68554302372	930.599975585938
1342.33852848871	931.400024414063
1342.99142986876	930.400024414063
1343.64424717145	930.599975585938
1344.29698040438	934.799987792969
1344.94962957515	928.799987792969
1345.60219469135	932.400024414063
1346.25467576058	931.799987792969
1346.90707279042	935.200012207031
1347.55938578848	933.400024414063
1348.21161476235	936.400024414063
1348.86375971962	932.400024414063
1349.51582066787	929.599975585938
1350.16779761472	933.200012207031
1350.81969056774	935.200012207031
1351.47149953453	936
1352.12322452269	938.799987792969
1352.77486553979	935.400024414063
1353.42642259344	934.799987792969
1354.07789569122	937.799987792969
1354.72928484072	937.599975585938
1355.38059004953	940.799987792969
1356.03181132525	943.200012207031
1356.68294867545	942.799987792969
1357.33400210773	941.200012207031
1357.98497162968	942.200012207031
1358.63585724889	937.799987792969
1359.28665897294	942.599975585938
1359.93737680942	943
1360.58801076591	940.599975585938
1361.23856085001	939.799987792969
1361.88902706929	940.200012207031
1362.53940943135	940.599975585938
1363.18970794377	940.599975585938
1363.83992261413	939.799987792969
1364.49005345003	943.200012207031
1365.14010045904	939.599975585938
1365.79006364874	938.400024414063
1366.43994302673	939.799987792969
1367.08973860058	943.599975585938
1367.73945037788	943.799987792969
1368.38907836621	938.599975585938
1369.03862257315	940.200012207031
1369.68808300629	936.400024414063
1370.3374596732	943.400024414063
1370.98675258148	935.799987792969
1371.63596173868	938.599975585938
1372.28508715241	938.799987792969
1372.93412883024	936.400024414063
1373.58308677974	935
1374.2319610085	936.200012207031
1374.8807515241	935
1375.52945833412	933.799987792969
1376.17808144612	932.200012207031
1376.82662086771	929.200012207031
1377.47507660644	931.599975585938
1378.12344866989	929.599975585938
1378.77173706565	931.200012207031
1379.41994180129	926.200012207031
1380.06806288439	928.200012207031
1380.71610032252	929.200012207031
1381.36405412326	929.400024414063
1382.01192429419	927
1382.65971084287	930
1383.30741377688	931.400024414063
1383.95503310381	926.599975585938
1384.60256883121	930
1385.25002096667	927.799987792969
1385.89738951775	928.400024414063
1386.54467449204	931
1387.19187589709	931.200012207031
1387.8389937405	928
1388.48602802982	931.200012207031
1389.13297877262	929.799987792969
1389.77984597649	928.799987792969
1390.42662964899	928
1391.07332979768	925.599975585938
1391.71994643015	923.400024414063
1392.36647955395	925.200012207031
1393.01292917667	926.799987792969
1393.65929530586	926
1394.3055779491	924.200012207031
1394.95177711395	924.799987792969
1395.59789280799	925.799987792969
1396.24392503877	924.799987792969
1396.88987381387	925.599975585938
1397.53573914086	921.599975585938
1398.1815210273	927.400024414063
1398.82721948075	925.400024414063
1399.47283450878	926.200012207031
1400.11836611897	923.599975585938
1400.76381431886	923
1401.40917911603	930.200012207031
1402.05446051805	930
1402.69965853247	931.799987792969
1403.34477316686	929.799987792969
1403.98980442878	926.599975585938
1404.6347523258	927.400024414063
1405.27961686548	932
1405.92439805538	929.400024414063
1406.56909590306	926.400024414063
1407.21371041608	929.200012207031
1407.85824160202	925.400024414063
1408.50268946841	929
1409.14705402284	924.599975585938
1409.79133527285	923.400024414063
1410.43553322601	927.200012207031
1411.07964788987	927.799987792969
1411.723679272	922.599975585938
1412.36762737996	924.799987792969
1413.01149222129	926.599975585938
1413.65527380357	925.200012207031
1414.29897213435	926.799987792969
1414.94258722118	931.599975585938
1415.58611907163	931.799987792969
1416.22956769325	926.799987792969
1416.87293309359	925.599975585938
1417.51621528021	928
1418.15941426067	930.200012207031
1418.80253004253	925.200012207031
1419.44556263333	929.799987792969
1420.08851204063	930.799987792969
1420.731378272	925.799987792969
1421.37416133497	926.200012207031
1422.0168612371	927.400024414063
1422.65947798596	927
1423.30201158908	927.200012207031
1423.94446205403	924.599975585938
1424.58682938835	925.200012207031
1425.2291135996	921.799987792969
1425.87131469532	926.599975585938
1426.51343268308	931.599975585938
1427.15546757042	926.400024414063
1427.79741936488	930.400024414063
1428.43928807403	932.200012207031
1429.0810737054	925.799987792969
1429.72277626656	929
1430.36439576504	924.799987792969
1431.00593220841	925.200012207031
1431.64738560419	925.400024414063
1432.28875595995	923.400024414063
1432.93004328324	926.200012207031
1433.57124758159	926.400024414063
1434.21236886255	922.400024414063
1434.85340713368	927.599975585938
1435.49436240252	929.599975585938
1436.13523467661	922.599975585938
1436.77602396349	925.799987792969
1437.41673027073	927.599975585938
1438.05735360585	926.799987792969
1438.69789397641	930
1439.33835138994	926.799987792969
1439.978725854	928.200012207031
1440.61901737612	932.599975585938
1441.25922596385	933.200012207031
1441.89935162473	933.200012207031
1442.53939436631	930.599975585938
1443.17935419612	928
1443.81923112171	932
1444.45902515061	925
1445.09873629038	929.400024414063
1445.73836454854	924.200012207031
1446.37790993265	927.599975585938
1447.01737245024	929
1447.65675210885	927.200012207031
1448.29604891602	930.200012207031
1448.93526287928	927.599975585938
1449.57439400618	923
1450.21344230426	930
1450.85240778105	931.200012207031
1451.49129044409	931.799987792969
1452.13009030092	928.599975585938
1452.76880735907	926.599975585938
1453.40744162608	926.400024414063
1454.04599310949	931.400024414063
1454.68446181683	926.400024414063
1455.32284775564	926
1455.96115093345	930.599975585938
1456.5993713578	928
1457.23750903623	925.799987792969
1457.87556397626	926.599975585938
1458.51353618543	929.200012207031
1459.15142567127	923.799987792969
1459.78923244132	922.200012207031
1460.42695650311	924.599975585938
1461.06459786417	921.200012207031
1461.70215653203	927.400024414063
1462.33963251423	920.799987792969
1462.97702581829	921.599975585938
1463.61433645175	925.200012207031
1464.25156442214	921.799987792969
1464.88870973699	924.200012207031
1465.52577240382	923.599975585938
1466.16275243017	924.799987792969
1466.79964982356	921
1467.43646459154	919.599975585938
1468.07319674161	921.599975585938
1468.70984628132	921.599975585938
1469.34641321818	923
1469.98289755974	922.799987792969
1470.6192993135	924
1471.25561848701	925.799987792969
1471.89185508779	924.599975585938
1472.52800912336	925.400024414063
1473.16408060124	926.599975585938
1473.80006952897	926.599975585938
1474.43597591407	925.200012207031
1475.07179976406	923.400024414063
1475.70754108647	925.400024414063
1476.34319988883	925.799987792969
1476.97877617865	929.200012207031
1477.61426996345	923.400024414063
1478.24968125077	924.200012207031
1478.88501004812	925
1479.52025636303	925.599975585938
1480.15542020302	926.799987792969
1480.79050157561	921.799987792969
1481.42550048832	929.200012207031
1482.06041694867	928.200012207031
1482.69525096418	930.400024414063
1483.33000254237	927.799987792969
1483.96467169077	930
1484.59925841689	925
1485.23376272825	925.200012207031
1485.86818463237	925.400024414063
1486.50252413677	924.799987792969
1487.13678124896	925.400024414063
1487.77095597646	923.799987792969
1488.4050483268	926.200012207031
1489.03905830749	923.200012207031
1489.67298592604	926.200012207031
1490.30683118996	923.599975585938
1490.9405941068	926
1491.57427468403	924.599975585938
1492.2078729292	921.799987792969
1492.84138884981	923
1493.47482245338	926
1494.10817374742	922.799987792969
1494.74144273944	927.200012207031
1495.37462943696	925.799987792969
1496.0077338475	926
1496.64075597856	925.599975585938
1497.27369583765	920.599975585938
1497.9065534323	927.599975585938
1498.53932877001	930
1499.17202185829	926.599975585938
1499.80463270465	929.200012207031
1500.43716131661	925.799987792969
1501.06960770167	926.200012207031
1501.70197186735	925.599975585938
1502.33425382116	926.599975585938
1502.96645357059	927.799987792969
1503.59857112317	927.400024414063
1504.23060648641	926.599975585938
1504.8625596678	935
1505.49443067486	925
1506.1262195151	927.799987792969
1506.75792619602	929.799987792969
1507.38955072513	934
1508.02109310993	932.400024414063
1508.65255335794	932.200012207031
1509.28393147666	928.200012207031
1509.91522747359	928.799987792969
1510.54644135624	925.799987792969
1511.17757313212	928
1511.80862280872	928.400024414063
1512.43959039356	929.400024414063
1513.07047589413	926.200012207031
1513.70127931795	927
1514.33200067251	926.799987792969
1514.96263996531	927.400024414063
1515.59319720386	925.599975585938
1516.22367239567	927.200012207031
1516.85406554822	926
1517.48437666903	927.599975585938
1518.1146057656	925.400024414063
1518.74475284542	923.200012207031
1519.374817916	928
1520.00480098483	923
1520.63470205942	925.200012207031
1521.26452114726	924
1521.89425825586	925
1522.52391339271	922.799987792969
1523.15348656531	924.599975585938
1523.78297778116	921.799987792969
1524.41238704775	921
1525.04171437259	919
1525.67095976317	918.400024414063
1526.30012322699	922.200012207031
1526.92920477154	921
1527.55820440432	922.599975585938
1528.18712213283	918.799987792969
1528.81595796455	919.599975585938
1529.44471190699	920.200012207031
1530.07338396764	921.400024414063
1530.70197415399	918
1531.33048247353	920.200012207031
1531.95890893377	920.599975585938
1532.58725354219	922.400024414063
1533.21551630629	922
1533.84369723356	923.799987792969
1534.47179633148	924.400024414063
1535.09981360757	927.400024414063
1535.72774906929	925.599975585938
1536.35560272415	925.799987792969
1536.98337457963	926.400024414063
1537.61106464323	926.400024414063
1538.23867292243	923
1538.86619942473	926.200012207031
1539.49364415762	923.400024414063
1540.12100712857	923.599975585938
1540.74828834509	925.200012207031
1541.37548781466	923.400024414063
1542.00260554478	923
1542.62964154291	919.799987792969
1543.25659581655	921.200012207031
1543.8834683732	923
1544.51025922034	921.599975585938
1545.13696836544	923.599975585938
1545.76359581601	925
1546.39014157952	922.400024414063
1547.01660566345	921.400024414063
1547.64298807531	924.599975585938
1548.26928882255	919.799987792969
1548.89550791269	919.599975585938
1549.52164535318	921.799987792969
1550.14770115153	921.400024414063
1550.77367531521	918.599975585938
1551.39956785171	919.200012207031
1552.0253787685	922.400024414063
1552.65110807307	919.599975585938
1553.2767557729	920.799987792969
1553.90232187548	929
1554.52780638828	922.400024414063
1555.15320931879	922
1555.77853067447	921.799987792969
1556.40377046282	921.200012207031
1557.02892869132	921
1557.65400536744	921.400024414063
1558.27900049866	917
1558.90391409247	920.200012207031
1559.52874615633	917.599975585938
1560.15349669773	923
1560.77816572414	917.599975585938
1561.40275324305	919.799987792969
1562.02725926192	922
1562.65168378824	925
1563.27602682948	924
1563.90028839311	919.200012207031
1564.52446848662	920.799987792969
1565.14856711748	919
1565.77258429316	926
1566.39652002113	921.799987792969
1567.02037430887	922.400024414063
1567.64414716387	922.799987792969
1568.26783859357	923.599975585938
1568.89144860547	921.799987792969
1569.51497720703	923.400024414063
1570.13842440573	921.200012207031
1570.76179020904	923.400024414063
1571.38507462442	921.799987792969
1572.00827765936	923.400024414063
1572.63139932132	926.599975585938
1573.25443961777	919
1573.87739855618	921
1574.50027614402	922.200012207031
1575.12307238877	921.799987792969
1575.74578729789	924
1576.36842087885	920.400024414063
1576.99097313912	922.799987792969
1577.61344408616	918.799987792969
1578.23583372745	920.799987792969
1578.85814207046	919.400024414063
1579.48036912264	924.599975585938
1580.10251489147	921.799987792969
1580.72457938441	917.200012207031
1581.34656260893	918.799987792969
1581.9684645725	917.200012207031
1582.59028528258	917.200012207031
1583.21202474663	921.799987792969
1583.83368297212	920.200012207031
1584.45525996652	921.799987792969
1585.07675573728	927.200012207031
1585.69817029188	921.599975585938
1586.31950363778	918.599975585938
1586.94075578243	919.599975585938
1587.5619267333	918.400024414063
1588.18301649786	917.599975585938
1588.80402508357	918.799987792969
1589.42495249788	918.200012207031
1590.04579874826	916
1590.66656384217	918.400024414063
1591.28724778707	917.799987792969
1591.90785059042	916
1592.52837225968	916
1593.14881280232	916.799987792969
1593.76917222578	914.599975585938
1594.38945053753	912
1595.00964774502	913.799987792969
1595.62976385573	919.400024414063
1596.24979887709	916
1596.86975281657	916.200012207031
1597.48962568164	915.799987792969
1598.10941747974	915.200012207031
1598.72912821832	919.400024414063
1599.34875790486	915.400024414063
1599.9683065468	919.599975585938
1600.58777415159	917.400024414063
1601.2071607267	919.599975585938
1601.82646627958	917.400024414063
1602.44569081769	920.400024414063
1603.06483434846	916.200012207031
1603.68389687937	913.400024414063
1604.30287841786	915.599975585938
1604.92177897139	917.200012207031
1605.54059854741	916.799987792969
1606.15933715337	916
1606.77799479672	912.599975585938
1607.39657148492	912.200012207031
1608.01506722542	915
1608.63348202566	912.599975585938
1609.2518158931	912.200012207031
1609.87006883519	912.400024414063
1610.48824085939	911.599975585938
1611.10633197312	913
1611.72434218386	917.799987792969
1612.34227149904	915.400024414063
1612.96011992612	913.799987792969
1613.57788747254	911.200012207031
1614.19557414575	912
1614.8131799532	909.799987792969
1615.43070490234	912.200012207031
1616.04814900061	911.599975585938
1616.66551225545	912.400024414063
1617.28279467433	911.400024414063
1617.89999626467	911.799987792969
1618.51711703393	912.400024414063
1619.13415698955	912.200012207031
1619.75111613898	910.599975585938
1620.36799448966	912.400024414063
1620.98479204903	911.599975585938
1621.60150882455	910.799987792969
1622.21814482364	910.599975585938
1622.83470005376	914
1623.45117452235	910.400024414063
1624.06756823685	913
1624.6838812047	912.599975585938
1625.30011343335	912
1625.91626493022	912.599975585938
1626.53233570278	912.200012207031
1627.14832575845	914
1627.76423510468	912.400024414063
1628.38006374891	910.799987792969
1628.99581169857	911.200012207031
1629.61147896111	911
1630.22706554397	910
1630.84257145457	910.200012207031
1631.45799670038	911
1632.07334128881	909.799987792969
1632.6886052273	911
1633.3037885233	910
1633.91889118425	909.799987792969
1634.53391321757	910.200012207031
1635.1488546307	912.799987792969
1635.76371543108	908.200012207031
1636.37849562616	910.799987792969
1636.99319522335	906.599975585938
1637.60781423009	909.200012207031
1638.22235265383	909.599975585938
1638.83681050198	910.400024414063
1639.451187782	909.400024414063
1640.0654845013	912.400024414063
1640.67970066734	916.599975585938
1641.29383628752	914.599975585938
1641.9078913693	915.599975585938
1642.5218659201	917
1643.13575994735	914.799987792969
1643.74957345849	911.599975585938
1644.36330646094	912.599975585938
1644.97695896213	917.799987792969
1645.59053096951	919
1646.20402249049	914.400024414063
1646.8174335325	919.400024414063
1647.43076410298	915.599975585938
1648.04401420935	917.599975585938
1648.65718385905	914.400024414063
1649.2702730595	919.799987792969
1649.88328181812	918.400024414063
1650.49621014236	914.200012207031
1651.10905803963	915
1651.72182551735	912.599975585938
1652.33451258297	914.799987792969
1652.9471192439	913.400024414063
1653.55964550757	914.200012207031
1654.1720913814	916.799987792969
1654.78445687283	911
1655.39674198926	913.599975585938
1656.00894673814	913
1656.62107112688	908.799987792969
1657.23311516291	905.799987792969
1657.84507885365	908
1658.45696220652	914.599975585938
1659.06876522895	912
1659.68048792835	907.400024414063
1660.29213031217	911
1660.90369238779	906.400024414063
1661.51517416267	906.799987792969
1662.12657564421	907.599975585938
1662.73789683984	906.799987792969
1663.34913775697	905.799987792969
1663.96029840303	908
1664.57137878544	904.400024414063
1665.18237891161	904.400024414063
1665.79329878897	907.400024414063
1666.40413842493	906
1667.01489782691	906.200012207031
1667.62557700233	905.799987792969
1668.2361759586	904
1668.84669470315	902.599975585938
1669.4571332434	899.400024414063
1670.06749158675	900
1670.67776974062	903.400024414063
1671.28796771243	902.400024414063
1671.8980855096	900.799987792969
1672.50812313954	901
1673.11808060967	901.400024414063
1673.72795792739	901.200012207031
1674.33775510013	897.400024414063
1674.9474721353	899
1675.55710904031	900.200012207031
1676.16666582257	901.599975585938
1676.7761424895	903.200012207031
1677.38553904851	895.799987792969
1677.99485550702	901.400024414063
1678.60409187243	901.599975585938
1679.21324815215	899.200012207031
1679.8223243536	900.400024414063
1680.43132048419	900
1681.04023655132	899.200012207031
1681.64907256241	901.599975585938
1682.25782852487	895.200012207031
1682.86650444611	900
1683.47510033353	896.599975585938
1684.08361619455	900.200012207031
1684.69205203657	898.200012207031
1685.300407867	901.599975585938
1685.90868369325	901.400024414063
1686.51687952272	899.799987792969
1687.12499536283	900
1687.73303122098	897.599975585938
1688.34098710457	900.799987792969
1688.94886302101	900.599975585938
1689.55665897772	897.799987792969
1690.16437498208	896
1690.77201104152	897.599975585938
1691.37956716342	899.599975585938
1691.9870433552	895.799987792969
1692.59443962426	899.599975585938
1693.20175597801	897
1693.80899242384	898.400024414063
1694.41614896916	899.200012207031
1695.02322562138	899.200012207031
1695.63022238789	899
1696.23713927609	896.599975585938
1696.8439762934	897
1697.4507334472	896.599975585938
1698.05741074491	897.799987792969
1698.66400819391	895.400024414063
1699.27052580161	897.599975585938
1699.87696357542	894.599975585938
1700.48332152272	897.400024414063
1701.08959965092	899.599975585938
1701.69579796742	899
1702.30191647962	897.200012207031
1702.90795519491	898.200012207031
1703.51391412069	897.400024414063
1704.11979326437	899.200012207031
1704.72559263332	897.799987792969
1705.33131223496	896.400024414063
1705.93695207668	896.599975585938
1706.54251216588	896.200012207031
1707.14799250994	895.599975585938
1707.75339311628	895.200012207031
1708.35871399227	895
1708.96395514532	900.200012207031
1709.56911658282	898
