634.948122577771	1291.80004882813
635.690341530823	1299.19995117188
636.43246851086	1301.80004882813
637.174503525845	1326.19995117188
637.916446583745	1323.59997558594
638.658297692538	1325.59997558594
639.400056860179	1322.59997558594
640.141724094637	1345.80004882813
640.883299403885	1327
641.62478279588	1320
642.366174278594	1311.19995117188
643.107473859989	1306.80004882813
643.848681548029	1307.40002441406
644.589797350679	1306
645.330821275901	1304.40002441406
646.071753331665	1302.40002441406
646.812593525922	1310.19995117188
647.553341866646	1303.19995117188
648.293998361798	1313.40002441406
649.03456301933	1317.80004882813
649.775035847216	1324.59997558594
650.515416853409	1322.40002441406
651.255706045874	1329
651.995903432568	1328.40002441406
652.736009021453	1326.80004882813
653.476022820486	1319.40002441406
654.215944837629	1330.80004882813
654.955775080842	1326.19995117188
655.695513558081	1326.59997558594
656.435160277301	1326
657.174715246465	1327
657.914178473527	1321.80004882813
658.653549966449	1339.19995117188
659.392829733176	1344.40002441406
660.132017781678	1346.80004882813
660.871114119901	1342.80004882813
661.610118755803	1359.59997558594
662.349031697343	1351.19995117188
663.087852952468	1358.59997558594
663.826582529139	1359.80004882813
664.565220435305	1349.59997558594
665.30376667892	1353.40002441406
666.04222126794	1350.59997558594
666.780584210316	1336.59997558594
667.518855514	1336.19995117188
668.25703518694	1332.19995117188
668.995123237096	1326.19995117188
669.733119672413	1330.40002441406
670.471024500842	1333.59997558594
671.208837730333	1344
671.946559368839	1338
672.684189424308	1335.80004882813
673.421727904689	1338.40002441406
674.159174817929	1329.19995117188
674.896530171977	1330.40002441406
675.633793974786	1340
676.370966234295	1346.19995117188
677.108046958461	1352.40002441406
677.845036155219	1337.40002441406
678.581933832528	1331
679.318739998323	1330.19995117188
680.055454660558	1335.59997558594
680.792077827172	1334.59997558594
681.528609506116	1333.80004882813
682.265049705331	1347.19995117188
683.001398432759	1337.59997558594
683.737655696349	1346
684.47382150404	1354.40002441406
685.20989586378	1354.40002441406
685.945878783503	1359.80004882813
686.68177027116	1334
687.417570334688	1330.80004882813
688.153278982032	1326
688.888896221129	1343.80004882813
689.624422059921	1353.19995117188
690.359856506349	1358.19995117188
691.095199568354	1356.19995117188
691.830451253874	1349.40002441406
692.565611570844	1358.40002441406
693.300680527212	1342.19995117188
694.03565813091	1342
694.770544389877	1361.19995117188
695.505339312053	1352
696.240042905372	1362
696.974655177772	1365
697.70917613719	1354
698.443605791561	1357.59997558594
699.177944148826	1348
699.912191216909	1344.19995117188
700.646347003755	1348.19995117188
701.380411517295	1349.40002441406
702.114384765465	1357.80004882813
702.848266756195	1344.59997558594
703.582057497421	1364.40002441406
704.315756997074	1363.59997558594
705.049365263089	1360.19995117188
705.782882303399	1369.59997558594
706.516308125936	1363.40002441406
707.249642738626	1359.19995117188
707.982886149403	1352
708.716038366204	1357.80004882813
709.449099396949	1354.19995117188
710.182069249577	1346.80004882813
710.914947932009	1341.59997558594
711.647735452181	1341.19995117188
712.380431818022	1334.19995117188
713.113037037454	1327.59997558594
713.845551118411	1333
714.577974068818	1347.19995117188
715.310305896604	1349.59997558594
716.042546609694	1351.40002441406
716.774696216013	1348
717.506754723493	1347.40002441406
718.238722140053	1356.40002441406
718.970598473624	1354
719.702383732127	1363.59997558594
720.43407792349	1355
721.165681055634	1353.59997558594
721.897193136486	1362.80004882813
722.628614173966	1352.59997558594
723.359944175997	1363
724.091183150505	1354.19995117188
724.822331105412	1367.80004882813
725.553388048638	1355.59997558594
726.284353988106	1345.80004882813
727.015228931734	1348.40002441406
727.746012887449	1355
728.476705863162	1361.40002441406
729.207307866803	1344.19995117188
729.937818906289	1348
730.668238989535	1346.40002441406
731.398568124459	1345
732.128806318986	1350.59997558594
732.858953581034	1361.59997558594
733.589009918514	1358.40002441406
734.318975339348	1360.80004882813
735.048849851452	1360.80004882813
735.778633462744	1349.59997558594
736.508326181137	1363.80004882813
737.237928014549	1368.80004882813
737.967438970897	1366.40002441406
738.696859058095	1372.59997558594
739.426188284054	1359
740.155426656692	1350.59997558594
740.884574183922	1349.59997558594
741.613630873659	1346
742.342596733815	1362
743.071471772302	1364
743.800255997034	1369.80004882813
744.528949415921	1355.59997558594
745.257552036877	1350.40002441406
745.986063867811	1362.19995117188
746.714484916638	1361.59997558594
747.442815191261	1374.59997558594
748.171054699597	1371.80004882813
748.899203449554	1367.80004882813
749.627261449039	1362.80004882813
750.355228705966	1356.80004882813
751.083105228239	1352.59997558594
751.810891023765	1353
752.538586100459	1358
753.266190466218	1350.80004882813
753.99370412896	1358.80004882813
754.721127096582	1355.19995117188
755.448459377	1337
756.175700978114	1327
756.902851907828	1338.59997558594
757.629912174055	1343
758.356881784688	1352.40002441406
759.083760747639	1353.59997558594
759.810549070817	1357.40002441406
760.537246762113	1352
761.263853829442	1362
761.990370280698	1354
762.716796123791	1345.40002441406
763.443131366618	1346.59997558594
764.169376017082	1349.80004882813
764.895530083085	1362.59997558594
765.621593572527	1365.19995117188
766.347566493312	1383.80004882813
767.073448853336	1394.80004882813
767.799240660502	1413.59997558594
768.524941922707	1422.19995117188
769.250552647854	1436.59997558594
769.976072843836	1443.19995117188
770.701502518551	1462
771.426841679905	1467.40002441406
772.152090335793	1474
772.877248494107	1483
773.602316162747	1460.59997558594
774.327293349609	1481.40002441406
775.052180062592	1476.80004882813
775.776976309589	1481.59997558594
776.501682098496	1454.40002441406
777.226297437206	1447.80004882813
777.950822333616	1448.80004882813
778.675256795621	1432.40002441406
779.399600831111	1432.80004882813
780.123854447983	1429.19995117188
780.84801765413	1412.59997558594
781.572090457441	1405.40002441406
782.296072865811	1391
783.019964887131	1388.19995117188
783.743766529297	1379
784.467477800194	1377.59997558594
785.191098707719	1365.19995117188
785.914629259756	1385.59997558594
786.638069464194	1384.40002441406
787.361419328932	1384.19995117188
788.084678861852	1379.19995117188
788.807848070845	1378.40002441406
789.530926963798	1384.19995117188
790.253915548602	1366.19995117188
790.976813833144	1354.80004882813
791.699621825307	1352.59997558594
792.422339532986	1360.80004882813
793.144966964061	1367.19995117188
793.86750412642	1370
794.589951027946	1375.59997558594
795.312307676536	1347.59997558594
796.03457408006	1364.19995117188
796.756750246417	1341.59997558594
797.478836183477	1356.80004882813
798.200831899137	1345.19995117188
798.92273740127	1339.19995117188
799.644552697769	1353.19995117188
800.36627779651	1357.19995117188
801.087912705374	1357.40002441406
801.809457432251	1335.59997558594
802.530911985017	1342.19995117188
803.252276371558	1334.40002441406
803.973550599748	1344.59997558594
804.694734677472	1338.40002441406
805.415828612611	1347
806.136832413045	1355.40002441406
806.857746086646	1357.80004882813
807.578569641305	1372.40002441406
808.299303084892	1355
809.019946425289	1368.80004882813
809.740499670372	1379.19995117188
810.460962828022	1382.80004882813
811.181335906114	1377.40002441406
811.901618912524	1364
812.621811855131	1365.80004882813
813.341914741809	1363.80004882813
814.061927580433	1361
814.781850378881	1355.80004882813
815.501683145025	1363.19995117188
816.221425886743	1353.59997558594
816.941078611903	1350
817.660641328387	1362.80004882813
818.380114044065	1372.59997558594
819.099496766808	1367.80004882813
819.818789504492	1366.19995117188
820.53799226499	1355.59997558594
821.257105056168	1350.80004882813
821.976127885904	1350.59997558594
822.695060762064	1354.40002441406
823.413903692525	1364.80004882813
824.132656685151	1355.80004882813
824.851319747817	1351
825.569892888388	1363
826.288376114739	1371.19995117188
827.006769434737	1368.19995117188
827.725072856249	1364.40002441406
828.443286387142	1355.40002441406
829.161410035285	1356.19995117188
829.87944380855	1343.59997558594
830.597387714798	1339.59997558594
831.315241761898	1337.40002441406
832.033005957715	1352.19995117188
832.750680310119	1350
833.468264826969	1342.19995117188
834.18575951614	1355.59997558594
834.903164385486	1345.40002441406
835.620479442878	1357.19995117188
836.337704696181	1358.19995117188
837.054840153255	1367.80004882813
837.771885821962	1355.40002441406
838.488841710172	1355.80004882813
839.20570782574	1354.59997558594
839.922484176531	1348.59997558594
840.639170770409	1364.19995117188
841.355767615231	1352.59997558594
842.072274718864	1341.40002441406
842.788692089164	1348
843.505019733993	1353.80004882813
844.221257661209	1357.80004882813
844.937405878676	1358.19995117188
845.65346439425	1362.80004882813
846.369433215789	1363.59997558594
847.085312351156	1344.19995117188
847.801101808205	1356.59997558594
848.516801594793	1356.40002441406
849.232411718781	1360
849.947932188021	1347.80004882813
850.663363010376	1337
851.378704193698	1343.40002441406
852.093955745842	1358.80004882813
852.809117674669	1345.40002441406
853.524189988028	1346.19995117188
854.239172693778	1349.59997558594
854.954065799768	1361.59997558594
855.668869313857	1360.19995117188
856.383583243899	1357.19995117188
857.098207597743	1355.40002441406
857.812742383246	1347
858.527187608255	1342.40002441406
859.241543280628	1338.19995117188
859.955809408218	1335
860.669985998868	1336.59997558594
861.384073060437	1344.59997558594
862.098070600772	1354.59997558594
862.811978627724	1353.59997558594
863.52579714914	1330.80004882813
864.239526172873	1336.59997558594
864.953165706776	1344
865.666715758687	1348.80004882813
866.380176336464	1346.40002441406
867.093547447951	1350
867.806829100996	1349.80004882813
868.520021303444	1360
869.233124063149	1355.19995117188
869.94613738795	1347.19995117188
870.659061285693	1342.19995117188
871.37189576423	1347.59997558594
872.084640831403	1357.80004882813
872.797296495057	1359.59997558594
873.509862763039	1363.80004882813
874.22233964319	1358.40002441406
874.934727143353	1341.40002441406
875.647025271374	1338.40002441406
876.359234035097	1353
877.071353442361	1338.40002441406
877.783383501015	1342.59997558594
878.495324218895	1353.59997558594
879.207175603844	1353.59997558594
879.918937663705	1349.59997558594
880.630610406318	1349
881.342193839524	1344.80004882813
882.053687971161	1353.19995117188
882.765092809069	1351.19995117188
883.476408361091	1357
884.187634635066	1353.59997558594
884.898771638828	1346.40002441406
885.609819380221	1354.80004882813
886.320777867076	1350
887.031647107236	1338
887.742427108536	1337.40002441406
888.453117878816	1339
889.16371942591	1332.19995117188
889.874231757652	1337.80004882813
890.584654881883	1350.59997558594
891.294988806434	1344
892.005233539141	1339.80004882813
892.715389087837	1343.40002441406
893.42545546036	1338.19995117188
894.135432664543	1338.80004882813
894.845320708216	1327.80004882813
895.555119599216	1336.80004882813
896.264829345375	1341.59997558594
896.974449954526	1342.80004882813
897.683981434496	1318.19995117188
898.393423793125	1327.19995117188
899.102777038235	1326.40002441406
899.812041177664	1332.40002441406
900.521216219239	1339.19995117188
901.230302170793	1335.19995117188
901.939299040155	1327.80004882813
902.64820683515	1335.19995117188
903.357025563612	1339.80004882813
904.065755233368	1322
904.774395852247	1321.80004882813
905.482947428076	1316.40002441406
906.191409968682	1320.19995117188
906.899783481897	1325.80004882813
907.608067975538	1344
908.316263457443	1348.80004882813
909.02436993543	1362.40002441406
909.732387417327	1356.80004882813
910.440315910959	1357.40002441406
911.148155424154	1353.19995117188
911.855905964731	1334.19995117188
912.563567540521	1334.59997558594
913.271140159339	1329.19995117188
913.978623829017	1329.40002441406
914.686018557374	1340.19995117188
915.393324352237	1343.19995117188
916.100541221421	1345.80004882813
916.807669172752	1341
917.514708214054	1355.40002441406
918.221658353142	1349.19995117188
918.928519597843	1339.40002441406
919.635291955976	1338
920.341975435358	1326.40002441406
921.048570043813	1325.80004882813
921.75507578916	1314.80004882813
922.461492679212	1322.19995117188
923.167820721795	1339.19995117188
923.874059924726	1351.19995117188
924.58021029582	1349.40002441406
925.286271842893	1358.80004882813
925.992244573769	1360
926.698128496262	1355
927.403923618184	1367.40002441406
928.109629947355	1357.19995117188
928.815247491593	1357
929.520776258708	1357
930.226216256519	1355.19995117188
930.931567492841	1360.40002441406
931.636829975482	1364.59997558594
932.342003712263	1375.40002441406
933.047088710995	1353.59997558594
933.752084979491	1351.80004882813
934.456992525564	1337
935.161811357024	1330
935.866541481688	1328.40002441406
936.571182907363	1328.80004882813
937.275735641861	1315
937.980199692995	1321.19995117188
938.684575068572	1320.19995117188
939.388861776411	1318
940.093059824311	1309.59997558594
940.797169220085	1327
941.501189971544	1327.80004882813
942.205122086495	1319.80004882813
942.908965572751	1319.59997558594
943.612720438111	1325.19995117188
944.316386690391	1328.59997558594
945.019964337391	1324.80004882813
945.723453386924	1314.40002441406
946.426853846795	1326.19995117188
947.130165724808	1324.40002441406
947.83338902877	1311.80004882813
948.536523766488	1310.19995117188
949.239569945764	1315.80004882813
949.942527574402	1323.40002441406
950.64539666021	1319.80004882813
951.348177210993	1314.59997558594
952.050869234548	1315.80004882813
952.753472738683	1325.80004882813
953.455987731199	1316.80004882813
954.158414219898	1309.80004882813
954.860752212587	1315.59997558594
955.563001717061	1317.80004882813
956.265162741124	1319.19995117188
956.967235292576	1306.59997558594
957.669219379224	1308.19995117188
958.371115008857	1308
959.072922189283	1299
959.774640928301	1321.40002441406
960.476271233708	1314.80004882813
961.177813113301	1303
961.879266574882	1308
962.580631626248	1309.40002441406
963.281908275194	1301.19995117188
963.98309652952	1305.59997558594
964.684196397022	1296.59997558594
965.3852078855	1308.19995117188
966.086131002745	1309.19995117188
966.786965756555	1305.80004882813
967.487712154726	1315.19995117188
968.188370205055	1311.40002441406
968.888939915331	1305.19995117188
969.589421293352	1305.19995117188
970.289814346909	1305.19995117188
970.990119083801	1314.19995117188
971.690335511819	1319.80004882813
972.39046363875	1315.40002441406
973.090503472398	1304.40002441406
973.790455020545	1304.59997558594
974.490318290987	1312.40002441406
975.190093291516	1314.19995117188
975.889780029923	1320
976.589378513998	1312.80004882813
977.288888751527	1309.59997558594
977.988310750308	1312.59997558594
978.687644518122	1323
979.386890062767	1314.59997558594
980.086047392025	1317.80004882813
980.785116513689	1307.80004882813
981.484097435542	1314
982.182990165377	1308.80004882813
982.88179471098	1311
983.580511080137	1308.19995117188
984.279139280632	1311.80004882813
984.977679320253	1320.40002441406
985.67613120679	1313.40002441406
986.374494948027	1329.19995117188
987.072770551745	1332.59997558594
987.770958025731	1321
988.469057377772	1315.40002441406
989.167068615649	1316.40002441406
989.864991747145	1310.40002441406
990.562826780047	1298.80004882813
991.260573722134	1295.80004882813
991.958232581195	1292.59997558594
992.655803365003	1295.40002441406
993.353286081346	1300.40002441406
994.050680738006	1299.59997558594
994.74798734276	1318.80004882813
995.44520590339	1316.59997558594
996.142336427681	1299.59997558594
996.839378923407	1293.59997558594
997.536333398348	1299.40002441406
998.233199860289	1294.40002441406
998.929978317004	1290.40002441406
999.626668776274	1317.19995117188
1000.32327124587	1308.40002441406
1001.01978573359	1302.80004882813
1001.71621224718	1316.19995117188
1002.41255079445	1315.59997558594
1003.10880138315	1307.80004882813
1003.80496402107	1306.19995117188
1004.50103871599	1308
1005.19702547567	1307
1005.8929243079	1313.40002441406
1006.58873522045	1318
1007.2844582211	1318.80004882813
1007.98009331761	1311.19995117188
1008.67564051776	1314.80004882813
1009.37109982933	1322.80004882813
1010.06647126009	1321.19995117188
1010.7617548178	1308
1011.45695051026	1325.40002441406
1012.15205834522	1318.40002441406
1012.84707833045	1324.40002441406
1013.54201047373	1324
1014.23685478284	1317.40002441406
1014.93161126553	1330.40002441406
1015.62627992959	1326.40002441406
1016.32086078277	1326.59997558594
1017.01535383285	1321.19995117188
1017.70975908761	1318.19995117188
1018.40407655479	1314.80004882813
1019.09830624219	1310.59997558594
1019.79244815755	1313.40002441406
1020.48650230866	1298.40002441406
1021.18046870328	1314.40002441406
1021.87434734917	1312.19995117188
1022.56813825411	1318.19995117188
1023.26184142584	1312.19995117188
1023.95545687216	1309.59997558594
1024.64898460082	1307.19995117188
1025.34242461957	1305
1026.0357769362	1310.40002441406
1026.72904155846	1306.40002441406
1027.42221849412	1311.59997558594
1028.11530775094	1306.19995117188
1028.80830933668	1298.19995117188
1029.50122325911	1296.80004882813
1030.19404952599	1300.80004882813
1030.88678814508	1313
1031.57943912414	1299
1032.27200247093	1295.80004882813
1032.96447819323	1302.19995117188
1033.65686629878	1294.40002441406
1034.34916679534	1291
1035.04137969068	1295
1035.73350499256	1292
1036.42554270874	1307.19995117188
1037.11749284697	1302.19995117188
1037.80935541501	1297.59997558594
1038.50113042062	1305.40002441406
1039.19281787156	1306.19995117188
1039.88441777559	1293.80004882813
1040.57593014046	1292.19995117188
1041.26735497393	1299.19995117188
1041.95869228376	1294
1042.6499420777	1286
1043.3411043635	1293.80004882813
1044.03217914893	1296.80004882813
1044.72316644174	1300.80004882813
1045.41406624968	1306.19995117188
1046.1048785805	1304.19995117188
1046.79560344197	1294
1047.48624084182	1289
1048.17679078783	1286.80004882813
1048.86725328774	1282.80004882813
1049.55762834929	1294.19995117188
1050.24791598025	1289.80004882813
1050.93811618837	1290.19995117188
1051.62822898139	1290.59997558594
1052.31825436707	1286.80004882813
1053.00819235315	1290.19995117188
1053.6980429474	1276
1054.38780615755	1284
1055.07748199136	1281.19995117188
1055.76707045658	1281.19995117188
1056.45657156095	1271.80004882813
1057.14598531222	1281
1057.83531171814	1271.59997558594
1058.52455078646	1288.40002441406
1059.21370252494	1281.40002441406
1059.90276694129	1302
1060.5917440433	1276.80004882813
1061.28063383868	1284.80004882813
1061.9694363352	1300.40002441406
1062.65815154059	1292.80004882813
1063.34677946261	1289.80004882813
1064.03532010899	1289.59997558594
1064.72377348748	1292.19995117188
1065.41213960583	1288.19995117188
1066.10041847177	1291.40002441406
1066.78861009306	1284.40002441406
1067.47671447743	1275
1068.16473163263	1274.59997558594
1068.85266156639	1277.80004882813
1069.54050428647	1273.80004882813
1070.2282598006	1270.59997558594
1070.91592811652	1280.19995117188
1071.60350924198	1274
1072.29100318471	1284
1072.97840995245	1283.19995117188
1073.66572955295	1278.80004882813
1074.35296199394	1277.40002441406
1075.04010728316	1273.40002441406
1075.72716542836	1272.40002441406
1076.41413643726	1266.19995117188
1077.10102031761	1258
1077.78781707715	1255.40002441406
1078.4745267236	1259.40002441406
1079.16114926471	1266
1079.84768470822	1266.59997558594
1080.53413306185	1273.59997558594
1081.22049433336	1268.19995117188
1081.90676853046	1282
1082.5929556609	1289.40002441406
1083.27905573241	1293.40002441406
1083.96506875272	1297.40002441406
1084.65099472957	1282.19995117188
1085.3368336707	1289.19995117188
1086.02258558383	1300.19995117188
1086.70825047669	1292.80004882813
1087.39382835703	1279.80004882813
1088.07931923257	1292.80004882813
1088.76472311104	1289.80004882813
1089.45004000018	1286.19995117188
1090.13526990771	1281.59997558594
1090.82041284137	1269.59997558594
1091.50546880889	1267.19995117188
1092.19043781799	1283.40002441406
1092.87531987642	1289.80004882813
1093.56011499188	1293.80004882813
1094.24482317212	1300.59997558594
1094.92944442486	1292.59997558594
1095.61397875783	1287.59997558594
1096.29842617876	1293.59997558594
1096.98278669537	1273.59997558594
1097.6670603154	1285.80004882813
1098.35124704656	1280.19995117188
1099.03534689659	1280.40002441406
1099.71935987322	1274.40002441406
1100.40328598416	1276
1101.08712523713	1277.80004882813
1101.77087763988	1286.19995117188
1102.45454320012	1281.40002441406
1103.13812192557	1293.59997558594
1103.82161382396	1286.19995117188
1104.50501890301	1280.19995117188
1105.18833717045	1288.19995117188
1105.87156863399	1289.40002441406
1106.55471330137	1283.59997558594
1107.2377711803	1288.59997558594
1107.9207422785	1282.59997558594
1108.60362660369	1286.59997558594
1109.2864241636	1286.40002441406
1109.96913496594	1271
1110.65175901844	1257
1111.33429632882	1255.40002441406
1112.01674690479	1255.80004882813
1112.69911075408	1265.80004882813
1113.38138788439	1272.40002441406
1114.06357830346	1266
1114.745682019	1276.19995117188
1115.42769903872	1288.59997558594
1116.10962937035	1293.40002441406
1116.7914730216	1299.40002441406
1117.47323000018	1289.80004882813
1118.15490031382	1299.40002441406
1118.83648397022	1301.19995117188
1119.51798097712	1305.19995117188
1120.1993913422	1316.80004882813
1120.88071507321	1303.59997558594
1121.56195217784	1301.40002441406
1122.24310266381	1289.80004882813
1122.92416653884	1288
1123.60514381064	1292.19995117188
1124.28603448692	1290.40002441406
1124.9668385754	1291.80004882813
1125.64755608378	1292.59997558594
1126.32818701978	1295.40002441406
1127.00873139111	1272.40002441406
1127.68918920548	1274.40002441406
1128.3695604706	1275.59997558594
1129.04984519419	1289.19995117188
1129.73004338394	1291.40002441406
1130.41015504758	1285.80004882813
1131.09018019281	1287.19995117188
1131.77011882734	1299.19995117188
1132.44997095888	1299.19995117188
1133.12973659514	1298
1133.80941574381	1276
1134.48900841263	1274.40002441406
1135.16851460927	1282.19995117188
1135.84793434147	1278.19995117188
1136.52726761692	1284.19995117188
1137.20651444333	1277.59997558594
1137.8856748284	1287.80004882813
1138.56474877984	1286.19995117188
1139.24373630536	1285.59997558594
1139.92263741265	1279.80004882813
1140.60145210943	1271.19995117188
1141.28018040339	1270
1141.95882230225	1278
1142.6373778137	1280.19995117188
1143.31584694545	1285.40002441406
1143.99422970519	1292
1144.67252610064	1292.40002441406
1145.35073613949	1288.80004882813
1146.02885982944	1287.80004882813
1146.7068971782	1288.59997558594
1147.38484819347	1278.19995117188
1148.06271288294	1284.40002441406
1148.74049125432	1266.80004882813
1149.41818331531	1266.80004882813
1150.0957890736	1269.19995117188
1150.77330853689	1271.40002441406
1151.45074171289	1273.80004882813
1152.12808860928	1267.19995117188
1152.80534923378	1268.80004882813
1153.48252359407	1267.80004882813
1154.15961169786	1272.40002441406
1154.83661355283	1261.40002441406
1155.51352916669	1258.40002441406
1156.19035854713	1271.59997558594
1156.86710170185	1268.80004882813
1157.54375863855	1270.19995117188
1158.22032936491	1263.59997558594
1158.89681388863	1261
1159.57321221741	1266
1160.24952435894	1260.80004882813
1160.92575032092	1260.40002441406
1161.60189011103	1267.80004882813
1162.27794373697	1261.59997558594
1162.95391120644	1260.80004882813
1163.62979252712	1262.19995117188
1164.3055877067	1269.19995117188
1164.98129675288	1266
1165.65691967336	1270.40002441406
1166.33245647581	1269
1167.00790716792	1281.80004882813
1167.6832717574	1267.19995117188
1168.35855025193	1265.19995117188
1169.0337426592	1264.19995117188
1169.70884898689	1265.59997558594
1170.3838692427	1251
1171.05880343431	1269.80004882813
1171.73365156941	1279.40002441406
1172.40841365569	1282.59997558594
1173.08308970083	1292
1173.75767971253	1287.80004882813
1174.43218369847	1302.59997558594
1175.10660166633	1288.80004882813
1175.7809336238	1288.59997558594
1176.45517957857	1289.19995117188
1177.12933953832	1285
1177.80341351073	1292.40002441406
1178.47740150349	1291
1179.15130352429	1293.59997558594
1179.8251195808	1304
1180.49884968071	1313.59997558594
1181.1724938317	1301.80004882813
1181.84605204145	1314.40002441406
1182.51952431766	1296.19995117188
1183.19291066799	1295.40002441406
1183.86621110013	1290.59997558594
1184.53942562176	1296
1185.21255424057	1285.19995117188
1185.88559696422	1280.59997558594
1186.55855380041	1276.59997558594
1187.2314247568	1305.19995117188
1187.90420984109	1291.80004882813
1188.57690906095	1290.59997558594
1189.24952242405	1290.80004882813
1189.92204993808	1312.59997558594
1190.59449161071	1309.59997558594
1191.26684744962	1320
1191.93911746249	1320.40002441406
1192.61130165699	1322.80004882813
1193.28340004081	1308.59997558594
1193.95541262161	1300.19995117188
1194.62733940707	1288.59997558594
1195.29918040487	1289.80004882813
1195.97093562269	1296.40002441406
1196.64260506819	1299.59997558594
1197.31418874905	1280.59997558594
1197.98568667295	1281.19995117188
1198.65709884755	1276.40002441406
1199.32842528053	1288.59997558594
1199.99966597957	1293
1200.67082095234	1288
1201.3418902065	1277.80004882813
1202.01287374974	1280.80004882813
1202.68377158971	1279
1203.3545837341	1271.19995117188
1204.02531019057	1276
1204.6959509668	1271.19995117188
1205.36650607045	1265.59997558594
1206.03697550919	1271
1206.70735929069	1269.80004882813
1207.37765742263	1272.19995117188
1208.04786991266	1273.19995117188
1208.71799676846	1256.59997558594
1209.38803799769	1263.19995117188
1210.05799360803	1267.59997558594
1210.72786360714	1264.59997558594
1211.39764800268	1259.19995117188
1212.06734680233	1259.40002441406
1212.73696001375	1247.80004882813
1213.4064876446	1244.19995117188
1214.07592970255	1250
1214.74528619526	1250.40002441406
1215.4145571304	1242.59997558594
1216.08374251564	1235.19995117188
1216.75284235863	1245.80004882813
1217.42185666704	1237.80004882813
1218.09078544854	1243.59997558594
1218.75962871078	1237
1219.42838646143	1239.80004882813
1220.09705870816	1230.59997558594
1220.76564545861	1240.80004882813
1221.43414672046	1243.80004882813
1222.10256250136	1239
1222.77089280898	1249
1223.43913765098	1243
1224.107297035	1254.19995117188
1224.77537096873	1252.40002441406
1225.44335945981	1255
1226.1112625159	1253.80004882813
1226.77908014467	1258.19995117188
1227.44681235376	1257.59997558594
1228.11445915085	1255.59997558594
1228.78202054357	1257
1229.44949653961	1263.40002441406
1230.11688714659	1259.19995117188
1230.7841923722	1251.59997558594
1231.45141222407	1253.59997558594
1232.11854670988	1243
1232.78559583726	1245.40002441406
1233.45255961388	1246.19995117188
1234.1194380474	1254
1234.78623114546	1246.80004882813
1235.45293891572	1246.40002441406
1236.11956136583	1249.80004882813
1236.78609850345	1244.80004882813
1237.45255033623	1260.19995117188
1238.11891687182	1241.80004882813
1238.78519811788	1249.19995117188
1239.45139408205	1245.40002441406
1240.11750477198	1252.59997558594
1240.78353019534	1241.59997558594
1241.44947035976	1239
1242.11532527291	1244.19995117188
1242.78109494242	1249.59997558594
1243.44677937595	1244.19995117188
1244.11237858115	1236.40002441406
1244.77789256567	1238.40002441406
1245.44332133715	1232.59997558594
1246.10866490325	1224.40002441406
1246.7739232716	1242
1247.43909644987	1250.59997558594
1248.10418444569	1250.19995117188
1248.76918726671	1239.40002441406
1249.43410492059	1236.19995117188
1250.09893741496	1234.59997558594
1250.76368475747	1221.19995117188
1251.42834695576	1226.59997558594
1252.09292401749	1227
1252.75741595029	1218
1253.42182276182	1221.59997558594
1254.08614445971	1229.19995117188
1254.75038105161	1226
1255.41453254515	1237.59997558594
1256.07859894799	1244.40002441406
1256.74258026777	1238.59997558594
1257.40647651213	1254.59997558594
1258.0702876887	1240
1258.73401380514	1248.59997558594
1259.39765486908	1254.40002441406
1260.06121088817	1248.80004882813
1260.72468187004	1242.80004882813
1261.38806782233	1247.59997558594
1262.05136875269	1242.80004882813
1262.71458466875	1244.80004882813
1263.37771557815	1239.19995117188
1264.04076148854	1240.59997558594
1264.70372240753	1235.19995117188
1265.3665983428	1244
1266.02938930195	1238.80004882813
1266.69209529263	1241.59997558594
1267.35471632249	1251.40002441406
1268.01725239914	1243.80004882813
1268.67970353024	1236
1269.34206972342	1234.19995117188
1270.00435098631	1242.19995117188
1270.66654732655	1231.80004882813
1271.32865875177	1228.40002441406
1271.9906852696	1227.19995117188
1272.65262688768	1238
1273.31448361365	1238.59997558594
1273.97625545514	1238
1274.63794241978	1232.19995117188
1275.2995445152	1227.40002441406
1275.96106174903	1230
1276.62249412892	1239.59997558594
1277.28384166248	1243.59997558594
1277.94510435735	1243.59997558594
1278.60628222116	1239.19995117188
1279.26737526155	1241.59997558594
1279.92838348613	1225.19995117188
1280.58930690255	1232
1281.25014551842	1216
1281.91089934139	1216.80004882813
1282.57156837907	1213.59997558594
1283.2321526391	1209.59997558594
1283.89265212911	1219.59997558594
1284.55306685671	1215
1285.21339682955	1222.59997558594
1285.87364205525	1222.59997558594
1286.53380254142	1209.80004882813
1287.19387829571	1201.40002441406
1287.85386932573	1206.19995117188
1288.51377563911	1198
1289.17359724348	1213.59997558594
1289.83333414646	1211.59997558594
1290.49298635567	1220
1291.15255387874	1238.59997558594
1291.8120367233	1238.80004882813
1292.47143489696	1251
1293.13074840736	1253
1293.7899772621	1254.59997558594
1294.44912146882	1244
1295.10818103513	1247.40002441406
1295.76715596866	1233.80004882813
1296.42604627704	1232
1297.08485196787	1232.19995117188
1297.74357304878	1231
1298.4022095274	1217
1299.06076141134	1221.80004882813
1299.71922870821	1237.19995117188
1300.37761142565	1237.40002441406
1301.03590957126	1250.80004882813
1301.69412315268	1248.80004882813
1302.3522521775	1253
1303.01029665336	1239.19995117188
1303.66825658787	1241.19995117188
1304.32613198865	1240.59997558594
1304.98392286332	1245
1305.64162921948	1260.19995117188
1306.29925106476	1266
1306.95678840677	1258.19995117188
1307.61424125312	1242.80004882813
1308.27160961145	1249.19995117188
1308.92889348934	1253
1309.58609289443	1249.19995117188
1310.24320783432	1261.19995117188
1310.90023831664	1258.19995117188
1311.55718434898	1260.19995117188
1312.21404593897	1261.59997558594
1312.87082309421	1256.19995117188
1313.52751582233	1256
1314.18412413092	1247.59997558594
1314.84064802761	1246.40002441406
1315.49708752	1240.80004882813
1316.1534426157	1239.80004882813
1316.80971332233	1250.59997558594
1317.46589964749	1254.40002441406
1318.1220015988	1252.59997558594
1318.77801918386	1254.40002441406
1319.43395241028	1259.80004882813
1320.08980128567	1258
1320.74556581764	1259
1321.4012460138	1252.80004882813
1322.05684188176	1254.40002441406
1322.71235342911	1263.40002441406
1323.36778066347	1247
1324.02312359245	1260.80004882813
1324.67838222365	1258.59997558594
1325.33355656468	1259.80004882813
1325.98864662314	1245.80004882813
1326.64365240663	1252.59997558594
1327.29857392277	1244.59997558594
1327.95341117915	1236.80004882813
1328.60816418339	1231.59997558594
1329.26283294308	1235.59997558594
1329.91741746582	1228.59997558594
1330.57191775923	1223.19995117188
1331.2263338309	1234.80004882813
1331.88066568843	1221.40002441406
1332.53491333943	1229.40002441406
1333.1890767915	1232.19995117188
1333.84315605224	1242
1334.49715112925	1247.19995117188
1335.15106203013	1233.59997558594
1335.80488876249	1237.40002441406
1336.45863133391	1220.80004882813
1337.112289752	1234.19995117188
1337.76586402437	1225
1338.4193541586	1227.59997558594
1339.0727601623	1225.80004882813
1339.72608204306	1239.59997558594
1340.37931980849	1234.19995117188
1341.03247346617	1235
1341.68554302372	1249.59997558594
1342.33852848871	1247.19995117188
1342.99142986876	1249.80004882813
1343.64424717145	1245.40002441406
1344.29698040438	1240.59997558594
1344.94962957515	1244
1345.60219469135	1254.19995117188
1346.25467576058	1252.19995117188
1346.90707279042	1263.59997558594
1347.55938578848	1272.59997558594
1348.21161476235	1258.19995117188
1348.86375971962	1256.19995117188
1349.51582066787	1248.40002441406
1350.16779761472	1253.19995117188
1350.81969056774	1271.80004882813
1351.47149953453	1259.59997558594
1352.12322452269	1268.59997558594
1352.77486553979	1277.40002441406
1353.42642259344	1279.59997558594
1354.07789569122	1288.19995117188
1354.72928484072	1292.59997558594
1355.38059004953	1297.59997558594
1356.03181132525	1311.59997558594
1356.68294867545	1308
1357.33400210773	1319.19995117188
1357.98497162968	1305
1358.63585724889	1321.40002441406
1359.28665897294	1313
1359.93737680942	1319.19995117188
1360.58801076591	1320.19995117188
1361.23856085001	1318.19995117188
1361.88902706929	1314.19995117188
1362.53940943135	1316.19995117188
1363.18970794377	1315.80004882813
1363.83992261413	1314.59997558594
1364.49005345003	1315.40002441406
1365.14010045904	1318
1365.79006364874	1316.80004882813
1366.43994302673	1312.40002441406
1367.08973860058	1311.59997558594
1367.73945037788	1316.19995117188
1368.38907836621	1306.19995117188
1369.03862257315	1290.19995117188
1369.68808300629	1285.40002441406
1370.3374596732	1273.59997558594
1370.98675258148	1266.59997558594
1371.63596173868	1274.80004882813
1372.28508715241	1269.59997558594
1372.93412883024	1265.19995117188
1373.58308677974	1267
1374.2319610085	1257.80004882813
1374.8807515241	1249
1375.52945833412	1247.40002441406
1376.17808144612	1233.59997558594
1376.82662086771	1238.40002441406
1377.47507660644	1223.40002441406
1378.12344866989	1228.40002441406
1378.77173706565	1228.59997558594
1379.41994180129	1221.40002441406
1380.06806288439	1211.19995117188
1380.71610032252	1218.59997558594
1381.36405412326	1230.80004882813
1382.01192429419	1227.19995117188
1382.65971084287	1228
1383.30741377688	1225.40002441406
1383.95503310381	1220.80004882813
1384.60256883121	1216.59997558594
1385.25002096667	1224.40002441406
1385.89738951775	1227.40002441406
1386.54467449204	1226.40002441406
1387.19187589709	1225.80004882813
1387.8389937405	1211
1388.48602802982	1218.59997558594
1389.13297877262	1220
1389.77984597649	1224
1390.42662964899	1217.19995117188
1391.07332979768	1199.59997558594
1391.71994643015	1210.59997558594
1392.36647955395	1206
1393.01292917667	1196.40002441406
1393.65929530586	1191.59997558594
1394.3055779491	1203.40002441406
1394.95177711395	1197
1395.59789280799	1193.59997558594
1396.24392503877	1204.59997558594
1396.88987381387	1201.80004882813
1397.53573914086	1194.59997558594
1398.1815210273	1207.80004882813
1398.82721948075	1200.40002441406
1399.47283450878	1206.19995117188
1400.11836611897	1203.80004882813
1400.76381431886	1210
1401.40917911603	1208.59997558594
1402.05446051805	1209.40002441406
1402.69965853247	1203
1403.34477316686	1211.80004882813
1403.98980442878	1208.80004882813
1404.6347523258	1202
1405.27961686548	1210.19995117188
1405.92439805538	1200.80004882813
1406.56909590306	1206.80004882813
1407.21371041608	1212
1407.85824160202	1193.80004882813
1408.50268946841	1199.59997558594
1409.14705402284	1186.80004882813
1409.79133527285	1185.19995117188
1410.43553322601	1195.59997558594
1411.07964788987	1196.40002441406
1411.723679272	1200.19995117188
1412.36762737996	1196.59997558594
1413.01149222129	1206.19995117188
1413.65527380357	1207.40002441406
1414.29897213435	1217.59997558594
1414.94258722118	1219.19995117188
1415.58611907163	1208.40002441406
1416.22956769325	1206.59997558594
1416.87293309359	1215
1417.51621528021	1211.19995117188
1418.15941426067	1204.80004882813
1418.80253004253	1209.80004882813
1419.44556263333	1200.59997558594
1420.08851204063	1194.19995117188
1420.731378272	1193.59997558594
1421.37416133497	1197
1422.0168612371	1199.80004882813
1422.65947798596	1214.80004882813
1423.30201158908	1213
1423.94446205403	1216.40002441406
1424.58682938835	1197
1425.2291135996	1198.80004882813
1425.87131469532	1203
1426.51343268308	1203.40002441406
1427.15546757042	1214
1427.79741936488	1200.40002441406
1428.43928807403	1205.59997558594
1429.0810737054	1210.40002441406
1429.72277626656	1198.40002441406
1430.36439576504	1200
1431.00593220841	1196.19995117188
1431.64738560419	1197.59997558594
1432.28875595995	1189.80004882813
1432.93004328324	1192.19995117188
1433.57124758159	1180.40002441406
1434.21236886255	1188.80004882813
1434.85340713368	1197.19995117188
1435.49436240252	1194.40002441406
1436.13523467661	1192.40002441406
1436.77602396349	1197.40002441406
1437.41673027073	1198
1438.05735360585	1201.59997558594
1438.69789397641	1192.19995117188
1439.33835138994	1189.40002441406
1439.978725854	1198.40002441406
1440.61901737612	1198.40002441406
1441.25922596385	1205.19995117188
1441.89935162473	1209.19995117188
1442.53939436631	1207.19995117188
1443.17935419612	1212.19995117188
1443.81923112171	1204.59997558594
1444.45902515061	1192.59997558594
1445.09873629038	1196.19995117188
1445.73836454854	1188.80004882813
1446.37790993265	1196.40002441406
1447.01737245024	1197.59997558594
1447.65675210885	1207.59997558594
1448.29604891602	1203.80004882813
1448.93526287928	1211.19995117188
1449.57439400618	1196.40002441406
1450.21344230426	1201
1450.85240778105	1194.19995117188
1451.49129044409	1188
1452.13009030092	1188.19995117188
1452.76880735907	1187.59997558594
1453.40744162608	1185.80004882813
1454.04599310949	1190.19995117188
1454.68446181683	1194.59997558594
1455.32284775564	1194
1455.96115093345	1196.59997558594
1456.5993713578	1200.19995117188
1457.23750903623	1204.40002441406
1457.87556397626	1195.80004882813
1458.51353618543	1195.80004882813
1459.15142567127	1191.80004882813
1459.78923244132	1193.40002441406
1460.42695650311	1188.59997558594
1461.06459786417	1183.19995117188
1461.70215653203	1186.40002441406
1462.33963251423	1187
1462.97702581829	1184.40002441406
1463.61433645175	1187.19995117188
1464.25156442214	1180.40002441406
1464.88870973699	1183.19995117188
1465.52577240382	1177.59997558594
1466.16275243017	1175.40002441406
1466.79964982356	1172.19995117188
1467.43646459154	1170.80004882813
1468.07319674161	1167.80004882813
1468.70984628132	1175.19995117188
1469.34641321818	1178
1469.98289755974	1182
1470.6192993135	1185
1471.25561848701	1191.19995117188
1471.89185508779	1187.80004882813
1472.52800912336	1199
1473.16408060124	1195.19995117188
1473.80006952897	1196
1474.43597591407	1192.80004882813
1475.07179976406	1182.40002441406
1475.70754108647	1182.59997558594
1476.34319988883	1189.40002441406
1476.97877617865	1188.40002441406
1477.61426996345	1195.59997558594
1478.24968125077	1193.80004882813
1478.88501004812	1192.40002441406
1479.52025636303	1191.59997558594
1480.15542020302	1193.19995117188
1480.79050157561	1195.59997558594
1481.42550048832	1206.59997558594
1482.06041694867	1198.80004882813
1482.69525096418	1199.19995117188
1483.33000254237	1201.19995117188
1483.96467169077	1194.19995117188
1484.59925841689	1190
1485.23376272825	1184.40002441406
1485.86818463237	1197.80004882813
1486.50252413677	1187.19995117188
1487.13678124896	1182.40002441406
1487.77095597646	1172.80004882813
1488.4050483268	1181.19995117188
1489.03905830749	1180.59997558594
1489.67298592604	1177.80004882813
1490.30683118996	1176.40002441406
1490.9405941068	1190
1491.57427468403	1187.19995117188
1492.2078729292	1186
1492.84138884981	1193.40002441406
1493.47482245338	1191.19995117188
1494.10817374742	1199
1494.74144273944	1197.40002441406
1495.37462943696	1197.40002441406
1496.0077338475	1198
1496.64075597856	1194.80004882813
1497.27369583765	1197.80004882813
1497.9065534323	1193.19995117188
1498.53932877001	1209.19995117188
1499.17202185829	1205.59997558594
1499.80463270465	1202.59997558594
1500.43716131661	1215.59997558594
1501.06960770167	1203.19995117188
1501.70197186735	1207.80004882813
1502.33425382116	1218
1502.96645357059	1217.19995117188
1503.59857112317	1209
1504.23060648641	1223.40002441406
1504.8625596678	1230
1505.49443067486	1233.59997558594
1506.1262195151	1244.59997558594
1506.75792619602	1248.59997558594
1507.38955072513	1250.40002441406
1508.02109310993	1250
1508.65255335794	1248.40002441406
1509.28393147666	1231.80004882813
1509.91522747359	1230.40002441406
1510.54644135624	1229.80004882813
1511.17757313212	1226.80004882813
1511.80862280872	1230
1512.43959039356	1221.19995117188
1513.07047589413	1229.80004882813
1513.70127931795	1219.40002441406
1514.33200067251	1234.19995117188
1514.96263996531	1219.19995117188
1515.59319720386	1215.40002441406
1516.22367239567	1218.40002441406
1516.85406554822	1210.19995117188
1517.48437666903	1191.80004882813
1518.1146057656	1199.80004882813
1518.74475284542	1204.40002441406
1519.374817916	1192.80004882813
1520.00480098483	1189.80004882813
1520.63470205942	1189.40002441406
1521.26452114726	1191.19995117188
1521.89425825586	1188
1522.52391339271	1185.59997558594
1523.15348656531	1183
1523.78297778116	1184.59997558594
1524.41238704775	1177.80004882813
1525.04171437259	1183
1525.67095976317	1181.19995117188
1526.30012322699	1172.19995117188
1526.92920477154	1170.40002441406
1527.55820440432	1175.59997558594
1528.18712213283	1168.40002441406
1528.81595796455	1159.80004882813
1529.44471190699	1157.80004882813
1530.07338396764	1151.59997558594
1530.70197415399	1153.80004882813
1531.33048247353	1157.19995117188
1531.95890893377	1156.40002441406
1532.58725354219	1165.40002441406
1533.21551630629	1163.80004882813
1533.84369723356	1182.19995117188
1534.47179633148	1180.80004882813
1535.09981360757	1183.80004882813
1535.72774906929	1186
1536.35560272415	1190
1536.98337457963	1191.40002441406
1537.61106464323	1190.59997558594
1538.23867292243	1198.40002441406
1538.86619942473	1188.80004882813
1539.49364415762	1189
1540.12100712857	1187.19995117188
1540.74828834509	1196.80004882813
1541.37548781466	1178.40002441406
1542.00260554478	1173.80004882813
1542.62964154291	1177.80004882813
1543.25659581655	1174.40002441406
1543.8834683732	1171.59997558594
1544.51025922034	1175.80004882813
1545.13696836544	1158.40002441406
1545.76359581601	1156.80004882813
1546.39014157952	1161.40002441406
1547.01660566345	1163.59997558594
1547.64298807531	1170
1548.26928882255	1168.19995117188
1548.89550791269	1170
1549.52164535318	1159
1550.14770115153	1171
1550.77367531521	1163.80004882813
1551.39956785171	1165.19995117188
1552.0253787685	1155.80004882813
1552.65110807307	1163.80004882813
1553.2767557729	1168.80004882813
1553.90232187548	1167.40002441406
1554.52780638828	1161.19995117188
1555.15320931879	1164.80004882813
1555.77853067447	1171.59997558594
1556.40377046282	1169.80004882813
1557.02892869132	1176.59997558594
1557.65400536744	1168
1558.27900049866	1176.59997558594
1558.90391409247	1169.59997558594
1559.52874615633	1152.40002441406
1560.15349669773	1166.19995117188
1560.77816572414	1165
1561.40275324305	1168.59997558594
1562.02725926192	1169.19995117188
1562.65168378824	1165.19995117188
1563.27602682948	1170.59997558594
1563.90028839311	1177
1564.52446848662	1174.19995117188
1565.14856711748	1177.19995117188
1565.77258429316	1174.19995117188
1566.39652002113	1175.19995117188
1567.02037430887	1181.40002441406
1567.64414716387	1177
1568.26783859357	1172
1568.89144860547	1179.59997558594
1569.51497720703	1177.19995117188
1570.13842440573	1174.19995117188
1570.76179020904	1181.40002441406
1571.38507462442	1189
1572.00827765936	1186.19995117188
1572.63139932132	1181.80004882813
1573.25443961777	1178.40002441406
1573.87739855618	1169
1574.50027614402	1168.59997558594
1575.12307238877	1169.80004882813
1575.74578729789	1172.80004882813
1576.36842087885	1181
1576.99097313912	1177
1577.61344408616	1187
1578.23583372745	1184.80004882813
1578.85814207046	1183.19995117188
1579.48036912264	1182.40002441406
1580.10251489147	1177
1580.72457938441	1168
1581.34656260893	1161.59997558594
1581.9684645725	1155.19995117188
1582.59028528258	1146.19995117188
1583.21202474663	1155
1583.83368297212	1157.19995117188
1584.45525996652	1159.80004882813
1585.07675573728	1162.59997558594
1585.69817029188	1165.40002441406
1586.31950363778	1159.19995117188
1586.94075578243	1159
1587.5619267333	1148.40002441406
1588.18301649786	1154.80004882813
1588.80402508357	1152
1589.42495249788	1144
1590.04579874826	1136.19995117188
1590.66656384217	1142
1591.28724778707	1139.40002441406
1591.90785059042	1139.59997558594
1592.52837225968	1139.59997558594
1593.14881280232	1131.80004882813
1593.76917222578	1131.80004882813
1594.38945053753	1124.80004882813
1595.00964774502	1132.19995117188
1595.62976385573	1137.80004882813
1596.24979887709	1138.40002441406
1596.86975281657	1140
1597.48962568164	1141
1598.10941747974	1143.40002441406
1598.72912821832	1148.19995117188
1599.34875790486	1151.59997558594
1599.9683065468	1139.59997558594
1600.58777415159	1143
1601.2071607267	1137.80004882813
1601.82646627958	1143.40002441406
1602.44569081769	1136
1603.06483434846	1135.59997558594
1603.68389687937	1140
1604.30287841786	1134.59997558594
1604.92177897139	1135.59997558594
1605.54059854741	1130.19995117188
1606.15933715337	1127.40002441406
1606.77799479672	1131.59997558594
1607.39657148492	1130.40002441406
1608.01506722542	1135.19995117188
1608.63348202566	1124
1609.2518158931	1121.19995117188
1609.87006883519	1117.40002441406
1610.48824085939	1124.40002441406
1611.10633197312	1131.80004882813
1611.72434218386	1130.19995117188
1612.34227149904	1129.59997558594
1612.96011992612	1134.59997558594
1613.57788747254	1114.40002441406
1614.19557414575	1126
1614.8131799532	1112
1615.43070490234	1114.59997558594
1616.04814900061	1119.80004882813
1616.66551225545	1116.59997558594
1617.28279467433	1116.19995117188
1617.89999626467	1121.59997558594
1618.51711703393	1117.59997558594
1619.13415698955	1120.19995117188
1619.75111613898	1123
1620.36799448966	1110.59997558594
1620.98479204903	1114
1621.60150882455	1115
1622.21814482364	1126.59997558594
1622.83470005376	1126.19995117188
1623.45117452235	1129.19995117188
1624.06756823685	1126.19995117188
1624.6838812047	1126.19995117188
1625.30011343335	1123.40002441406
1625.91626493022	1122
1626.53233570278	1121.40002441406
1627.14832575845	1123.19995117188
1627.76423510468	1120.40002441406
1628.38006374891	1111.59997558594
1628.99581169857	1116
1629.61147896111	1109.80004882813
1630.22706554397	1105.80004882813
1630.84257145457	1110
1631.45799670038	1103
1632.07334128881	1114.59997558594
1632.6886052273	1104.59997558594
1633.3037885233	1107.59997558594
1633.91889118425	1102.40002441406
1634.53391321757	1103.59997558594
1635.1488546307	1100.80004882813
1635.76371543108	1104
1636.37849562616	1094.19995117188
1636.99319522335	1091.59997558594
1637.60781423009	1105.40002441406
1638.22235265383	1092.80004882813
1638.83681050198	1097.80004882813
1639.451187782	1099.19995117188
1640.0654845013	1116.40002441406
1640.67970066734	1119.19995117188
1641.29383628752	1119.80004882813
1641.9078913693	1127.19995117188
1642.5218659201	1131.40002441406
1643.13575994735	1131
1643.74957345849	1131.80004882813
1644.36330646094	1136.80004882813
1644.97695896213	1139
1645.59053096951	1135.80004882813
1646.20402249049	1149.19995117188
1646.8174335325	1138.40002441406
1647.43076410298	1143.19995117188
1648.04401420935	1153.59997558594
1648.65718385905	1155
1649.2702730595	1159
1649.88328181812	1161.80004882813
1650.49621014236	1152.19995117188
1651.10905803963	1154.19995117188
1651.72182551735	1146.19995117188
1652.33451258297	1157
1652.9471192439	1149.19995117188
1653.55964550757	1150
1654.1720913814	1138.80004882813
1654.78445687283	1133.80004882813
1655.39674198926	1123.19995117188
1656.00894673814	1117.40002441406
1656.62107112688	1121.80004882813
1657.23311516291	1103
1657.84507885365	1114
1658.45696220652	1113.80004882813
1659.06876522895	1114.40002441406
1659.68048792835	1109.59997558594
1660.29213031217	1106.40002441406
1660.90369238779	1107.40002441406
1661.51517416267	1098.19995117188
1662.12657564421	1096
1662.73789683984	1087.19995117188
1663.34913775697	1093.40002441406
1663.96029840303	1088.19995117188
1664.57137878544	1085.40002441406
1665.18237891161	1083.40002441406
1665.79329878897	1091.19995117188
1666.40413842493	1085.19995117188
1667.01489782691	1088
1667.62557700233	1095.40002441406
1668.2361759586	1087.59997558594
1668.84669470315	1079.80004882813
1669.4571332434	1069.59997558594
1670.06749158675	1070.59997558594
1670.67776974062	1076.59997558594
1671.28796771243	1064.59997558594
1671.8980855096	1065.19995117188
1672.50812313954	1064.40002441406
1673.11808060967	1066.80004882813
1673.72795792739	1063.19995117188
1674.33775510013	1062.59997558594
1674.9474721353	1051.80004882813
1675.55710904031	1056.59997558594
1676.16666582257	1057.19995117188
1676.7761424895	1061.19995117188
1677.38553904851	1053.59997558594
1677.99485550702	1060
1678.60409187243	1063.80004882813
1679.21324815215	1063
1679.8223243536	1063.19995117188
1680.43132048419	1064.80004882813
1681.04023655132	1068
1681.64907256241	1060
1682.25782852487	1066
1682.86650444611	1053.19995117188
1683.47510033353	1053
1684.08361619455	1042.80004882813
1684.69205203657	1050.19995117188
1685.300407867	1054
1685.90868369325	1060.19995117188
1686.51687952272	1058
1687.12499536283	1066.40002441406
1687.73303122098	1062.59997558594
1688.34098710457	1054.80004882813
1688.94886302101	1062
1689.55665897772	1061.80004882813
1690.16437498208	1055.19995117188
1690.77201104152	1057.40002441406
1691.37956716342	1049.80004882813
1691.9870433552	1051
1692.59443962426	1053.80004882813
1693.20175597801	1048
1693.80899242384	1058
1694.41614896916	1054.59997558594
1695.02322562138	1045.40002441406
1695.63022238789	1050.59997558594
1696.23713927609	1045.19995117188
1696.8439762934	1044.80004882813
1697.4507334472	1050.40002441406
1698.05741074491	1039.59997558594
1698.66400819391	1040
1699.27052580161	1036.59997558594
1699.87696357542	1041.80004882813
1700.48332152272	1047.59997558594
1701.08959965092	1048.80004882813
1701.69579796742	1045.19995117188
1702.30191647962	1045
1702.90795519491	1046.80004882813
1703.51391412069	1044.59997558594
1704.11979326437	1032
1704.72559263332	1033.19995117188
1705.33131223496	1034.40002441406
1705.93695207668	1035.40002441406
1706.54251216588	1035.40002441406
1707.14799250994	1033.80004882813
1707.75339311628	1037
1708.35871399227	1036
1708.96395514532	1033.59997558594
1709.56911658282	1035.80004882813
