634.948122577771	1156.80004882813
635.690341530823	1168.19995117188
636.43246851086	1165.80004882813
637.174503525845	1182.40002441406
637.916446583745	1178.19995117188
638.658297692538	1169.40002441406
639.400056860179	1178.59997558594
640.141724094637	1182
640.883299403885	1175
641.62478279588	1170.40002441406
642.366174278594	1160.59997558594
643.107473859989	1170
643.848681548029	1166.59997558594
644.589797350679	1182
645.330821275901	1180
646.071753331665	1170.80004882813
646.812593525922	1168.40002441406
647.553341866646	1178.59997558594
648.293998361798	1179.19995117188
649.03456301933	1177.40002441406
649.775035847216	1173.40002441406
650.515416853409	1173.19995117188
651.255706045874	1181.40002441406
651.995903432568	1187.19995117188
652.736009021453	1178.80004882813
653.476022820486	1176.19995117188
654.215944837629	1177.59997558594
654.955775080842	1173.19995117188
655.695513558081	1182.80004882813
656.435160277301	1171.19995117188
657.174715246465	1173.40002441406
657.914178473527	1177.40002441406
658.653549966449	1184.19995117188
659.392829733176	1188.19995117188
660.132017781678	1190
660.871114119901	1189.19995117188
661.610118755803	1182.80004882813
662.349031697343	1191.40002441406
663.087852952468	1181.59997558594
663.826582529139	1187
664.565220435305	1187.40002441406
665.30376667892	1200.59997558594
666.04222126794	1191.80004882813
666.780584210316	1181.40002441406
667.518855514	1185.59997558594
668.25703518694	1188.80004882813
668.995123237096	1193
669.733119672413	1193.80004882813
670.471024500842	1190.59997558594
671.208837730333	1188.59997558594
671.946559368839	1191.19995117188
672.684189424308	1193.19995117188
673.421727904689	1192.59997558594
674.159174817929	1188.59997558594
674.896530171977	1191.19995117188
675.633793974786	1192.80004882813
676.370966234295	1189.80004882813
677.108046958461	1183.80004882813
677.845036155219	1192.19995117188
678.581933832528	1181.80004882813
679.318739998323	1181.59997558594
680.055454660558	1181
680.792077827172	1196
681.528609506116	1194
682.265049705331	1182.80004882813
683.001398432759	1184.59997558594
683.737655696349	1197.59997558594
684.47382150404	1204
685.20989586378	1199.19995117188
685.945878783503	1203.80004882813
686.68177027116	1204.40002441406
687.417570334688	1205.59997558594
688.153278982032	1206.80004882813
688.888896221129	1196.19995117188
689.624422059921	1193.19995117188
690.359856506349	1207.40002441406
691.095199568354	1202.40002441406
691.830451253874	1205.59997558594
692.565611570844	1207.80004882813
693.300680527212	1203.40002441406
694.03565813091	1196.19995117188
694.770544389877	1194.80004882813
695.505339312053	1194.40002441406
696.240042905372	1194
696.974655177772	1203.80004882813
697.70917613719	1197.19995117188
698.443605791561	1209.40002441406
699.177944148826	1208.19995117188
699.912191216909	1211.80004882813
700.646347003755	1201
701.380411517295	1196.59997558594
702.114384765465	1198
702.848266756195	1205.19995117188
703.582057497421	1205.80004882813
704.315756997074	1200.19995117188
705.049365263089	1202.80004882813
705.782882303399	1203.19995117188
706.516308125936	1212
707.249642738626	1201.19995117188
707.982886149403	1208.59997558594
708.716038366204	1205
709.449099396949	1200
710.182069249577	1208.80004882813
710.914947932009	1200
711.647735452181	1193
712.380431818022	1191.19995117188
713.113037037454	1192.19995117188
713.845551118411	1201.40002441406
714.577974068818	1197.19995117188
715.310305896604	1200
716.042546609694	1210.80004882813
716.774696216013	1208
717.506754723493	1209.19995117188
718.238722140053	1208.59997558594
718.970598473624	1207.19995117188
719.702383732127	1209.59997558594
720.43407792349	1195.80004882813
721.165681055634	1193.59997558594
721.897193136486	1184.59997558594
722.628614173966	1186.80004882813
723.359944175997	1190
724.091183150505	1197
724.822331105412	1193.40002441406
725.553388048638	1180
726.284353988106	1186
727.015228931734	1187.40002441406
727.746012887449	1197.59997558594
728.476705863162	1200.59997558594
729.207307866803	1205.19995117188
729.937818906289	1196.40002441406
730.668238989535	1200.19995117188
731.398568124459	1193.80004882813
732.128806318986	1198.80004882813
732.858953581034	1196.80004882813
733.589009918514	1196
734.318975339348	1191
735.048849851452	1196.80004882813
735.778633462744	1200.19995117188
736.508326181137	1199
737.237928014549	1191.19995117188
737.967438970897	1188.59997558594
738.696859058095	1193.40002441406
739.426188284054	1194
740.155426656692	1202.40002441406
740.884574183922	1202
741.613630873659	1200.40002441406
742.342596733815	1207.80004882813
743.071471772302	1216.59997558594
743.800255997034	1206.40002441406
744.528949415921	1204.19995117188
745.257552036877	1203.19995117188
745.986063867811	1198.80004882813
746.714484916638	1207.40002441406
747.442815191261	1221.80004882813
748.171054699597	1208.40002441406
748.899203449554	1203.40002441406
749.627261449039	1205
750.355228705966	1203.40002441406
751.083105228239	1205.59997558594
751.810891023765	1208.80004882813
752.538586100459	1220.80004882813
753.266190466218	1221.40002441406
753.99370412896	1220.19995117188
754.721127096582	1206.80004882813
755.448459377	1209
756.175700978114	1209.80004882813
756.902851907828	1208.80004882813
757.629912174055	1213.59997558594
758.356881784688	1212.19995117188
759.083760747639	1215.19995117188
759.810549070817	1220.80004882813
760.537246762113	1213.80004882813
761.263853829442	1209.59997558594
761.990370280698	1209
762.716796123791	1206.19995117188
763.443131366618	1201.40002441406
764.169376017082	1211.40002441406
764.895530083085	1213.80004882813
765.621593572527	1216.40002441406
766.347566493312	1219
767.073448853336	1222.59997558594
767.799240660502	1226.40002441406
768.524941922707	1243.80004882813
769.250552647854	1230.19995117188
769.976072843836	1238.80004882813
770.701502518551	1247.19995117188
771.426841679905	1255.80004882813
772.152090335793	1260
772.877248494107	1263
773.602316162747	1259.80004882813
774.327293349609	1253.80004882813
775.052180062592	1261.59997558594
775.776976309589	1249.40002441406
776.501682098496	1235.80004882813
777.226297437206	1235.59997558594
777.950822333616	1246
778.675256795621	1242.59997558594
779.399600831111	1252.19995117188
780.123854447983	1243.19995117188
780.84801765413	1235.80004882813
781.572090457441	1231.19995117188
782.296072865811	1230
783.019964887131	1228.80004882813
783.743766529297	1224.40002441406
784.467477800194	1225.59997558594
785.191098707719	1222.19995117188
785.914629259756	1225.40002441406
786.638069464194	1220
787.361419328932	1225.40002441406
788.084678861852	1214.19995117188
788.807848070845	1213.40002441406
789.530926963798	1208.19995117188
790.253915548602	1190.19995117188
790.976813833144	1199
791.699621825307	1203.59997558594
792.422339532986	1209
793.144966964061	1213
793.86750412642	1217.19995117188
794.589951027946	1209.59997558594
795.312307676536	1218.19995117188
796.03457408006	1204.80004882813
796.756750246417	1212.40002441406
797.478836183477	1214.80004882813
798.200831899137	1203
798.92273740127	1187.80004882813
799.644552697769	1198.59997558594
800.36627779651	1205.59997558594
801.087912705374	1217.19995117188
801.809457432251	1201.19995117188
802.530911985017	1200.19995117188
803.252276371558	1201.40002441406
803.973550599748	1212.19995117188
804.694734677472	1188
805.415828612611	1206.19995117188
806.136832413045	1206.59997558594
806.857746086646	1202.80004882813
807.578569641305	1204.59997558594
808.299303084892	1209.80004882813
809.019946425289	1206.80004882813
809.740499670372	1217.40002441406
810.460962828022	1205.19995117188
811.181335906114	1207.19995117188
811.901618912524	1212.19995117188
812.621811855131	1209.59997558594
813.341914741809	1216.80004882813
814.061927580433	1201.40002441406
814.781850378881	1200.59997558594
815.501683145025	1199.19995117188
816.221425886743	1200.19995117188
816.941078611903	1198.80004882813
817.660641328387	1206.59997558594
818.380114044065	1208.80004882813
819.099496766808	1203.40002441406
819.818789504492	1207
820.53799226499	1198.19995117188
821.257105056168	1192.40002441406
821.976127885904	1200.19995117188
822.695060762064	1196.19995117188
823.413903692525	1204.19995117188
824.132656685151	1210.19995117188
824.851319747817	1203.19995117188
825.569892888388	1200.59997558594
826.288376114739	1199
827.006769434737	1205.19995117188
827.725072856249	1189
828.443286387142	1196.40002441406
829.161410035285	1191.19995117188
829.87944380855	1195.19995117188
830.597387714798	1193.80004882813
831.315241761898	1194.19995117188
832.033005957715	1207
832.750680310119	1213.19995117188
833.468264826969	1217.59997558594
834.18575951614	1209
834.903164385486	1208.80004882813
835.620479442878	1201.40002441406
836.337704696181	1196
837.054840153255	1203.59997558594
837.771885821962	1208.40002441406
838.488841710172	1205.40002441406
839.20570782574	1193.80004882813
839.922484176531	1203.80004882813
840.639170770409	1203
841.355767615231	1199
842.072274718864	1204.40002441406
842.788692089164	1201.80004882813
843.505019733993	1190.19995117188
844.221257661209	1196
844.937405878676	1199.40002441406
845.65346439425	1215
846.369433215789	1206.59997558594
847.085312351156	1203.40002441406
847.801101808205	1198.40002441406
848.516801594793	1206
849.232411718781	1208.19995117188
849.947932188021	1210.40002441406
850.663363010376	1197.40002441406
851.378704193698	1200.40002441406
852.093955745842	1197.59997558594
852.809117674669	1193.80004882813
853.524189988028	1194.59997558594
854.239172693778	1186
854.954065799768	1190.19995117188
855.668869313857	1204.80004882813
856.383583243899	1199.40002441406
857.098207597743	1202
857.812742383246	1187.19995117188
858.527187608255	1190.80004882813
859.241543280628	1188.59997558594
859.955809408218	1200.80004882813
860.669985998868	1208
861.384073060437	1205.19995117188
862.098070600772	1211.80004882813
862.811978627724	1218.80004882813
863.52579714914	1204.59997558594
864.239526172873	1200.40002441406
864.953165706776	1204.59997558594
865.666715758687	1198.59997558594
866.380176336464	1200.80004882813
867.093547447951	1196.80004882813
867.806829100996	1190.80004882813
868.520021303444	1185.40002441406
869.233124063149	1194.59997558594
869.94613738795	1197.80004882813
870.659061285693	1190.40002441406
871.37189576423	1199.80004882813
872.084640831403	1205
872.797296495057	1208.40002441406
873.509862763039	1193.59997558594
874.22233964319	1200.19995117188
874.934727143353	1188.59997558594
875.647025271374	1185.40002441406
876.359234035097	1192.19995117188
877.071353442361	1183.40002441406
877.783383501015	1190
878.495324218895	1206.40002441406
879.207175603844	1205.80004882813
879.918937663705	1204.40002441406
880.630610406318	1212.40002441406
881.342193839524	1208.40002441406
882.053687971161	1211.19995117188
882.765092809069	1206.19995117188
883.476408361091	1207
884.187634635066	1203.59997558594
884.898771638828	1209.80004882813
885.609819380221	1202
886.320777867076	1201.59997558594
887.031647107236	1200.19995117188
887.742427108536	1196.40002441406
888.453117878816	1194.40002441406
889.16371942591	1198.80004882813
889.874231757652	1203.80004882813
890.584654881883	1189.19995117188
891.294988806434	1196.40002441406
892.005233539141	1195.80004882813
892.715389087837	1196.59997558594
893.42545546036	1190.59997558594
894.135432664543	1192.19995117188
894.845320708216	1208.40002441406
895.555119599216	1202.19995117188
896.264829345375	1200
896.974449954526	1205.59997558594
897.683981434496	1208.40002441406
898.393423793125	1212
899.102777038235	1200.19995117188
899.812041177664	1198.59997558594
900.521216219239	1197.19995117188
901.230302170793	1206.59997558594
901.939299040155	1203.40002441406
902.64820683515	1195.59997558594
903.357025563612	1197
904.065755233368	1189.19995117188
904.774395852247	1180.59997558594
905.482947428076	1196
906.191409968682	1191.40002441406
906.899783481897	1191.59997558594
907.608067975538	1207
908.316263457443	1206.19995117188
909.02436993543	1212.59997558594
909.732387417327	1213.80004882813
910.440315910959	1205.40002441406
911.148155424154	1206.19995117188
911.855905964731	1198.40002441406
912.563567540521	1205.59997558594
913.271140159339	1203.19995117188
913.978623829017	1192
914.686018557374	1195.40002441406
915.393324352237	1198
916.100541221421	1198.80004882813
916.807669172752	1206.19995117188
917.514708214054	1211.40002441406
918.221658353142	1206.59997558594
918.928519597843	1210.59997558594
919.635291955976	1201.19995117188
920.341975435358	1201.19995117188
921.048570043813	1202.40002441406
921.75507578916	1215.40002441406
922.461492679212	1205.80004882813
923.167820721795	1206.40002441406
923.874059924726	1208
924.58021029582	1226.59997558594
925.286271842893	1218
925.992244573769	1206.19995117188
926.698128496262	1213.80004882813
927.403923618184	1210
928.109629947355	1198.80004882813
928.815247491593	1194.80004882813
929.520776258708	1203
930.226216256519	1203.59997558594
930.931567492841	1195.80004882813
931.636829975482	1211.40002441406
932.342003712263	1216
933.047088710995	1209
933.752084979491	1200.80004882813
934.456992525564	1201.59997558594
935.161811357024	1201.80004882813
935.866541481688	1205.19995117188
936.571182907363	1199.19995117188
937.275735641861	1198.40002441406
937.980199692995	1192.40002441406
938.684575068572	1193.19995117188
939.388861776411	1196.59997558594
940.093059824311	1194
940.797169220085	1195
941.501189971544	1190.59997558594
942.205122086495	1176
942.908965572751	1181
943.612720438111	1176.59997558594
944.316386690391	1175.59997558594
945.019964337391	1176.40002441406
945.723453386924	1187
946.426853846795	1185.80004882813
947.130165724808	1184.19995117188
947.83338902877	1188.19995117188
948.536523766488	1181
949.239569945764	1183.59997558594
949.942527574402	1189.80004882813
950.64539666021	1191.80004882813
951.348177210993	1187.19995117188
952.050869234548	1193.19995117188
952.753472738683	1196
953.455987731199	1185.80004882813
954.158414219898	1182.19995117188
954.860752212587	1182
955.563001717061	1183.59997558594
956.265162741124	1181.19995117188
956.967235292576	1190.80004882813
957.669219379224	1190.19995117188
958.371115008857	1184.40002441406
959.072922189283	1177.59997558594
959.774640928301	1180.80004882813
960.476271233708	1179.59997558594
961.177813113301	1186.80004882813
961.879266574882	1183.80004882813
962.580631626248	1179.80004882813
963.281908275194	1190.59997558594
963.98309652952	1195.40002441406
964.684196397022	1180
965.3852078855	1178
966.086131002745	1175.59997558594
966.786965756555	1176.59997558594
967.487712154726	1181
968.188370205055	1176.80004882813
968.888939915331	1183
969.589421293352	1172.40002441406
970.289814346909	1182.19995117188
970.990119083801	1182.59997558594
971.690335511819	1181.80004882813
972.39046363875	1173
973.090503472398	1169.40002441406
973.790455020545	1175.40002441406
974.490318290987	1177
975.190093291516	1179.40002441406
975.889780029923	1172.80004882813
976.589378513998	1185.80004882813
977.288888751527	1178
977.988310750308	1182.19995117188
978.687644518122	1186
979.386890062767	1183.19995117188
980.086047392025	1181.40002441406
980.785116513689	1185.19995117188
981.484097435542	1181
982.182990165377	1186.59997558594
982.88179471098	1185.19995117188
983.580511080137	1185.40002441406
984.279139280632	1178.19995117188
984.977679320253	1181.40002441406
985.67613120679	1169.40002441406
986.374494948027	1170
987.072770551745	1180
987.770958025731	1178.40002441406
988.469057377772	1166.40002441406
989.167068615649	1171.59997558594
989.864991747145	1174.80004882813
990.562826780047	1176.80004882813
991.260573722134	1168.80004882813
991.958232581195	1161.59997558594
992.655803365003	1155
993.353286081346	1165.80004882813
994.050680738006	1164.59997558594
994.74798734276	1155.19995117188
995.44520590339	1166.40002441406
996.142336427681	1158.19995117188
996.839378923407	1164
997.536333398348	1176.40002441406
998.233199860289	1179.19995117188
998.929978317004	1179
999.626668776274	1171.59997558594
1000.32327124587	1179.80004882813
1001.01978573359	1178.80004882813
1001.71621224718	1180.59997558594
1002.41255079445	1175.40002441406
1003.10880138315	1184.80004882813
1003.80496402107	1181
1004.50103871599	1171.40002441406
1005.19702547567	1170.40002441406
1005.8929243079	1176.19995117188
1006.58873522045	1184.80004882813
1007.2844582211	1182.80004882813
1007.98009331761	1181.59997558594
1008.67564051776	1174.40002441406
1009.37109982933	1183.59997558594
1010.06647126009	1175.40002441406
1010.7617548178	1180.80004882813
1011.45695051026	1177
1012.15205834522	1173
1012.84707833045	1169
1013.54201047373	1175.80004882813
1014.23685478284	1184.80004882813
1014.93161126553	1184.19995117188
1015.62627992959	1187.80004882813
1016.32086078277	1180.80004882813
1017.01535383285	1193.40002441406
1017.70975908761	1184.40002441406
1018.40407655479	1180.80004882813
1019.09830624219	1185.80004882813
1019.79244815755	1181.80004882813
1020.48650230866	1172.19995117188
1021.18046870328	1174.59997558594
1021.87434734917	1176.59997558594
1022.56813825411	1165
1023.26184142584	1167.59997558594
1023.95545687216	1168.59997558594
1024.64898460082	1170
1025.34242461957	1151
1026.0357769362	1165.40002441406
1026.72904155846	1169
1027.42221849412	1164.80004882813
1028.11530775094	1177.80004882813
1028.80830933668	1176.80004882813
1029.50122325911	1177.59997558594
1030.19404952599	1173
1030.88678814508	1175.19995117188
1031.57943912414	1167.80004882813
1032.27200247093	1172
1032.96447819323	1167.19995117188
1033.65686629878	1176.19995117188
1034.34916679534	1165.80004882813
1035.04137969068	1155.80004882813
1035.73350499256	1166.40002441406
1036.42554270874	1154.19995117188
1037.11749284697	1158.80004882813
1037.80935541501	1161
1038.50113042062	1165.19995117188
1039.19281787156	1174
1039.88441777559	1172.40002441406
1040.57593014046	1174.40002441406
1041.26735497393	1179
1041.95869228376	1163.40002441406
1042.6499420777	1169
1043.3411043635	1173.80004882813
1044.03217914893	1167.80004882813
1044.72316644174	1167.59997558594
1045.41406624968	1167.19995117188
1046.1048785805	1174
1046.79560344197	1173.19995117188
1047.48624084182	1162.40002441406
1048.17679078783	1151.19995117188
1048.86725328774	1155
1049.55762834929	1154.80004882813
1050.24791598025	1164
1050.93811618837	1159.40002441406
1051.62822898139	1161
1052.31825436707	1162.80004882813
1053.00819235315	1158.40002441406
1053.6980429474	1155
1054.38780615755	1159
1055.07748199136	1164.59997558594
1055.76707045658	1165
1056.45657156095	1170.19995117188
1057.14598531222	1160.19995117188
1057.83531171814	1167.40002441406
1058.52455078646	1159.59997558594
1059.21370252494	1161.40002441406
1059.90276694129	1164.59997558594
1060.5917440433	1162.59997558594
1061.28063383868	1161
1061.9694363352	1157.80004882813
1062.65815154059	1169.19995117188
1063.34677946261	1154.59997558594
1064.03532010899	1169
1064.72377348748	1168
1065.41213960583	1168.19995117188
1066.10041847177	1160.80004882813
1066.78861009306	1151
1067.47671447743	1155.59997558594
1068.16473163263	1153.80004882813
1068.85266156639	1154.19995117188
1069.54050428647	1162.59997558594
1070.2282598006	1147.80004882813
1070.91592811652	1147.59997558594
1071.60350924198	1152
1072.29100318471	1156.59997558594
1072.97840995245	1158.80004882813
1073.66572955295	1152.40002441406
1074.35296199394	1159.19995117188
1075.04010728316	1158.19995117188
1075.72716542836	1150.19995117188
1076.41413643726	1152.59997558594
1077.10102031761	1155.19995117188
1077.78781707715	1168.40002441406
1078.4745267236	1164.19995117188
1079.16114926471	1155.59997558594
1079.84768470822	1150.80004882813
1080.53413306185	1149.80004882813
1081.22049433336	1155.59997558594
1081.90676853046	1151
1082.5929556609	1156
1083.27905573241	1166.40002441406
1083.96506875272	1161
1084.65099472957	1157.40002441406
1085.3368336707	1165
1086.02258558383	1159.40002441406
1086.70825047669	1165
1087.39382835703	1159
1088.07931923257	1160.80004882813
1088.76472311104	1153.80004882813
1089.45004000018	1152.40002441406
1090.13526990771	1154.80004882813
1090.82041284137	1146.40002441406
1091.50546880889	1149.40002441406
1092.19043781799	1153.59997558594
1092.87531987642	1160.59997558594
1093.56011499188	1168
1094.24482317212	1166.40002441406
1094.92944442486	1153.80004882813
1095.61397875783	1160.19995117188
1096.29842617876	1149.19995117188
1096.98278669537	1151.80004882813
1097.6670603154	1144.59997558594
1098.35124704656	1143.80004882813
1099.03534689659	1146.80004882813
1099.71935987322	1139
1100.40328598416	1146.40002441406
1101.08712523713	1148.19995117188
1101.77087763988	1146.40002441406
1102.45454320012	1149.59997558594
1103.13812192557	1158.80004882813
1103.82161382396	1159.80004882813
1104.50501890301	1162
1105.18833717045	1153.59997558594
1105.87156863399	1153.19995117188
1106.55471330137	1156.40002441406
1107.2377711803	1153
1107.9207422785	1149.59997558594
1108.60362660369	1140.19995117188
1109.2864241636	1145.40002441406
1109.96913496594	1151.40002441406
1110.65175901844	1149.19995117188
1111.33429632882	1147.80004882813
1112.01674690479	1148.19995117188
1112.69911075408	1151.59997558594
1113.38138788439	1157.59997558594
1114.06357830346	1154.19995117188
1114.745682019	1157.80004882813
1115.42769903872	1163.40002441406
1116.10962937035	1163.40002441406
1116.7914730216	1165.59997558594
1117.47323000018	1166.40002441406
1118.15490031382	1167
1118.83648397022	1168
1119.51798097712	1172.19995117188
1120.1993913422	1165.40002441406
1120.88071507321	1170
1121.56195217784	1170.19995117188
1122.24310266381	1159.40002441406
1122.92416653884	1158
1123.60514381064	1165
1124.28603448692	1157
1124.9668385754	1172
1125.64755608378	1165
1126.32818701978	1162.59997558594
1127.00873139111	1157.59997558594
1127.68918920548	1157.19995117188
1128.3695604706	1163
1129.04984519419	1173.59997558594
1129.73004338394	1163.40002441406
1130.41015504758	1159.40002441406
1131.09018019281	1156
1131.77011882734	1157.40002441406
1132.44997095888	1157
1133.12973659514	1161.19995117188
1133.80941574381	1150
1134.48900841263	1154.19995117188
1135.16851460927	1152.40002441406
1135.84793434147	1153.40002441406
1136.52726761692	1156.19995117188
1137.20651444333	1160
1137.8856748284	1159.19995117188
1138.56474877984	1153
1139.24373630536	1146.80004882813
1139.92263741265	1150.40002441406
1140.60145210943	1153.80004882813
1141.28018040339	1143.80004882813
1141.95882230225	1153.80004882813
1142.6373778137	1147.59997558594
1143.31584694545	1145.40002441406
1143.99422970519	1150.19995117188
1144.67252610064	1149.59997558594
1145.35073613949	1154.59997558594
1146.02885982944	1159.59997558594
1146.7068971782	1150
1147.38484819347	1146.40002441406
1148.06271288294	1145.40002441406
1148.74049125432	1140
1149.41818331531	1141.80004882813
1150.0957890736	1144.80004882813
1150.77330853689	1133.40002441406
1151.45074171289	1144.19995117188
1152.12808860928	1143.40002441406
1152.80534923378	1138.59997558594
1153.48252359407	1140.40002441406
1154.15961169786	1133.80004882813
1154.83661355283	1139.40002441406
1155.51352916669	1134.80004882813
1156.19035854713	1139.40002441406
1156.86710170185	1139.40002441406
1157.54375863855	1139
1158.22032936491	1139.19995117188
1158.89681388863	1134.19995117188
1159.57321221741	1138
1160.24952435894	1148
1160.92575032092	1151.40002441406
1161.60189011103	1137.40002441406
1162.27794373697	1147.80004882813
1162.95391120644	1146.80004882813
1163.62979252712	1137.80004882813
1164.3055877067	1148
1164.98129675288	1144.59997558594
1165.65691967336	1142.59997558594
1166.33245647581	1140.59997558594
1167.00790716792	1134.59997558594
1167.6832717574	1136
1168.35855025193	1129.19995117188
1169.0337426592	1131.80004882813
1169.70884898689	1125.59997558594
1170.3838692427	1129.80004882813
1171.05880343431	1136
1171.73365156941	1133.19995117188
1172.40841365569	1133.80004882813
1173.08308970083	1138
1173.75767971253	1144
1174.43218369847	1147.80004882813
1175.10660166633	1153.59997558594
1175.7809336238	1149.40002441406
1176.45517957857	1148.40002441406
1177.12933953832	1135.19995117188
1177.80341351073	1142.40002441406
1178.47740150349	1138.59997558594
1179.15130352429	1148.80004882813
1179.8251195808	1146.59997558594
1180.49884968071	1149
1181.1724938317	1146.80004882813
1181.84605204145	1149.80004882813
1182.51952431766	1147
1183.19291066799	1151.59997558594
1183.86621110013	1150.40002441406
1184.53942562176	1150.40002441406
1185.21255424057	1140.80004882813
1185.88559696422	1147
1186.55855380041	1141.40002441406
1187.2314247568	1149.40002441406
1187.90420984109	1149.80004882813
1188.57690906095	1149.19995117188
1189.24952242405	1145.19995117188
1189.92204993808	1148.19995117188
1190.59449161071	1158.40002441406
1191.26684744962	1162
1191.93911746249	1161.59997558594
1192.61130165699	1151
1193.28340004081	1150.40002441406
1193.95541262161	1146.80004882813
1194.62733940707	1136.80004882813
1195.29918040487	1147.40002441406
1195.97093562269	1143.80004882813
1196.64260506819	1150
1197.31418874905	1139
1197.98568667295	1144.59997558594
1198.65709884755	1143.19995117188
1199.32842528053	1150.40002441406
1199.99966597957	1143.59997558594
1200.67082095234	1139.19995117188
1201.3418902065	1132.59997558594
1202.01287374974	1126
1202.68377158971	1129.19995117188
1203.3545837341	1139
1204.02531019057	1134.40002441406
1204.6959509668	1134.59997558594
1205.36650607045	1138.40002441406
1206.03697550919	1138.40002441406
1206.70735929069	1136.59997558594
1207.37765742263	1137.80004882813
1208.04786991266	1130.19995117188
1208.71799676846	1127
1209.38803799769	1131.80004882813
1210.05799360803	1138
1210.72786360714	1137.59997558594
1211.39764800268	1140.19995117188
1212.06734680233	1138.80004882813
1212.73696001375	1145.80004882813
1213.4064876446	1135
1214.07592970255	1136.19995117188
1214.74528619526	1132.59997558594
1215.4145571304	1134.19995117188
1216.08374251564	1130.80004882813
1216.75284235863	1126.19995117188
1217.42185666704	1136
1218.09078544854	1132.80004882813
1218.75962871078	1127
1219.42838646143	1131.59997558594
1220.09705870816	1121.59997558594
1220.76564545861	1125.19995117188
1221.43414672046	1127.59997558594
1222.10256250136	1129.19995117188
1222.77089280898	1126.80004882813
1223.43913765098	1125.19995117188
1224.107297035	1126
1224.77537096873	1120
1225.44335945981	1125.19995117188
1226.1112625159	1121.80004882813
1226.77908014467	1125.80004882813
1227.44681235376	1122.80004882813
1228.11445915085	1129.40002441406
1228.78202054357	1124.40002441406
1229.44949653961	1129.59997558594
1230.11688714659	1126.80004882813
1230.7841923722	1126.80004882813
1231.45141222407	1123
1232.11854670988	1115.19995117188
1232.78559583726	1112.80004882813
1233.45255961388	1123.40002441406
1234.1194380474	1122.40002441406
1234.78623114546	1129
1235.45293891572	1129
1236.11956136583	1134.80004882813
1236.78609850345	1132.59997558594
1237.45255033623	1129.59997558594
1238.11891687182	1132.19995117188
1238.78519811788	1128
1239.45139408205	1129.59997558594
1240.11750477198	1131.59997558594
1240.78353019534	1124
1241.44947035976	1121.40002441406
1242.11532527291	1122.40002441406
1242.78109494242	1120.40002441406
1243.44677937595	1127.59997558594
1244.11237858115	1124.80004882813
1244.77789256567	1119.59997558594
1245.44332133715	1123.19995117188
1246.10866490325	1120.80004882813
1246.7739232716	1129.40002441406
1247.43909644987	1130.40002441406
1248.10418444569	1130
1248.76918726671	1125
1249.43410492059	1123.59997558594
1250.09893741496	1120.59997558594
1250.76368475747	1120.59997558594
1251.42834695576	1120.40002441406
1252.09292401749	1124.59997558594
1252.75741595029	1119.59997558594
1253.42182276182	1115.40002441406
1254.08614445971	1113.59997558594
1254.75038105161	1123.80004882813
1255.41453254515	1130.19995117188
1256.07859894799	1122.40002441406
1256.74258026777	1129.80004882813
1257.40647651213	1128.59997558594
1258.0702876887	1124.80004882813
1258.73401380514	1121.80004882813
1259.39765486908	1121
1260.06121088817	1124.40002441406
1260.72468187004	1125.80004882813
1261.38806782233	1125
1262.05136875269	1123.80004882813
1262.71458466875	1118.40002441406
1263.37771557815	1119.40002441406
1264.04076148854	1130
1264.70372240753	1118.59997558594
1265.3665983428	1119
1266.02938930195	1117
1266.69209529263	1122.40002441406
1267.35471632249	1124.59997558594
1268.01725239914	1118.59997558594
1268.67970353024	1109.19995117188
1269.34206972342	1112
1270.00435098631	1112
1270.66654732655	1115
1271.32865875177	1118
1271.9906852696	1109.40002441406
1272.65262688768	1106
1273.31448361365	1106.40002441406
1273.97625545514	1101.40002441406
1274.63794241978	1104
1275.2995445152	1107.40002441406
1275.96106174903	1117.40002441406
1276.62249412892	1119.19995117188
1277.28384166248	1114.59997558594
1277.94510435735	1118.19995117188
1278.60628222116	1116
1279.26737526155	1117.80004882813
1279.92838348613	1111
1280.58930690255	1103.59997558594
1281.25014551842	1111.19995117188
1281.91089934139	1109
1282.57156837907	1118.19995117188
1283.2321526391	1108.59997558594
1283.89265212911	1113
1284.55306685671	1117.59997558594
1285.21339682955	1105
1285.87364205525	1103.80004882813
1286.53380254142	1112.59997558594
1287.19387829571	1103
1287.85386932573	1104.59997558594
1288.51377563911	1110.40002441406
1289.17359724348	1111.40002441406
1289.83333414646	1114.80004882813
1290.49298635567	1110.19995117188
1291.15255387874	1107.59997558594
1291.8120367233	1112.59997558594
1292.47143489696	1114.80004882813
1293.13074840736	1117.59997558594
1293.7899772621	1114.59997558594
1294.44912146882	1114.80004882813
1295.10818103513	1121.80004882813
1295.76715596866	1110.80004882813
1296.42604627704	1114.80004882813
1297.08485196787	1114.40002441406
1297.74357304878	1118.40002441406
1298.4022095274	1110
1299.06076141134	1113.40002441406
1299.71922870821	1110.40002441406
1300.37761142565	1115.40002441406
1301.03590957126	1127
1301.69412315268	1108.59997558594
1302.3522521775	1110.19995117188
1303.01029665336	1108.19995117188
1303.66825658787	1122.59997558594
1304.32613198865	1115
1304.98392286332	1119.80004882813
1305.64162921948	1123.59997558594
1306.29925106476	1127
1306.95678840677	1126.59997558594
1307.61424125312	1113.59997558594
1308.27160961145	1123.40002441406
1308.92889348934	1117
1309.58609289443	1118.80004882813
1310.24320783432	1124.19995117188
1310.90023831664	1122.19995117188
1311.55718434898	1127.19995117188
1312.21404593897	1111.59997558594
1312.87082309421	1119.40002441406
1313.52751582233	1122.40002441406
1314.18412413092	1117.59997558594
1314.84064802761	1116
1315.49708752	1112.19995117188
1316.1534426157	1115
1316.80971332233	1124.19995117188
1317.46589964749	1121.19995117188
1318.1220015988	1124
1318.77801918386	1121
1319.43395241028	1117.80004882813
1320.08980128567	1113
1320.74556581764	1113.19995117188
1321.4012460138	1119.19995117188
1322.05684188176	1122.40002441406
1322.71235342911	1131
1323.36778066347	1117.80004882813
1324.02312359245	1116.19995117188
1324.67838222365	1121.40002441406
1325.33355656468	1117.40002441406
1325.98864662314	1113.40002441406
1326.64365240663	1111
1327.29857392277	1111
1327.95341117915	1101.80004882813
1328.60816418339	1106.59997558594
1329.26283294308	1103.59997558594
1329.91741746582	1098
1330.57191775923	1101.40002441406
1331.2263338309	1110.40002441406
1331.88066568843	1114.80004882813
1332.53491333943	1110.19995117188
1333.1890767915	1104.80004882813
1333.84315605224	1117.40002441406
1334.49715112925	1113.40002441406
1335.15106203013	1108.59997558594
1335.80488876249	1107.19995117188
1336.45863133391	1102.80004882813
1337.112289752	1100.40002441406
1337.76586402437	1101.19995117188
1338.4193541586	1101.40002441406
1339.0727601623	1097.19995117188
1339.72608204306	1105.59997558594
1340.37931980849	1109.40002441406
1341.03247346617	1111.80004882813
1341.68554302372	1109
1342.33852848871	1118.80004882813
1342.99142986876	1122.19995117188
1343.64424717145	1110.80004882813
1344.29698040438	1108
1344.94962957515	1106.80004882813
1345.60219469135	1115
1346.25467576058	1113.80004882813
1346.90707279042	1117
1347.55938578848	1119.59997558594
1348.21161476235	1122.59997558594
1348.86375971962	1114.80004882813
1349.51582066787	1120.19995117188
1350.16779761472	1122.19995117188
1350.81969056774	1124.59997558594
1351.47149953453	1133.40002441406
1352.12322452269	1124
1352.77486553979	1136.59997558594
1353.42642259344	1134.59997558594
1354.07789569122	1141.59997558594
1354.72928484072	1135.40002441406
1355.38059004953	1139.40002441406
1356.03181132525	1140
1356.68294867545	1148.19995117188
1357.33400210773	1150.40002441406
1357.98497162968	1152.59997558594
1358.63585724889	1153.59997558594
1359.28665897294	1144.19995117188
1359.93737680942	1151.40002441406
1360.58801076591	1152
1361.23856085001	1169.59997558594
1361.88902706929	1168.80004882813
1362.53940943135	1170
1363.18970794377	1166.40002441406
1363.83992261413	1154.59997558594
1364.49005345003	1148.59997558594
1365.14010045904	1145.80004882813
1365.79006364874	1145.19995117188
1366.43994302673	1145
1367.08973860058	1146.80004882813
1367.73945037788	1154.40002441406
1368.38907836621	1147.80004882813
1369.03862257315	1142.59997558594
1369.68808300629	1123.59997558594
1370.3374596732	1128.19995117188
1370.98675258148	1122.59997558594
1371.63596173868	1131.19995117188
1372.28508715241	1128.59997558594
1372.93412883024	1126
1373.58308677974	1121
1374.2319610085	1118.19995117188
1374.8807515241	1114.80004882813
1375.52945833412	1108.19995117188
1376.17808144612	1114
1376.82662086771	1111.40002441406
1377.47507660644	1111.40002441406
1378.12344866989	1111.59997558594
1378.77173706565	1105.59997558594
1379.41994180129	1112.40002441406
1380.06806288439	1107.19995117188
1380.71610032252	1112.19995117188
1381.36405412326	1109.80004882813
1382.01192429419	1111.59997558594
1382.65971084287	1111.59997558594
1383.30741377688	1108.40002441406
1383.95503310381	1106
1384.60256883121	1109.40002441406
1385.25002096667	1110
1385.89738951775	1106.80004882813
1386.54467449204	1117.40002441406
1387.19187589709	1116
1387.8389937405	1108.59997558594
1388.48602802982	1109.59997558594
1389.13297877262	1097.19995117188
1389.77984597649	1106.40002441406
1390.42662964899	1114
1391.07332979768	1109.19995117188
1391.71994643015	1115.19995117188
1392.36647955395	1110.59997558594
1393.01292917667	1101.80004882813
1393.65929530586	1099.19995117188
1394.3055779491	1111
1394.95177711395	1105.19995117188
1395.59789280799	1098
1396.24392503877	1096
1396.88987381387	1099.40002441406
1397.53573914086	1098.80004882813
1398.1815210273	1102.59997558594
1398.82721948075	1098
1399.47283450878	1092.59997558594
1400.11836611897	1103.80004882813
1400.76381431886	1099.59997558594
1401.40917911603	1106.19995117188
1402.05446051805	1100.80004882813
1402.69965853247	1097.19995117188
1403.34477316686	1098.59997558594
1403.98980442878	1091.59997558594
1404.6347523258	1095.40002441406
1405.27961686548	1098.19995117188
1405.92439805538	1096.80004882813
1406.56909590306	1094.59997558594
1407.21371041608	1092.59997558594
1407.85824160202	1093
1408.50268946841	1093.59997558594
1409.14705402284	1084.59997558594
1409.79133527285	1086.59997558594
1410.43553322601	1090.59997558594
1411.07964788987	1092.59997558594
1411.723679272	1096.40002441406
1412.36762737996	1089.80004882813
1413.01149222129	1092
1413.65527380357	1091.40002441406
1414.29897213435	1086.40002441406
1414.94258722118	1084.59997558594
1415.58611907163	1089.59997558594
1416.22956769325	1092.59997558594
1416.87293309359	1081.40002441406
1417.51621528021	1088
1418.15941426067	1094
1418.80253004253	1082
1419.44556263333	1087.40002441406
1420.08851204063	1088.80004882813
1420.731378272	1095.59997558594
1421.37416133497	1097.80004882813
1422.0168612371	1102.59997558594
1422.65947798596	1096.40002441406
1423.30201158908	1089.59997558594
1423.94446205403	1089.80004882813
1424.58682938835	1092.40002441406
1425.2291135996	1094.59997558594
1425.87131469532	1091.40002441406
1426.51343268308	1091.59997558594
1427.15546757042	1087.40002441406
1427.79741936488	1088.59997558594
1428.43928807403	1089
1429.0810737054	1090
1429.72277626656	1085.59997558594
1430.36439576504	1093.40002441406
1431.00593220841	1085.59997558594
1431.64738560419	1076.80004882813
1432.28875595995	1078.80004882813
1432.93004328324	1083.80004882813
1433.57124758159	1083.19995117188
1434.21236886255	1086.19995117188
1434.85340713368	1091
1435.49436240252	1092
1436.13523467661	1085
1436.77602396349	1085
1437.41673027073	1090.59997558594
1438.05735360585	1088.59997558594
1438.69789397641	1085.80004882813
1439.33835138994	1087
1439.978725854	1086
1440.61901737612	1081
1441.25922596385	1087.19995117188
1441.89935162473	1092.40002441406
1442.53939436631	1087.80004882813
1443.17935419612	1097.40002441406
1443.81923112171	1092.80004882813
1444.45902515061	1088.80004882813
1445.09873629038	1075.19995117188
1445.73836454854	1084.59997558594
1446.37790993265	1082.80004882813
1447.01737245024	1084.59997558594
1447.65675210885	1086.19995117188
1448.29604891602	1094
1448.93526287928	1104.19995117188
1449.57439400618	1093.59997558594
1450.21344230426	1096.59997558594
1450.85240778105	1094.19995117188
1451.49129044409	1089.40002441406
1452.13009030092	1087.59997558594
1452.76880735907	1089.80004882813
1453.40744162608	1089.80004882813
1454.04599310949	1094
1454.68446181683	1096
1455.32284775564	1089.59997558594
1455.96115093345	1074.19995117188
1456.5993713578	1085.40002441406
1457.23750903623	1085.40002441406
1457.87556397626	1085
1458.51353618543	1083
1459.15142567127	1081.59997558594
1459.78923244132	1085.59997558594
1460.42695650311	1088.59997558594
1461.06459786417	1089.80004882813
1461.70215653203	1084
1462.33963251423	1094.59997558594
1462.97702581829	1081
1463.61433645175	1086.59997558594
1464.25156442214	1094.59997558594
1464.88870973699	1088.40002441406
1465.52577240382	1087.40002441406
1466.16275243017	1079.59997558594
1466.79964982356	1083.40002441406
1467.43646459154	1083.19995117188
1468.07319674161	1080.40002441406
1468.70984628132	1078
1469.34641321818	1076
1469.98289755974	1079.19995117188
1470.6192993135	1085.40002441406
1471.25561848701	1076.40002441406
1471.89185508779	1081
1472.52800912336	1074.19995117188
1473.16408060124	1080
1473.80006952897	1077.19995117188
1474.43597591407	1074.40002441406
1475.07179976406	1073.19995117188
1475.70754108647	1079.59997558594
1476.34319988883	1080.59997558594
1476.97877617865	1088.40002441406
1477.61426996345	1083.80004882813
1478.24968125077	1091.80004882813
1478.88501004812	1086.19995117188
1479.52025636303	1081
1480.15542020302	1087.19995117188
1480.79050157561	1083.59997558594
1481.42550048832	1091.40002441406
1482.06041694867	1094.19995117188
1482.69525096418	1085.59997558594
1483.33000254237	1085.40002441406
1483.96467169077	1078
1484.59925841689	1074
1485.23376272825	1074.19995117188
1485.86818463237	1075.59997558594
1486.50252413677	1076.40002441406
1487.13678124896	1074.80004882813
1487.77095597646	1082.59997558594
1488.4050483268	1080
1489.03905830749	1081.59997558594
1489.67298592604	1077.59997558594
1490.30683118996	1077.40002441406
1490.9405941068	1084.19995117188
1491.57427468403	1089
1492.2078729292	1089.40002441406
1492.84138884981	1086.80004882813
1493.47482245338	1080
1494.10817374742	1076
1494.74144273944	1082.59997558594
1495.37462943696	1082.40002441406
1496.0077338475	1082.59997558594
1496.64075597856	1086.19995117188
1497.27369583765	1088.59997558594
1497.9065534323	1091.80004882813
1498.53932877001	1091
1499.17202185829	1086.40002441406
1499.80463270465	1084
1500.43716131661	1083.19995117188
1501.06960770167	1079.59997558594
1501.70197186735	1093.59997558594
1502.33425382116	1089.40002441406
1502.96645357059	1092.59997558594
1503.59857112317	1091.59997558594
1504.23060648641	1093.59997558594
1504.8625596678	1092.19995117188
1505.49443067486	1097.19995117188
1506.1262195151	1094.59997558594
1506.75792619602	1098
1507.38955072513	1103.59997558594
1508.02109310993	1101
1508.65255335794	1109.59997558594
1509.28393147666	1098.80004882813
1509.91522747359	1089.19995117188
1510.54644135624	1103
1511.17757313212	1094.59997558594
1511.80862280872	1094.59997558594
1512.43959039356	1101.19995117188
1513.07047589413	1103.59997558594
1513.70127931795	1095.59997558594
1514.33200067251	1098.59997558594
1514.96263996531	1103
1515.59319720386	1097.19995117188
1516.22367239567	1092.40002441406
1516.85406554822	1099
1517.48437666903	1092.19995117188
1518.1146057656	1095
1518.74475284542	1094.80004882813
1519.374817916	1104.80004882813
1520.00480098483	1082
1520.63470205942	1078
1521.26452114726	1076.59997558594
1521.89425825586	1075.59997558594
1522.52391339271	1067.59997558594
1523.15348656531	1071.59997558594
1523.78297778116	1070.19995117188
1524.41238704775	1069.80004882813
1525.04171437259	1065.80004882813
1525.67095976317	1068.59997558594
1526.30012322699	1067.80004882813
1526.92920477154	1061.59997558594
1527.55820440432	1067.40002441406
1528.18712213283	1072.59997558594
1528.81595796455	1067.40002441406
1529.44471190699	1071.59997558594
1530.07338396764	1075.19995117188
1530.70197415399	1074.59997558594
1531.33048247353	1071.19995117188
1531.95890893377	1077
1532.58725354219	1068.19995117188
1533.21551630629	1081.59997558594
1533.84369723356	1081.59997558594
1534.47179633148	1081.59997558594
1535.09981360757	1079.80004882813
1535.72774906929	1083.19995117188
1536.35560272415	1085.80004882813
1536.98337457963	1085
1537.61106464323	1079
1538.23867292243	1081.59997558594
1538.86619942473	1079.80004882813
1539.49364415762	1083
1540.12100712857	1087.19995117188
1540.74828834509	1080
1541.37548781466	1080.59997558594
1542.00260554478	1083.19995117188
1542.62964154291	1079.80004882813
1543.25659581655	1076.59997558594
1543.8834683732	1072.59997558594
1544.51025922034	1078
1545.13696836544	1076
1545.76359581601	1076.19995117188
1546.39014157952	1072.59997558594
1547.01660566345	1077.19995117188
1547.64298807531	1087.19995117188
1548.26928882255	1080.40002441406
1548.89550791269	1074
1549.52164535318	1073.59997558594
1550.14770115153	1074.59997558594
1550.77367531521	1069.80004882813
1551.39956785171	1070.40002441406
1552.0253787685	1068.40002441406
1552.65110807307	1062.40002441406
1553.2767557729	1064.59997558594
1553.90232187548	1066.80004882813
1554.52780638828	1069.59997558594
1555.15320931879	1059.19995117188
1555.77853067447	1068.19995117188
1556.40377046282	1066.59997558594
1557.02892869132	1063.40002441406
1557.65400536744	1065.80004882813
1558.27900049866	1060.40002441406
1558.90391409247	1064
1559.52874615633	1064.19995117188
1560.15349669773	1064
1560.77816572414	1063.40002441406
1561.40275324305	1068.80004882813
1562.02725926192	1067.59997558594
1562.65168378824	1068.19995117188
1563.27602682948	1074.80004882813
1563.90028839311	1077
1564.52446848662	1073
1565.14856711748	1076.19995117188
1565.77258429316	1075.40002441406
1566.39652002113	1070.19995117188
1567.02037430887	1070.40002441406
1567.64414716387	1071
1568.26783859357	1072
1568.89144860547	1072
1569.51497720703	1072.19995117188
1570.13842440573	1071.19995117188
1570.76179020904	1075
1571.38507462442	1069.40002441406
1572.00827765936	1078.19995117188
1572.63139932132	1079.59997558594
1573.25443961777	1070.19995117188
1573.87739855618	1070.19995117188
1574.50027614402	1074.80004882813
1575.12307238877	1070.59997558594
1575.74578729789	1084
1576.36842087885	1080.19995117188
1576.99097313912	1075.40002441406
1577.61344408616	1067.80004882813
1578.23583372745	1072.59997558594
1578.85814207046	1077.59997558594
1579.48036912264	1073.40002441406
1580.10251489147	1064.19995117188
1580.72457938441	1071.59997558594
1581.34656260893	1056
1581.9684645725	1067.59997558594
1582.59028528258	1069.59997558594
1583.21202474663	1070.19995117188
1583.83368297212	1067.40002441406
1584.45525996652	1069.59997558594
1585.07675573728	1067.59997558594
1585.69817029188	1068
1586.31950363778	1061.19995117188
1586.94075578243	1057
1587.5619267333	1052.19995117188
1588.18301649786	1054.40002441406
1588.80402508357	1054.59997558594
1589.42495249788	1048
1590.04579874826	1046.80004882813
1590.66656384217	1048
1591.28724778707	1048
1591.90785059042	1049
1592.52837225968	1054
1593.14881280232	1057.19995117188
1593.76917222578	1047.59997558594
1594.38945053753	1048.40002441406
1595.00964774502	1057.59997558594
1595.62976385573	1054.19995117188
1596.24979887709	1062
1596.86975281657	1053.59997558594
1597.48962568164	1047.80004882813
1598.10941747974	1055
1598.72912821832	1055.80004882813
1599.34875790486	1054.19995117188
1599.9683065468	1055
1600.58777415159	1056.80004882813
1601.2071607267	1049.19995117188
1601.82646627958	1041.59997558594
1602.44569081769	1051
1603.06483434846	1047.80004882813
1603.68389687937	1044
1604.30287841786	1045
1604.92177897139	1048.19995117188
1605.54059854741	1038.40002441406
1606.15933715337	1045.40002441406
1606.77799479672	1049.40002441406
1607.39657148492	1047
1608.01506722542	1051
1608.63348202566	1053.40002441406
1609.2518158931	1043.40002441406
1609.87006883519	1042.19995117188
1610.48824085939	1042.40002441406
1611.10633197312	1045.59997558594
1611.72434218386	1046.59997558594
1612.34227149904	1040.19995117188
1612.96011992612	1038
1613.57788747254	1035.19995117188
1614.19557414575	1034
1614.8131799532	1037.19995117188
1615.43070490234	1043.59997558594
1616.04814900061	1045.80004882813
1616.66551225545	1048.80004882813
1617.28279467433	1044
1617.89999626467	1037
1618.51711703393	1050.19995117188
1619.13415698955	1046.40002441406
1619.75111613898	1041.19995117188
1620.36799448966	1045.59997558594
1620.98479204903	1045
1621.60150882455	1042
1622.21814482364	1047.40002441406
1622.83470005376	1046
1623.45117452235	1057.40002441406
1624.06756823685	1054.40002441406
1624.6838812047	1056
1625.30011343335	1056
1625.91626493022	1059.59997558594
1626.53233570278	1048
1627.14832575845	1052
1627.76423510468	1047.80004882813
1628.38006374891	1047
1628.99581169857	1045.59997558594
1629.61147896111	1040.80004882813
1630.22706554397	1034.80004882813
1630.84257145457	1043
1631.45799670038	1039.40002441406
1632.07334128881	1031.19995117188
1632.6886052273	1032.19995117188
1633.3037885233	1034.19995117188
1633.91889118425	1035
1634.53391321757	1031.59997558594
1635.1488546307	1034.40002441406
1635.76371543108	1035.40002441406
1636.37849562616	1026.40002441406
1636.99319522335	1026.40002441406
1637.60781423009	1027.19995117188
1638.22235265383	1026.59997558594
1638.83681050198	1022.79998779297
1639.451187782	1028.40002441406
1640.0654845013	1032
1640.67970066734	1039.40002441406
1641.29383628752	1038.80004882813
1641.9078913693	1045
1642.5218659201	1047.59997558594
1643.13575994735	1042.59997558594
1643.74957345849	1044.59997558594
1644.36330646094	1040
1644.97695896213	1041
1645.59053096951	1044
1646.20402249049	1041.59997558594
1646.8174335325	1051
1647.43076410298	1048
1648.04401420935	1054.40002441406
1648.65718385905	1050
1649.2702730595	1056.19995117188
1649.88328181812	1050
1650.49621014236	1052.19995117188
1651.10905803963	1051.80004882813
1651.72182551735	1060.40002441406
1652.33451258297	1051.19995117188
1652.9471192439	1050.40002441406
1653.55964550757	1049.19995117188
1654.1720913814	1051.40002441406
1654.78445687283	1053
1655.39674198926	1047
1656.00894673814	1037.59997558594
1656.62107112688	1041.40002441406
1657.23311516291	1039.80004882813
1657.84507885365	1038.80004882813
1658.45696220652	1038
1659.06876522895	1037.59997558594
1659.68048792835	1037
1660.29213031217	1032.80004882813
1660.90369238779	1034.80004882813
1661.51517416267	1028.80004882813
1662.12657564421	1033.59997558594
1662.73789683984	1027
1663.34913775697	1025.19995117188
1663.96029840303	1024.80004882813
1664.57137878544	1021.40002441406
1665.18237891161	1020.79998779297
1665.79329878897	1019.79998779297
1666.40413842493	1015.79998779297
1667.01489782691	1021
1667.62557700233	1019.40002441406
1668.2361759586	1025.40002441406
1668.84669470315	1012.40002441406
1669.4571332434	1012.40002441406
1670.06749158675	1013
1670.67776974062	1016.59997558594
1671.28796771243	1019
1671.8980855096	1018.79998779297
1672.50812313954	1017.20001220703
1673.11808060967	1018.79998779297
1673.72795792739	1021.79998779297
1674.33775510013	1014.59997558594
1674.9474721353	1006.79998779297
1675.55710904031	1008.20001220703
1676.16666582257	1012.40002441406
1676.7761424895	1008.59997558594
1677.38553904851	1005.59997558594
1677.99485550702	1005.79998779297
1678.60409187243	1013.59997558594
1679.21324815215	1015
1679.8223243536	1017.59997558594
1680.43132048419	1017.20001220703
1681.04023655132	1015
1681.64907256241	1017.59997558594
1682.25782852487	1016
1682.86650444611	1012.79998779297
1683.47510033353	1010.59997558594
1684.08361619455	1005
1684.69205203657	1001.59997558594
1685.300407867	1008.59997558594
1685.90868369325	1006.40002441406
1686.51687952272	1003.20001220703
1687.12499536283	1008.20001220703
1687.73303122098	1009.40002441406
1688.34098710457	1008.40002441406
1688.94886302101	1010.59997558594
1689.55665897772	1004.40002441406
1690.16437498208	1000.40002441406
1690.77201104152	1005.20001220703
1691.37956716342	1003.59997558594
1691.9870433552	1005
1692.59443962426	1004.20001220703
1693.20175597801	993.200012207031
1693.80899242384	997.599975585938
1694.41614896916	995.799987792969
1695.02322562138	1001
1695.63022238789	998.200012207031
1696.23713927609	994
1696.8439762934	997.200012207031
1697.4507334472	991.400024414063
1698.05741074491	1000.79998779297
1698.66400819391	995
1699.27052580161	1003.59997558594
1699.87696357542	1000.40002441406
1700.48332152272	1000.79998779297
1701.08959965092	1004.79998779297
1701.69579796742	996.599975585938
1702.30191647962	995.200012207031
1702.90795519491	997
1703.51391412069	995.400024414063
1704.11979326437	994.599975585938
1704.72559263332	995
1705.33131223496	991.400024414063
1705.93695207668	989.599975585938
1706.54251216588	996.599975585938
1707.14799250994	994.599975585938
1707.75339311628	982.799987792969
1708.35871399227	989
1708.96395514532	985
1709.56911658282	983
