634.948122577771	1201.19995117188
635.690341530823	1217
636.43246851086	1225.59997558594
637.174503525845	1234.59997558594
637.916446583745	1227.40002441406
638.658297692538	1218.80004882813
639.400056860179	1216
640.141724094637	1224
640.883299403885	1216.59997558594
641.62478279588	1229.59997558594
642.366174278594	1228
643.107473859989	1225.59997558594
643.848681548029	1228.40002441406
644.589797350679	1229.59997558594
645.330821275901	1221.80004882813
646.071753331665	1214.59997558594
646.812593525922	1219
647.553341866646	1225.19995117188
648.293998361798	1220.80004882813
649.03456301933	1217.59997558594
649.775035847216	1214.40002441406
650.515416853409	1218.80004882813
651.255706045874	1222.40002441406
651.995903432568	1215.40002441406
652.736009021453	1225.19995117188
653.476022820486	1230.40002441406
654.215944837629	1230
654.955775080842	1225.80004882813
655.695513558081	1226.40002441406
656.435160277301	1223.59997558594
657.174715246465	1229.40002441406
657.914178473527	1227
658.653549966449	1235.19995117188
659.392829733176	1242.80004882813
660.132017781678	1230.59997558594
660.871114119901	1230.40002441406
661.610118755803	1232
662.349031697343	1231.40002441406
663.087852952468	1235
663.826582529139	1240.40002441406
664.565220435305	1240.19995117188
665.30376667892	1244
666.04222126794	1231.40002441406
666.780584210316	1230.59997558594
667.518855514	1237.19995117188
668.25703518694	1243.40002441406
668.995123237096	1246.19995117188
669.733119672413	1245.59997558594
670.471024500842	1238.40002441406
671.208837730333	1239.19995117188
671.946559368839	1245
672.684189424308	1237
673.421727904689	1233.80004882813
674.159174817929	1236.19995117188
674.896530171977	1239.80004882813
675.633793974786	1241.80004882813
676.370966234295	1232.40002441406
677.108046958461	1234.19995117188
677.845036155219	1234
678.581933832528	1233
679.318739998323	1233.40002441406
680.055454660558	1230.19995117188
680.792077827172	1243.40002441406
681.528609506116	1247.19995117188
682.265049705331	1242.19995117188
683.001398432759	1249.59997558594
683.737655696349	1253.19995117188
684.47382150404	1240.59997558594
685.20989586378	1246.40002441406
685.945878783503	1250.59997558594
686.68177027116	1251.59997558594
687.417570334688	1251.80004882813
688.153278982032	1252.19995117188
688.888896221129	1251.19995117188
689.624422059921	1259.19995117188
690.359856506349	1254.40002441406
691.095199568354	1257.19995117188
691.830451253874	1247.40002441406
692.565611570844	1247.59997558594
693.300680527212	1252.80004882813
694.03565813091	1242.40002441406
694.770544389877	1243.19995117188
695.505339312053	1240
696.240042905372	1237
696.974655177772	1246.80004882813
697.70917613719	1256.40002441406
698.443605791561	1245.40002441406
699.177944148826	1246.19995117188
699.912191216909	1246
700.646347003755	1247.40002441406
701.380411517295	1239.80004882813
702.114384765465	1235
702.848266756195	1247.19995117188
703.582057497421	1240.19995117188
704.315756997074	1234.59997558594
705.049365263089	1239.40002441406
705.782882303399	1245
706.516308125936	1237.40002441406
707.249642738626	1234
707.982886149403	1247.40002441406
708.716038366204	1251
709.449099396949	1245
710.182069249577	1246.80004882813
710.914947932009	1239
711.647735452181	1240.40002441406
712.380431818022	1232.40002441406
713.113037037454	1244.19995117188
713.845551118411	1239.80004882813
714.577974068818	1247.40002441406
715.310305896604	1256.19995117188
716.042546609694	1256.19995117188
716.774696216013	1261
717.506754723493	1259.40002441406
718.238722140053	1255.59997558594
718.970598473624	1247.19995117188
719.702383732127	1249
720.43407792349	1235
721.165681055634	1235.59997558594
721.897193136486	1236.19995117188
722.628614173966	1238.40002441406
723.359944175997	1235.80004882813
724.091183150505	1236.40002441406
724.822331105412	1232.80004882813
725.553388048638	1232.19995117188
726.284353988106	1239
727.015228931734	1242.40002441406
727.746012887449	1240.40002441406
728.476705863162	1250.59997558594
729.207307866803	1246.80004882813
729.937818906289	1243.19995117188
730.668238989535	1237.19995117188
731.398568124459	1233.59997558594
732.128806318986	1234
732.858953581034	1238
733.589009918514	1237.59997558594
734.318975339348	1242.19995117188
735.048849851452	1247.40002441406
735.778633462744	1237.80004882813
736.508326181137	1240.19995117188
737.237928014549	1243
737.967438970897	1247
738.696859058095	1239
739.426188284054	1248.59997558594
740.155426656692	1247.59997558594
740.884574183922	1242.40002441406
741.613630873659	1253.40002441406
742.342596733815	1246.19995117188
743.071471772302	1252
743.800255997034	1253.40002441406
744.528949415921	1245.40002441406
745.257552036877	1250.59997558594
745.986063867811	1253.59997558594
746.714484916638	1262.80004882813
747.442815191261	1254.80004882813
748.171054699597	1250.19995117188
748.899203449554	1246.40002441406
749.627261449039	1242
750.355228705966	1247.40002441406
751.083105228239	1256.19995117188
751.810891023765	1254.80004882813
752.538586100459	1250.19995117188
753.266190466218	1264.59997558594
753.99370412896	1263
754.721127096582	1262.19995117188
755.448459377	1269.19995117188
756.175700978114	1267
756.902851907828	1276
757.629912174055	1261.59997558594
758.356881784688	1264.80004882813
759.083760747639	1265.19995117188
759.810549070817	1264.80004882813
760.537246762113	1267.59997558594
761.263853829442	1260.59997558594
761.990370280698	1260.59997558594
762.716796123791	1253.40002441406
763.443131366618	1263
764.169376017082	1265.80004882813
764.895530083085	1263
765.621593572527	1258
766.347566493312	1257.80004882813
767.073448853336	1280.40002441406
767.799240660502	1287.19995117188
768.524941922707	1286.19995117188
769.250552647854	1300.80004882813
769.976072843836	1306.80004882813
770.701502518551	1315.80004882813
771.426841679905	1314.59997558594
772.152090335793	1331.19995117188
772.877248494107	1334.40002441406
773.602316162747	1316.40002441406
774.327293349609	1307.19995117188
775.052180062592	1309
775.776976309589	1306.59997558594
776.501682098496	1294.40002441406
777.226297437206	1296.40002441406
777.950822333616	1286.40002441406
778.675256795621	1295.19995117188
779.399600831111	1283
780.123854447983	1289
780.84801765413	1283.80004882813
781.572090457441	1284.59997558594
782.296072865811	1281.40002441406
783.019964887131	1268.40002441406
783.743766529297	1263.59997558594
784.467477800194	1266.19995117188
785.191098707719	1274.19995117188
785.914629259756	1263.19995117188
786.638069464194	1262
787.361419328932	1255.59997558594
788.084678861852	1250.19995117188
788.807848070845	1249.19995117188
789.530926963798	1250.19995117188
790.253915548602	1255.80004882813
790.976813833144	1251
791.699621825307	1252.40002441406
792.422339532986	1245.80004882813
793.144966964061	1256.40002441406
793.86750412642	1256.80004882813
794.589951027946	1268.40002441406
795.312307676536	1268.40002441406
796.03457408006	1259.19995117188
796.756750246417	1253.80004882813
797.478836183477	1250.19995117188
798.200831899137	1242.80004882813
798.92273740127	1238.80004882813
799.644552697769	1257.19995117188
800.36627779651	1248.80004882813
801.087912705374	1256.59997558594
801.809457432251	1263.40002441406
802.530911985017	1261.80004882813
803.252276371558	1263
803.973550599748	1258
804.694734677472	1255.59997558594
805.415828612611	1253.40002441406
806.136832413045	1256.19995117188
806.857746086646	1259.19995117188
807.578569641305	1252.59997558594
808.299303084892	1254.40002441406
809.019946425289	1260.80004882813
809.740499670372	1260.59997558594
810.460962828022	1256.19995117188
811.181335906114	1250.40002441406
811.901618912524	1262
812.621811855131	1260
813.341914741809	1250.59997558594
814.061927580433	1254.80004882813
814.781850378881	1247.59997558594
815.501683145025	1247.40002441406
816.221425886743	1250
816.941078611903	1250.40002441406
817.660641328387	1260
818.380114044065	1263.40002441406
819.099496766808	1253
819.818789504492	1255
820.53799226499	1252.80004882813
821.257105056168	1240.80004882813
821.976127885904	1237.59997558594
822.695060762064	1246.80004882813
823.413903692525	1251
824.132656685151	1245.40002441406
824.851319747817	1246.80004882813
825.569892888388	1243.19995117188
826.288376114739	1249.19995117188
827.006769434737	1254.19995117188
827.725072856249	1249.80004882813
828.443286387142	1243.19995117188
829.161410035285	1239.59997558594
829.87944380855	1250.19995117188
830.597387714798	1244.80004882813
831.315241761898	1247.80004882813
832.033005957715	1261.59997558594
832.750680310119	1256.59997558594
833.468264826969	1255.80004882813
834.18575951614	1261.80004882813
834.903164385486	1245.80004882813
835.620479442878	1241.19995117188
836.337704696181	1256.19995117188
837.054840153255	1253
837.771885821962	1246.59997558594
838.488841710172	1243.40002441406
839.20570782574	1246.19995117188
839.922484176531	1250.40002441406
840.639170770409	1250
841.355767615231	1246.19995117188
842.072274718864	1246.19995117188
842.788692089164	1233.59997558594
843.505019733993	1240.19995117188
844.221257661209	1247.40002441406
844.937405878676	1249.80004882813
845.65346439425	1246.40002441406
846.369433215789	1244
847.085312351156	1248.80004882813
847.801101808205	1262.19995117188
848.516801594793	1250.40002441406
849.232411718781	1243.40002441406
849.947932188021	1249.40002441406
850.663363010376	1247
851.378704193698	1256
852.093955745842	1241.40002441406
852.809117674669	1238.19995117188
853.524189988028	1239.80004882813
854.239172693778	1244.19995117188
854.954065799768	1251.19995117188
855.668869313857	1243.59997558594
856.383583243899	1247.40002441406
857.098207597743	1239.19995117188
857.812742383246	1231.40002441406
858.527187608255	1234
859.241543280628	1243.59997558594
859.955809408218	1245
860.669985998868	1251.80004882813
861.384073060437	1241.59997558594
862.098070600772	1249.40002441406
862.811978627724	1250.40002441406
863.52579714914	1250.59997558594
864.239526172873	1251.80004882813
864.953165706776	1248.80004882813
865.666715758687	1255
866.380176336464	1235.80004882813
867.093547447951	1237.19995117188
867.806829100996	1243.19995117188
868.520021303444	1234
869.233124063149	1236.59997558594
869.94613738795	1241.80004882813
870.659061285693	1248.40002441406
871.37189576423	1242.59997558594
872.084640831403	1238.19995117188
872.797296495057	1249.80004882813
873.509862763039	1247.59997558594
874.22233964319	1252.40002441406
874.934727143353	1242.59997558594
875.647025271374	1238.59997558594
876.359234035097	1241.80004882813
877.071353442361	1247.59997558594
877.783383501015	1242.59997558594
878.495324218895	1237.80004882813
879.207175603844	1250.80004882813
879.918937663705	1246.19995117188
880.630610406318	1250.40002441406
881.342193839524	1253.40002441406
882.053687971161	1250
882.765092809069	1253.19995117188
883.476408361091	1260.59997558594
884.187634635066	1254
884.898771638828	1252.19995117188
885.609819380221	1249.19995117188
886.320777867076	1249
887.031647107236	1242
887.742427108536	1243.19995117188
888.453117878816	1233.80004882813
889.16371942591	1228.19995117188
889.874231757652	1240.59997558594
890.584654881883	1223.59997558594
891.294988806434	1237
892.005233539141	1237.19995117188
892.715389087837	1239.80004882813
893.42545546036	1250.59997558594
894.135432664543	1242.19995117188
894.845320708216	1246.59997558594
895.555119599216	1244.40002441406
896.264829345375	1246.80004882813
896.974449954526	1247.19995117188
897.683981434496	1248.59997558594
898.393423793125	1246.59997558594
899.102777038235	1242.40002441406
899.812041177664	1229.80004882813
900.521216219239	1235.40002441406
901.230302170793	1240.59997558594
901.939299040155	1236.80004882813
902.64820683515	1233
903.357025563612	1234
904.065755233368	1229.40002441406
904.774395852247	1237
905.482947428076	1243.19995117188
906.191409968682	1245.80004882813
906.899783481897	1244
907.608067975538	1256.19995117188
908.316263457443	1260.19995117188
909.02436993543	1260.80004882813
909.732387417327	1258.80004882813
910.440315910959	1251.40002441406
911.148155424154	1241
911.855905964731	1241
912.563567540521	1255.80004882813
913.271140159339	1248.59997558594
913.978623829017	1235
914.686018557374	1240
915.393324352237	1245.59997558594
916.100541221421	1246.19995117188
916.807669172752	1241.80004882813
917.514708214054	1262.19995117188
918.221658353142	1260
918.928519597843	1267.19995117188
919.635291955976	1259.59997558594
920.341975435358	1259.40002441406
921.048570043813	1256.59997558594
921.75507578916	1257.40002441406
922.461492679212	1266
923.167820721795	1269
923.874059924726	1262.19995117188
924.58021029582	1260.59997558594
925.286271842893	1257
925.992244573769	1261
926.698128496262	1250.59997558594
927.403923618184	1244
928.109629947355	1246.59997558594
928.815247491593	1247.80004882813
929.520776258708	1249.40002441406
930.226216256519	1251.59997558594
930.931567492841	1265
931.636829975482	1258.19995117188
932.342003712263	1258
933.047088710995	1257
933.752084979491	1250
934.456992525564	1249.59997558594
935.161811357024	1253
935.866541481688	1250.59997558594
936.571182907363	1252.59997558594
937.275735641861	1238.80004882813
937.980199692995	1241.19995117188
938.684575068572	1239.59997558594
939.388861776411	1241.19995117188
940.093059824311	1238.40002441406
940.797169220085	1239.59997558594
941.501189971544	1235.59997558594
942.205122086495	1233.59997558594
942.908965572751	1238
943.612720438111	1228
944.316386690391	1237.40002441406
945.019964337391	1232.59997558594
945.723453386924	1229.19995117188
946.426853846795	1241
947.130165724808	1237.80004882813
947.83338902877	1244.19995117188
948.536523766488	1237.40002441406
949.239569945764	1244
949.942527574402	1248.40002441406
950.64539666021	1238.40002441406
951.348177210993	1240.40002441406
952.050869234548	1241.19995117188
952.753472738683	1225.40002441406
953.455987731199	1217.40002441406
954.158414219898	1222.59997558594
954.860752212587	1219.19995117188
955.563001717061	1217.40002441406
956.265162741124	1225.40002441406
956.967235292576	1224.80004882813
957.669219379224	1219.59997558594
958.371115008857	1223.19995117188
959.072922189283	1233.80004882813
959.774640928301	1217.80004882813
960.476271233708	1240.59997558594
961.177813113301	1229.80004882813
961.879266574882	1240.40002441406
962.580631626248	1240
963.281908275194	1249.80004882813
963.98309652952	1233.80004882813
964.684196397022	1236
965.3852078855	1231
966.086131002745	1221.40002441406
966.786965756555	1231
967.487712154726	1229.40002441406
968.188370205055	1221.19995117188
968.888939915331	1223.19995117188
969.589421293352	1220.80004882813
970.289814346909	1222
970.990119083801	1224.40002441406
971.690335511819	1223
972.39046363875	1224.40002441406
973.090503472398	1209.80004882813
973.790455020545	1221.80004882813
974.490318290987	1212.19995117188
975.190093291516	1213
975.889780029923	1212.19995117188
976.589378513998	1213.40002441406
977.288888751527	1219.19995117188
977.988310750308	1219.59997558594
978.687644518122	1228
979.386890062767	1232.80004882813
980.086047392025	1226.19995117188
980.785116513689	1232.40002441406
981.484097435542	1223.40002441406
982.182990165377	1230.40002441406
982.88179471098	1221.40002441406
983.580511080137	1218.59997558594
984.279139280632	1221
984.977679320253	1227.80004882813
985.67613120679	1216.80004882813
986.374494948027	1217.19995117188
987.072770551745	1215.40002441406
987.770958025731	1209.80004882813
988.469057377772	1218
989.167068615649	1217
989.864991747145	1223
990.562826780047	1217.80004882813
991.260573722134	1220.80004882813
991.958232581195	1217.80004882813
992.655803365003	1223.40002441406
993.353286081346	1210
994.050680738006	1220
994.74798734276	1222.40002441406
995.44520590339	1221.40002441406
996.142336427681	1223.80004882813
996.839378923407	1240.40002441406
997.536333398348	1235.80004882813
998.233199860289	1227.59997558594
998.929978317004	1233.19995117188
999.626668776274	1224
1000.32327124587	1227
1001.01978573359	1226.59997558594
1001.71621224718	1228
1002.41255079445	1222.59997558594
1003.10880138315	1226.59997558594
1003.80496402107	1211.59997558594
1004.50103871599	1203.59997558594
1005.19702547567	1211.80004882813
1005.8929243079	1226.40002441406
1006.58873522045	1227.80004882813
1007.2844582211	1228.59997558594
1007.98009331761	1222.80004882813
1008.67564051776	1234.19995117188
1009.37109982933	1227.19995117188
1010.06647126009	1237.40002441406
1010.7617548178	1226.80004882813
1011.45695051026	1226.19995117188
1012.15205834522	1217.59997558594
1012.84707833045	1228.80004882813
1013.54201047373	1228.40002441406
1014.23685478284	1237.80004882813
1014.93161126553	1240.59997558594
1015.62627992959	1240.40002441406
1016.32086078277	1246.80004882813
1017.01535383285	1241.40002441406
1017.70975908761	1240.80004882813
1018.40407655479	1235
1019.09830624219	1226
1019.79244815755	1231
1020.48650230866	1235.19995117188
1021.18046870328	1226.80004882813
1021.87434734917	1222.19995117188
1022.56813825411	1233.19995117188
1023.26184142584	1222.40002441406
1023.95545687216	1219.80004882813
1024.64898460082	1206
1025.34242461957	1218.19995117188
1026.0357769362	1202.80004882813
1026.72904155846	1217.19995117188
1027.42221849412	1222.80004882813
1028.11530775094	1228.80004882813
1028.80830933668	1237.19995117188
1029.50122325911	1234.59997558594
1030.19404952599	1231.80004882813
1030.88678814508	1225.59997558594
1031.57943912414	1227.19995117188
1032.27200247093	1227.59997558594
1032.96447819323	1227.19995117188
1033.65686629878	1219.19995117188
1034.34916679534	1219.40002441406
1035.04137969068	1219.19995117188
1035.73350499256	1220.80004882813
1036.42554270874	1222
1037.11749284697	1223.59997558594
1037.80935541501	1228.19995117188
1038.50113042062	1229.19995117188
1039.19281787156	1219.80004882813
1039.88441777559	1224.19995117188
1040.57593014046	1222
1041.26735497393	1222
1041.95869228376	1224.40002441406
1042.6499420777	1217.19995117188
1043.3411043635	1224.59997558594
1044.03217914893	1217.80004882813
1044.72316644174	1222.80004882813
1045.41406624968	1213
1046.1048785805	1213.40002441406
1046.79560344197	1220.40002441406
1047.48624084182	1216.59997558594
1048.17679078783	1207
1048.86725328774	1208.19995117188
1049.55762834929	1210.19995117188
1050.24791598025	1212.19995117188
1050.93811618837	1214
1051.62822898139	1223.59997558594
1052.31825436707	1221.40002441406
1053.00819235315	1217.40002441406
1053.6980429474	1213.59997558594
1054.38780615755	1215.80004882813
1055.07748199136	1206
1055.76707045658	1215.19995117188
1056.45657156095	1217.40002441406
1057.14598531222	1219.19995117188
1057.83531171814	1215.59997558594
1058.52455078646	1217
1059.21370252494	1206.59997558594
1059.90276694129	1204.40002441406
1060.5917440433	1210.59997558594
1061.28063383868	1211.40002441406
1061.9694363352	1213.80004882813
1062.65815154059	1219
1063.34677946261	1219.40002441406
1064.03532010899	1227.80004882813
1064.72377348748	1224.40002441406
1065.41213960583	1214.40002441406
1066.10041847177	1210
1066.78861009306	1202
1067.47671447743	1197
1068.16473163263	1205
1068.85266156639	1200.80004882813
1069.54050428647	1204.80004882813
1070.2282598006	1193.80004882813
1070.91592811652	1197.40002441406
1071.60350924198	1193.59997558594
1072.29100318471	1203.59997558594
1072.97840995245	1212.19995117188
1073.66572955295	1219.80004882813
1074.35296199394	1207.19995117188
1075.04010728316	1208.80004882813
1075.72716542836	1201.80004882813
1076.41413643726	1212.40002441406
1077.10102031761	1212
1077.78781707715	1221.19995117188
1078.4745267236	1217
1079.16114926471	1223.19995117188
1079.84768470822	1200
1080.53413306185	1198.19995117188
1081.22049433336	1197.40002441406
1081.90676853046	1196.40002441406
1082.5929556609	1204.80004882813
1083.27905573241	1212
1083.96506875272	1213.59997558594
1084.65099472957	1207.59997558594
1085.3368336707	1212.80004882813
1086.02258558383	1215.59997558594
1086.70825047669	1204.80004882813
1087.39382835703	1208.59997558594
1088.07931923257	1201.59997558594
1088.76472311104	1202.59997558594
1089.45004000018	1212
1090.13526990771	1213.80004882813
1090.82041284137	1213.80004882813
1091.50546880889	1210.59997558594
1092.19043781799	1213.40002441406
1092.87531987642	1223.40002441406
1093.56011499188	1213.19995117188
1094.24482317212	1216.40002441406
1094.92944442486	1211.40002441406
1095.61397875783	1208.40002441406
1096.29842617876	1205.19995117188
1096.98278669537	1201.59997558594
1097.6670603154	1200.19995117188
1098.35124704656	1205
1099.03534689659	1205.40002441406
1099.71935987322	1199.80004882813
1100.40328598416	1200.40002441406
1101.08712523713	1195.40002441406
1101.77087763988	1205
1102.45454320012	1200.80004882813
1103.13812192557	1192.80004882813
1103.82161382396	1204.80004882813
1104.50501890301	1206.40002441406
1105.18833717045	1212.40002441406
1105.87156863399	1214.80004882813
1106.55471330137	1212.59997558594
1107.2377711803	1213
1107.9207422785	1214.19995117188
1108.60362660369	1205
1109.2864241636	1206.80004882813
1109.96913496594	1212.19995117188
1110.65175901844	1209.40002441406
1111.33429632882	1204
1112.01674690479	1202.40002441406
1112.69911075408	1217.19995117188
1113.38138788439	1219.19995117188
1114.06357830346	1226.40002441406
1114.745682019	1221
1115.42769903872	1222.40002441406
1116.10962937035	1218.59997558594
1116.7914730216	1219.40002441406
1117.47323000018	1209.59997558594
1118.15490031382	1216
1118.83648397022	1226.59997558594
1119.51798097712	1221
1120.1993913422	1226.80004882813
1120.88071507321	1218.40002441406
1121.56195217784	1228
1122.24310266381	1225.59997558594
1122.92416653884	1230.59997558594
1123.60514381064	1231.40002441406
1124.28603448692	1225
1124.9668385754	1225.80004882813
1125.64755608378	1219.80004882813
1126.32818701978	1223.19995117188
1127.00873139111	1222.19995117188
1127.68918920548	1229.59997558594
1128.3695604706	1223.59997558594
1129.04984519419	1222.59997558594
1129.73004338394	1222
1130.41015504758	1219.40002441406
1131.09018019281	1217
1131.77011882734	1217.59997558594
1132.44997095888	1213
1133.12973659514	1217.59997558594
1133.80941574381	1222.40002441406
1134.48900841263	1220.19995117188
1135.16851460927	1210.59997558594
1135.84793434147	1216.19995117188
1136.52726761692	1213.19995117188
1137.20651444333	1208
1137.8856748284	1212.19995117188
1138.56474877984	1202.80004882813
1139.24373630536	1207.19995117188
1139.92263741265	1210.19995117188
1140.60145210943	1207.80004882813
1141.28018040339	1207.19995117188
1141.95882230225	1202.80004882813
1142.6373778137	1199.59997558594
1143.31584694545	1195.19995117188
1143.99422970519	1199.40002441406
1144.67252610064	1210
1145.35073613949	1214
1146.02885982944	1212.19995117188
1146.7068971782	1206.19995117188
1147.38484819347	1213.59997558594
1148.06271288294	1201.40002441406
1148.74049125432	1204.59997558594
1149.41818331531	1202.40002441406
1150.0957890736	1206.19995117188
1150.77330853689	1204.80004882813
1151.45074171289	1207.19995117188
1152.12808860928	1201
1152.80534923378	1192.80004882813
1153.48252359407	1190.19995117188
1154.15961169786	1197.80004882813
1154.83661355283	1193.40002441406
1155.51352916669	1202
1156.19035854713	1207
1156.86710170185	1207.19995117188
1157.54375863855	1204.19995117188
1158.22032936491	1213.40002441406
1158.89681388863	1208.80004882813
1159.57321221741	1198.40002441406
1160.24952435894	1201.19995117188
1160.92575032092	1200.59997558594
1161.60189011103	1214.19995117188
1162.27794373697	1206
1162.95391120644	1210.19995117188
1163.62979252712	1212.59997558594
1164.3055877067	1199.80004882813
1164.98129675288	1203.59997558594
1165.65691967336	1191.19995117188
1166.33245647581	1204.59997558594
1167.00790716792	1194.59997558594
1167.6832717574	1201.59997558594
1168.35855025193	1195.40002441406
1169.0337426592	1195.19995117188
1169.70884898689	1190.40002441406
1170.3838692427	1198.59997558594
1171.05880343431	1206.80004882813
1171.73365156941	1196.40002441406
1172.40841365569	1200.59997558594
1173.08308970083	1213
1173.75767971253	1223.40002441406
1174.43218369847	1208.59997558594
1175.10660166633	1218
1175.7809336238	1210.80004882813
1176.45517957857	1215
1177.12933953832	1209.40002441406
1177.80341351073	1208.19995117188
1178.47740150349	1205.19995117188
1179.15130352429	1201.19995117188
1179.8251195808	1202.80004882813
1180.49884968071	1214.80004882813
1181.1724938317	1213.40002441406
1181.84605204145	1209.40002441406
1182.51952431766	1208.80004882813
1183.19291066799	1214.40002441406
1183.86621110013	1211.19995117188
1184.53942562176	1234.40002441406
1185.21255424057	1233.80004882813
1185.88559696422	1226.59997558594
1186.55855380041	1225
1187.2314247568	1233.40002441406
1187.90420984109	1223.19995117188
1188.57690906095	1232.59997558594
1189.24952242405	1226.80004882813
1189.92204993808	1238.59997558594
1190.59449161071	1233.59997558594
1191.26684744962	1237.19995117188
1191.93911746249	1228.40002441406
1192.61130165699	1231.40002441406
1193.28340004081	1224.19995117188
1193.95541262161	1226
1194.62733940707	1215.19995117188
1195.29918040487	1218.19995117188
1195.97093562269	1215
1196.64260506819	1219
1197.31418874905	1211.80004882813
1197.98568667295	1214.80004882813
1198.65709884755	1219.80004882813
1199.32842528053	1214.40002441406
1199.99966597957	1203
1200.67082095234	1192.59997558594
1201.3418902065	1202.59997558594
1202.01287374974	1189.80004882813
1202.68377158971	1192.80004882813
1203.3545837341	1200.19995117188
1204.02531019057	1197.59997558594
1204.6959509668	1207
1205.36650607045	1200.80004882813
1206.03697550919	1206.59997558594
1206.70735929069	1202.59997558594
1207.37765742263	1188.80004882813
1208.04786991266	1196.80004882813
1208.71799676846	1188.59997558594
1209.38803799769	1195.19995117188
1210.05799360803	1204
1210.72786360714	1204.40002441406
1211.39764800268	1204.80004882813
1212.06734680233	1205
1212.73696001375	1204.40002441406
1213.4064876446	1205.59997558594
1214.07592970255	1194.80004882813
1214.74528619526	1196
1215.4145571304	1199.19995117188
1216.08374251564	1205.40002441406
1216.75284235863	1197.19995117188
1217.42185666704	1196.40002441406
1218.09078544854	1198.80004882813
1218.75962871078	1188.59997558594
1219.42838646143	1189.40002441406
1220.09705870816	1199.40002441406
1220.76564545861	1201
1221.43414672046	1204
1222.10256250136	1200.40002441406
1222.77089280898	1183.59997558594
1223.43913765098	1198.80004882813
1224.107297035	1190.19995117188
1224.77537096873	1200
1225.44335945981	1192.19995117188
1226.1112625159	1197.59997558594
1226.77908014467	1195.19995117188
1227.44681235376	1199
1228.11445915085	1198.40002441406
1228.78202054357	1197
1229.44949653961	1199.80004882813
1230.11688714659	1193.59997558594
1230.7841923722	1199.19995117188
1231.45141222407	1184.80004882813
1232.11854670988	1182
1232.78559583726	1188.19995117188
1233.45255961388	1183.19995117188
1234.1194380474	1188.59997558594
1234.78623114546	1203.59997558594
1235.45293891572	1200.40002441406
1236.11956136583	1203.40002441406
1236.78609850345	1192.59997558594
1237.45255033623	1193.59997558594
1238.11891687182	1188.80004882813
1238.78519811788	1193.59997558594
1239.45139408205	1190
1240.11750477198	1188.40002441406
1240.78353019534	1195.40002441406
1241.44947035976	1187.19995117188
1242.11532527291	1193.59997558594
1242.78109494242	1195.59997558594
1243.44677937595	1189.40002441406
1244.11237858115	1191.80004882813
1244.77789256567	1195.40002441406
1245.44332133715	1199.59997558594
1246.10866490325	1202.40002441406
1246.7739232716	1201.19995117188
1247.43909644987	1196
1248.10418444569	1198.59997558594
1248.76918726671	1191
1249.43410492059	1189.19995117188
1250.09893741496	1191
1250.76368475747	1191
1251.42834695576	1198.59997558594
1252.09292401749	1194.19995117188
1252.75741595029	1183.40002441406
1253.42182276182	1187.59997558594
1254.08614445971	1190.19995117188
1254.75038105161	1203.80004882813
1255.41453254515	1206.59997558594
1256.07859894799	1200
1256.74258026777	1204.80004882813
1257.40647651213	1199
1258.0702876887	1195.19995117188
1258.73401380514	1198.59997558594
1259.39765486908	1195.40002441406
1260.06121088817	1183
1260.72468187004	1196
1261.38806782233	1191
1262.05136875269	1188.80004882813
1262.71458466875	1194.40002441406
1263.37771557815	1181.59997558594
1264.04076148854	1184.40002441406
1264.70372240753	1194.19995117188
1265.3665983428	1182.19995117188
1266.02938930195	1186.19995117188
1266.69209529263	1192
1267.35471632249	1186.19995117188
1268.01725239914	1175.40002441406
1268.67970353024	1164.40002441406
1269.34206972342	1173
1270.00435098631	1172.40002441406
1270.66654732655	1171.19995117188
1271.32865875177	1173
1271.9906852696	1162.59997558594
1272.65262688768	1168.40002441406
1273.31448361365	1165.59997558594
1273.97625545514	1165.80004882813
1274.63794241978	1165.19995117188
1275.2995445152	1165
1275.96106174903	1178.40002441406
1276.62249412892	1178.59997558594
1277.28384166248	1171.40002441406
1277.94510435735	1171.59997558594
1278.60628222116	1176.19995117188
1279.26737526155	1174.59997558594
1279.92838348613	1180
1280.58930690255	1182
1281.25014551842	1181.40002441406
1281.91089934139	1179
1282.57156837907	1174.80004882813
1283.2321526391	1181
1283.89265212911	1179
1284.55306685671	1178.40002441406
1285.21339682955	1172.19995117188
1285.87364205525	1185.40002441406
1286.53380254142	1171
1287.19387829571	1176
1287.85386932573	1172
1288.51377563911	1181.19995117188
1289.17359724348	1180.80004882813
1289.83333414646	1184.40002441406
1290.49298635567	1183.19995117188
1291.15255387874	1186.40002441406
1291.8120367233	1188.59997558594
1292.47143489696	1177.80004882813
1293.13074840736	1184.40002441406
1293.7899772621	1185
1294.44912146882	1189.59997558594
1295.10818103513	1183
1295.76715596866	1181.59997558594
1296.42604627704	1184.80004882813
1297.08485196787	1184.80004882813
1297.74357304878	1184.59997558594
1298.4022095274	1185
1299.06076141134	1192.40002441406
1299.71922870821	1192.59997558594
1300.37761142565	1186.19995117188
1301.03590957126	1190.80004882813
1301.69412315268	1182.80004882813
1302.3522521775	1184
1303.01029665336	1179.40002441406
1303.66825658787	1182.40002441406
1304.32613198865	1189.40002441406
1304.98392286332	1190.59997558594
1305.64162921948	1195.19995117188
1306.29925106476	1188
1306.95678840677	1188.19995117188
1307.61424125312	1188.80004882813
1308.27160961145	1186.80004882813
1308.92889348934	1191.80004882813
1309.58609289443	1197.19995117188
1310.24320783432	1203.80004882813
1310.90023831664	1198.40002441406
1311.55718434898	1199.40002441406
1312.21404593897	1197
1312.87082309421	1186.59997558594
1313.52751582233	1187.80004882813
1314.18412413092	1193.19995117188
1314.84064802761	1198
1315.49708752	1194.80004882813
1316.1534426157	1188.40002441406
1316.80971332233	1194.80004882813
1317.46589964749	1198.80004882813
1318.1220015988	1203.80004882813
1318.77801918386	1196.59997558594
1319.43395241028	1193.40002441406
1320.08980128567	1199.80004882813
1320.74556581764	1203.40002441406
1321.4012460138	1193.80004882813
1322.05684188176	1202.59997558594
1322.71235342911	1194.19995117188
1323.36778066347	1195.40002441406
1324.02312359245	1197
1324.67838222365	1183.19995117188
1325.33355656468	1180.19995117188
1325.98864662314	1185.59997558594
1326.64365240663	1180.59997558594
1327.29857392277	1177.59997558594
1327.95341117915	1172
1328.60816418339	1163.19995117188
1329.26283294308	1176.40002441406
1329.91741746582	1176.59997558594
1330.57191775923	1185.59997558594
1331.2263338309	1192
1331.88066568843	1194.40002441406
1332.53491333943	1195.40002441406
1333.1890767915	1190.19995117188
1333.84315605224	1198.59997558594
1334.49715112925	1198.40002441406
1335.15106203013	1193
1335.80488876249	1183.19995117188
1336.45863133391	1180.80004882813
1337.112289752	1170
1337.76586402437	1180.40002441406
1338.4193541586	1168
1339.0727601623	1167.40002441406
1339.72608204306	1178
1340.37931980849	1182.19995117188
1341.03247346617	1201.40002441406
1341.68554302372	1191
1342.33852848871	1199.80004882813
1342.99142986876	1196
1343.64424717145	1211.40002441406
1344.29698040438	1201.40002441406
1344.94962957515	1202.59997558594
1345.60219469135	1203.40002441406
1346.25467576058	1218.40002441406
1346.90707279042	1213.59997558594
1347.55938578848	1211.80004882813
1348.21161476235	1208.19995117188
1348.86375971962	1205.40002441406
1349.51582066787	1209.19995117188
1350.16779761472	1207
1350.81969056774	1212.59997558594
1351.47149953453	1210.19995117188
1352.12322452269	1209.80004882813
1352.77486553979	1219.40002441406
1353.42642259344	1227
1354.07789569122	1230.19995117188
1354.72928484072	1222
1355.38059004953	1222.59997558594
1356.03181132525	1226.40002441406
1356.68294867545	1231.19995117188
1357.33400210773	1244.19995117188
1357.98497162968	1239.80004882813
1358.63585724889	1233.59997558594
1359.28665897294	1241.40002441406
1359.93737680942	1244
1360.58801076591	1251.59997558594
1361.23856085001	1241
1361.88902706929	1255.19995117188
1362.53940943135	1238
1363.18970794377	1228
1363.83992261413	1230
1364.49005345003	1230.19995117188
1365.14010045904	1235
1365.79006364874	1238.80004882813
1366.43994302673	1224.59997558594
1367.08973860058	1226.19995117188
1367.73945037788	1223
1368.38907836621	1231.59997558594
1369.03862257315	1218
1369.68808300629	1200.40002441406
1370.3374596732	1210.19995117188
1370.98675258148	1200.80004882813
1371.63596173868	1196.40002441406
1372.28508715241	1208
1372.93412883024	1192.80004882813
1373.58308677974	1196.19995117188
1374.2319610085	1196.40002441406
1374.8807515241	1201.40002441406
1375.52945833412	1188.80004882813
1376.17808144612	1184.40002441406
1376.82662086771	1185.59997558594
1377.47507660644	1198
1378.12344866989	1190.40002441406
1378.77173706565	1181.59997558594
1379.41994180129	1190.80004882813
1380.06806288439	1181.80004882813
1380.71610032252	1184.59997558594
1381.36405412326	1183.40002441406
1382.01192429419	1182.40002441406
1382.65971084287	1185
1383.30741377688	1187.80004882813
1383.95503310381	1175.59997558594
1384.60256883121	1186
1385.25002096667	1171.59997558594
1385.89738951775	1185.59997558594
1386.54467449204	1182.40002441406
1387.19187589709	1179.59997558594
1387.8389937405	1176.19995117188
1388.48602802982	1179.40002441406
1389.13297877262	1171.80004882813
1389.77984597649	1182
1390.42662964899	1185.80004882813
1391.07332979768	1182.19995117188
1391.71994643015	1181.59997558594
1392.36647955395	1185.80004882813
1393.01292917667	1173.59997558594
1393.65929530586	1168.59997558594
1394.3055779491	1175.80004882813
1394.95177711395	1177.59997558594
1395.59789280799	1173.80004882813
1396.24392503877	1174.80004882813
1396.88987381387	1174.19995117188
1397.53573914086	1167.40002441406
1398.1815210273	1163.19995117188
1398.82721948075	1160.80004882813
1399.47283450878	1162.59997558594
1400.11836611897	1168.19995117188
1400.76381431886	1165.80004882813
1401.40917911603	1166
1402.05446051805	1158.40002441406
1402.69965853247	1166.59997558594
1403.34477316686	1170.80004882813
1403.98980442878	1170.59997558594
1404.6347523258	1164.59997558594
1405.27961686548	1169
1405.92439805538	1171.80004882813
1406.56909590306	1165.40002441406
1407.21371041608	1161
1407.85824160202	1171
1408.50268946841	1166.40002441406
1409.14705402284	1171
1409.79133527285	1170.80004882813
1410.43553322601	1175.40002441406
1411.07964788987	1177.59997558594
1411.723679272	1170.59997558594
1412.36762737996	1166.40002441406
1413.01149222129	1173.59997558594
1413.65527380357	1170.40002441406
1414.29897213435	1167.40002441406
1414.94258722118	1166.80004882813
1415.58611907163	1167.19995117188
1416.22956769325	1166
1416.87293309359	1166
1417.51621528021	1156.80004882813
1418.15941426067	1169.19995117188
1418.80253004253	1169.40002441406
1419.44556263333	1177.80004882813
1420.08851204063	1180.59997558594
1420.731378272	1180.59997558594
1421.37416133497	1174.19995117188
1422.0168612371	1183.80004882813
1422.65947798596	1155.59997558594
1423.30201158908	1167.59997558594
1423.94446205403	1173.80004882813
1424.58682938835	1170.59997558594
1425.2291135996	1164.59997558594
1425.87131469532	1163
1426.51343268308	1169
1427.15546757042	1162
1427.79741936488	1162.40002441406
1428.43928807403	1164.40002441406
1429.0810737054	1161
1429.72277626656	1165.19995117188
1430.36439576504	1169.59997558594
1431.00593220841	1162.19995117188
1431.64738560419	1174.59997558594
1432.28875595995	1158.19995117188
1432.93004328324	1156.59997558594
1433.57124758159	1150.40002441406
1434.21236886255	1161.80004882813
1434.85340713368	1157.40002441406
1435.49436240252	1166.59997558594
1436.13523467661	1169.80004882813
1436.77602396349	1165.80004882813
1437.41673027073	1167
1438.05735360585	1170
1438.69789397641	1169.40002441406
1439.33835138994	1169
1439.978725854	1167
1440.61901737612	1170
1441.25922596385	1174.80004882813
1441.89935162473	1176.19995117188
1442.53939436631	1180.40002441406
1443.17935419612	1169
1443.81923112171	1167.19995117188
1444.45902515061	1164.19995117188
1445.09873629038	1164.59997558594
1445.73836454854	1169
1446.37790993265	1170.59997558594
1447.01737245024	1165.40002441406
1447.65675210885	1184
1448.29604891602	1190
1448.93526287928	1183.59997558594
1449.57439400618	1187.40002441406
1450.21344230426	1185.40002441406
1450.85240778105	1172
1451.49129044409	1178.59997558594
1452.13009030092	1166
1452.76880735907	1164.59997558594
1453.40744162608	1167
1454.04599310949	1169.59997558594
1454.68446181683	1176.19995117188
1455.32284775564	1166.59997558594
1455.96115093345	1166
1456.5993713578	1167.59997558594
1457.23750903623	1170.59997558594
1457.87556397626	1168
1458.51353618543	1160
1459.15142567127	1157.40002441406
1459.78923244132	1165.40002441406
1460.42695650311	1167.59997558594
1461.06459786417	1167.19995117188
1461.70215653203	1162.80004882813
1462.33963251423	1159.40002441406
1462.97702581829	1163.40002441406
1463.61433645175	1158.59997558594
1464.25156442214	1164.19995117188
1464.88870973699	1164.80004882813
1465.52577240382	1155.80004882813
1466.16275243017	1155.59997558594
1466.79964982356	1155.19995117188
1467.43646459154	1154
1468.07319674161	1152.19995117188
1468.70984628132	1147.19995117188
1469.34641321818	1142
1469.98289755974	1150.40002441406
1470.6192993135	1141.80004882813
1471.25561848701	1141.19995117188
1471.89185508779	1133.19995117188
1472.52800912336	1135.80004882813
1473.16408060124	1141.19995117188
1473.80006952897	1140
1474.43597591407	1136.59997558594
1475.07179976406	1146.59997558594
1475.70754108647	1149
1476.34319988883	1148.40002441406
1476.97877617865	1154
1477.61426996345	1158
1478.24968125077	1160.19995117188
1478.88501004812	1161.59997558594
1479.52025636303	1154.40002441406
1480.15542020302	1154.80004882813
1480.79050157561	1155.80004882813
1481.42550048832	1159
1482.06041694867	1153
1482.69525096418	1148.80004882813
1483.33000254237	1151.40002441406
1483.96467169077	1157.80004882813
1484.59925841689	1150.80004882813
1485.23376272825	1155.80004882813
1485.86818463237	1157
1486.50252413677	1154
1487.13678124896	1154.40002441406
1487.77095597646	1158.40002441406
1488.4050483268	1162.19995117188
1489.03905830749	1151.80004882813
1489.67298592604	1159.40002441406
1490.30683118996	1162.80004882813
1490.9405941068	1168.40002441406
1491.57427468403	1171.19995117188
1492.2078729292	1173.19995117188
1492.84138884981	1165.80004882813
1493.47482245338	1153.59997558594
1494.10817374742	1164.80004882813
1494.74144273944	1156
1495.37462943696	1164.40002441406
1496.0077338475	1161.80004882813
1496.64075597856	1157.40002441406
1497.27369583765	1161.19995117188
1497.9065534323	1154.59997558594
1498.53932877001	1153.19995117188
1499.17202185829	1156
1499.80463270465	1162.59997558594
1500.43716131661	1166.19995117188
1501.06960770167	1173
1501.70197186735	1159.80004882813
1502.33425382116	1171.19995117188
1502.96645357059	1168.59997558594
1503.59857112317	1170.19995117188
1504.23060648641	1168.40002441406
1504.8625596678	1169
1505.49443067486	1168.19995117188
1506.1262195151	1168.40002441406
1506.75792619602	1162
1507.38955072513	1165
1508.02109310993	1159
1508.65255335794	1160.59997558594
1509.28393147666	1157.40002441406
1509.91522747359	1156.40002441406
1510.54644135624	1162.19995117188
1511.17757313212	1164.80004882813
1511.80862280872	1166.19995117188
1512.43959039356	1177
1513.07047589413	1174
1513.70127931795	1174.19995117188
1514.33200067251	1168.40002441406
1514.96263996531	1168.19995117188
1515.59319720386	1173.19995117188
1516.22367239567	1174.19995117188
1516.85406554822	1162.19995117188
1517.48437666903	1173
1518.1146057656	1164.19995117188
1518.74475284542	1162.59997558594
1519.374817916	1159
1520.00480098483	1153.80004882813
1520.63470205942	1144.40002441406
1521.26452114726	1137.80004882813
1521.89425825586	1136.40002441406
1522.52391339271	1141
1523.15348656531	1138.59997558594
1523.78297778116	1139.40002441406
1524.41238704775	1135.80004882813
1525.04171437259	1126.40002441406
1525.67095976317	1136
1526.30012322699	1136.80004882813
1526.92920477154	1132
1527.55820440432	1151.40002441406
1528.18712213283	1143.59997558594
1528.81595796455	1140.19995117188
1529.44471190699	1142.80004882813
1530.07338396764	1139.19995117188
1530.70197415399	1151.40002441406
1531.33048247353	1154.59997558594
1531.95890893377	1142
1532.58725354219	1154.80004882813
1533.21551630629	1154.40002441406
1533.84369723356	1144.40002441406
1534.47179633148	1152
1535.09981360757	1162.80004882813
1535.72774906929	1160.40002441406
1536.35560272415	1159.59997558594
1536.98337457963	1149.19995117188
1537.61106464323	1149.59997558594
1538.23867292243	1160.40002441406
1538.86619942473	1155.80004882813
1539.49364415762	1151.19995117188
1540.12100712857	1152.59997558594
1540.74828834509	1155.80004882813
1541.37548781466	1154.40002441406
1542.00260554478	1155.40002441406
1542.62964154291	1157.80004882813
1543.25659581655	1156.59997558594
1543.8834683732	1141.80004882813
1544.51025922034	1146.80004882813
1545.13696836544	1149.40002441406
1545.76359581601	1140.80004882813
1546.39014157952	1137
1547.01660566345	1145.19995117188
1547.64298807531	1143
1548.26928882255	1144.80004882813
1548.89550791269	1142.80004882813
1549.52164535318	1137.40002441406
1550.14770115153	1146
1550.77367531521	1140
1551.39956785171	1135.19995117188
1552.0253787685	1144.80004882813
1552.65110807307	1138
1553.2767557729	1140.40002441406
1553.90232187548	1143.19995117188
1554.52780638828	1143.40002441406
1555.15320931879	1140.40002441406
1555.77853067447	1133.59997558594
1556.40377046282	1133.19995117188
1557.02892869132	1133
1557.65400536744	1129.80004882813
1558.27900049866	1133.19995117188
1558.90391409247	1134.80004882813
1559.52874615633	1131.59997558594
1560.15349669773	1131.80004882813
1560.77816572414	1140.40002441406
1561.40275324305	1143.80004882813
1562.02725926192	1149.59997558594
1562.65168378824	1149.40002441406
1563.27602682948	1139
1563.90028839311	1135.80004882813
1564.52446848662	1138.40002441406
1565.14856711748	1141.40002441406
1565.77258429316	1143.80004882813
1566.39652002113	1147.40002441406
1567.02037430887	1136
1567.64414716387	1142.40002441406
1568.26783859357	1141.59997558594
1568.89144860547	1137.59997558594
1569.51497720703	1144
1570.13842440573	1137.80004882813
1570.76179020904	1134.40002441406
1571.38507462442	1141.59997558594
1572.00827765936	1139.40002441406
1572.63139932132	1147.80004882813
1573.25443961777	1145.40002441406
1573.87739855618	1145.19995117188
1574.50027614402	1147.40002441406
1575.12307238877	1145.40002441406
1575.74578729789	1154.40002441406
1576.36842087885	1141.19995117188
1576.99097313912	1134.59997558594
1577.61344408616	1140.80004882813
1578.23583372745	1139.19995117188
1578.85814207046	1138.40002441406
1579.48036912264	1132.19995117188
1580.10251489147	1139.59997558594
1580.72457938441	1121.80004882813
1581.34656260893	1128.40002441406
1581.9684645725	1123.40002441406
1582.59028528258	1139
1583.21202474663	1138
1583.83368297212	1133.19995117188
1584.45525996652	1134
1585.07675573728	1136.80004882813
1585.69817029188	1131
1586.31950363778	1131.59997558594
1586.94075578243	1123.19995117188
1587.5619267333	1117.80004882813
1588.18301649786	1122.40002441406
1588.80402508357	1110.80004882813
1589.42495249788	1118.59997558594
1590.04579874826	1117.19995117188
1590.66656384217	1117.59997558594
1591.28724778707	1129.59997558594
1591.90785059042	1126.19995117188
1592.52837225968	1119.59997558594
1593.14881280232	1123.19995117188
1593.76917222578	1125.59997558594
1594.38945053753	1117
1595.00964774502	1119.40002441406
1595.62976385573	1125.59997558594
1596.24979887709	1125.80004882813
1596.86975281657	1121.19995117188
1597.48962568164	1126
1598.10941747974	1125.19995117188
1598.72912821832	1128.19995117188
1599.34875790486	1119.40002441406
1599.9683065468	1117.80004882813
1600.58777415159	1110.40002441406
1601.2071607267	1099
1601.82646627958	1106.80004882813
1602.44569081769	1108.80004882813
1603.06483434846	1101.19995117188
1603.68389687937	1101.40002441406
1604.30287841786	1103.80004882813
1604.92177897139	1107.59997558594
1605.54059854741	1104.40002441406
1606.15933715337	1113.80004882813
1606.77799479672	1099.59997558594
1607.39657148492	1106
1608.01506722542	1109.19995117188
1608.63348202566	1105.80004882813
1609.2518158931	1109.40002441406
1609.87006883519	1105.19995117188
1610.48824085939	1099.59997558594
1611.10633197312	1088.40002441406
1611.72434218386	1088
1612.34227149904	1091
1612.96011992612	1089.59997558594
1613.57788747254	1089.40002441406
1614.19557414575	1094
1614.8131799532	1098.19995117188
1615.43070490234	1095.59997558594
1616.04814900061	1096.40002441406
1616.66551225545	1094.59997558594
1617.28279467433	1095.80004882813
1617.89999626467	1098.40002441406
1618.51711703393	1094.40002441406
1619.13415698955	1095.59997558594
1619.75111613898	1103.40002441406
1620.36799448966	1094.80004882813
1620.98479204903	1102.59997558594
1621.60150882455	1102.40002441406
1622.21814482364	1106.40002441406
1622.83470005376	1115.80004882813
1623.45117452235	1116.80004882813
1624.06756823685	1121.19995117188
1624.6838812047	1113.19995117188
1625.30011343335	1118.19995117188
1625.91626493022	1107.80004882813
1626.53233570278	1113.80004882813
1627.14832575845	1112.59997558594
1627.76423510468	1106.59997558594
1628.38006374891	1100.80004882813
1628.99581169857	1098.80004882813
1629.61147896111	1106
1630.22706554397	1100.19995117188
1630.84257145457	1101.40002441406
1631.45799670038	1096
1632.07334128881	1092.80004882813
1632.6886052273	1098
1633.3037885233	1083.59997558594
1633.91889118425	1087.40002441406
1634.53391321757	1084
1635.1488546307	1094
1635.76371543108	1090
1636.37849562616	1080.40002441406
1636.99319522335	1085.59997558594
1637.60781423009	1084.59997558594
1638.22235265383	1086.19995117188
1638.83681050198	1085
1639.451187782	1080
1640.0654845013	1089.40002441406
1640.67970066734	1094.19995117188
1641.29383628752	1091.40002441406
1641.9078913693	1089.40002441406
1642.5218659201	1095.40002441406
1643.13575994735	1085.19995117188
1643.74957345849	1094
1644.36330646094	1092.59997558594
1644.97695896213	1090.80004882813
1645.59053096951	1088.19995117188
1646.20402249049	1091
1646.8174335325	1086.59997558594
1647.43076410298	1087
1648.04401420935	1089.40002441406
1648.65718385905	1088
1649.2702730595	1095.40002441406
1649.88328181812	1096.59997558594
1650.49621014236	1094
1651.10905803963	1099.19995117188
1651.72182551735	1099.80004882813
1652.33451258297	1100
1652.9471192439	1102.59997558594
1653.55964550757	1097.80004882813
1654.1720913814	1090.80004882813
1654.78445687283	1090.40002441406
1655.39674198926	1087.40002441406
1656.00894673814	1081.40002441406
1656.62107112688	1082.40002441406
1657.23311516291	1074.40002441406
1657.84507885365	1071.59997558594
1658.45696220652	1075.80004882813
1659.06876522895	1074.80004882813
1659.68048792835	1077.19995117188
1660.29213031217	1085.40002441406
1660.90369238779	1078.19995117188
1661.51517416267	1083.19995117188
1662.12657564421	1070.80004882813
1662.73789683984	1065.40002441406
1663.34913775697	1060.40002441406
1663.96029840303	1056.59997558594
1664.57137878544	1053.40002441406
1665.18237891161	1052.19995117188
1665.79329878897	1051
1666.40413842493	1053.40002441406
1667.01489782691	1055.59997558594
1667.62557700233	1056.80004882813
1668.2361759586	1057
1668.84669470315	1065.80004882813
1669.4571332434	1060.80004882813
1670.06749158675	1062.59997558594
1670.67776974062	1057.80004882813
1671.28796771243	1055.40002441406
1671.8980855096	1054.80004882813
1672.50812313954	1048.40002441406
1673.11808060967	1049
1673.72795792739	1052.19995117188
1674.33775510013	1050.80004882813
1674.9474721353	1048.59997558594
1675.55710904031	1050.19995117188
1676.16666582257	1043.80004882813
1676.7761424895	1052.80004882813
1677.38553904851	1053
1677.99485550702	1055.19995117188
1678.60409187243	1058.59997558594
1679.21324815215	1062
1679.8223243536	1059.19995117188
1680.43132048419	1055.80004882813
1681.04023655132	1054.59997558594
1681.64907256241	1049.80004882813
1682.25782852487	1044.40002441406
1682.86650444611	1040.80004882813
1683.47510033353	1036.80004882813
1684.08361619455	1041.19995117188
1684.69205203657	1038
1685.300407867	1044
1685.90868369325	1034.19995117188
1686.51687952272	1033.40002441406
1687.12499536283	1036.80004882813
1687.73303122098	1038.19995117188
1688.34098710457	1035
1688.94886302101	1034
1689.55665897772	1036.59997558594
1690.16437498208	1033
1690.77201104152	1028.80004882813
1691.37956716342	1035
1691.9870433552	1036.40002441406
1692.59443962426	1033.40002441406
1693.20175597801	1025.59997558594
1693.80899242384	1025.59997558594
1694.41614896916	1030.40002441406
1695.02322562138	1035.19995117188
1695.63022238789	1029.80004882813
1696.23713927609	1035.80004882813
1696.8439762934	1043.80004882813
1697.4507334472	1041.40002441406
1698.05741074491	1032.80004882813
1698.66400819391	1041.59997558594
1699.27052580161	1035
1699.87696357542	1031.59997558594
1700.48332152272	1029
1701.08959965092	1026.40002441406
1701.69579796742	1027.59997558594
1702.30191647962	1020.79998779297
1702.90795519491	1029.40002441406
1703.51391412069	1024
1704.11979326437	1026.59997558594
1704.72559263332	1021
1705.33131223496	1019.59997558594
1705.93695207668	1019.79998779297
1706.54251216588	1022.79998779297
1707.14799250994	1018.59997558594
1707.75339311628	1014.79998779297
1708.35871399227	1013.79998779297
1708.96395514532	1012.40002441406
1709.56911658282	1016.79998779297
