634.948122577771	1524.40002441406
635.690341530823	1539
636.43246851086	1546.19995117188
637.174503525845	1536.59997558594
637.916446583745	1539.19995117188
638.658297692538	1538.59997558594
639.400056860179	1540
640.141724094637	1525.59997558594
640.883299403885	1516
641.62478279588	1522.40002441406
642.366174278594	1532.19995117188
643.107473859989	1526.80004882813
643.848681548029	1509
644.589797350679	1518.59997558594
645.330821275901	1508.19995117188
646.071753331665	1501.40002441406
646.812593525922	1510.59997558594
647.553341866646	1519
648.293998361798	1521.40002441406
649.03456301933	1511
649.775035847216	1512.59997558594
650.515416853409	1509
651.255706045874	1525.19995117188
651.995903432568	1520.19995117188
652.736009021453	1522.80004882813
653.476022820486	1534.19995117188
654.215944837629	1537
654.955775080842	1516
655.695513558081	1523.59997558594
656.435160277301	1521.59997558594
657.174715246465	1518.80004882813
657.914178473527	1523.40002441406
658.653549966449	1536.59997558594
659.392829733176	1539.59997558594
660.132017781678	1542.59997558594
660.871114119901	1541.80004882813
661.610118755803	1557
662.349031697343	1550.80004882813
663.087852952468	1554.80004882813
663.826582529139	1574
664.565220435305	1570.59997558594
665.30376667892	1573.40002441406
666.04222126794	1574.40002441406
666.780584210316	1576.19995117188
667.518855514	1577.59997558594
668.25703518694	1575.80004882813
668.995123237096	1563.59997558594
669.733119672413	1557.59997558594
670.471024500842	1565
671.208837730333	1563
671.946559368839	1547.40002441406
672.684189424308	1543.80004882813
673.421727904689	1541.40002441406
674.159174817929	1546.80004882813
674.896530171977	1539.19995117188
675.633793974786	1551.19995117188
676.370966234295	1538
677.108046958461	1530.59997558594
677.845036155219	1552.59997558594
678.581933832528	1555.40002441406
679.318739998323	1564
680.055454660558	1559.59997558594
680.792077827172	1556.40002441406
681.528609506116	1580
682.265049705331	1568.19995117188
683.001398432759	1570
683.737655696349	1559
684.47382150404	1566.59997558594
685.20989586378	1542.40002441406
685.945878783503	1525.19995117188
686.68177027116	1533.19995117188
687.417570334688	1534.80004882813
688.153278982032	1529.19995117188
688.888896221129	1536.80004882813
689.624422059921	1553.19995117188
690.359856506349	1553.19995117188
691.095199568354	1546.40002441406
691.830451253874	1544.59997558594
692.565611570844	1543
693.300680527212	1549.19995117188
694.03565813091	1536.80004882813
694.770544389877	1553.19995117188
695.505339312053	1564.80004882813
696.240042905372	1575
696.974655177772	1579.40002441406
697.70917613719	1600.80004882813
698.443605791561	1612.40002441406
699.177944148826	1595.80004882813
699.912191216909	1614
700.646347003755	1612.19995117188
701.380411517295	1607.59997558594
702.114384765465	1583
702.848266756195	1587.40002441406
703.582057497421	1590.40002441406
704.315756997074	1599.19995117188
705.049365263089	1595.19995117188
705.782882303399	1593.19995117188
706.516308125936	1589
707.249642738626	1575.19995117188
707.982886149403	1590.40002441406
708.716038366204	1593.40002441406
709.449099396949	1579.80004882813
710.182069249577	1584.59997558594
710.914947932009	1571.40002441406
711.647735452181	1573.40002441406
712.380431818022	1567
713.113037037454	1567.80004882813
713.845551118411	1584
714.577974068818	1558.59997558594
715.310305896604	1564.59997558594
716.042546609694	1566.19995117188
716.774696216013	1570.40002441406
717.506754723493	1563.40002441406
718.238722140053	1561.40002441406
718.970598473624	1576.80004882813
719.702383732127	1574.59997558594
720.43407792349	1581.59997558594
721.165681055634	1591.59997558594
721.897193136486	1575.59997558594
722.628614173966	1563.59997558594
723.359944175997	1563.40002441406
724.091183150505	1551.19995117188
724.822331105412	1571.19995117188
725.553388048638	1573.19995117188
726.284353988106	1577.40002441406
727.015228931734	1573.40002441406
727.746012887449	1569
728.476705863162	1558.59997558594
729.207307866803	1552.40002441406
729.937818906289	1543.19995117188
730.668238989535	1552.59997558594
731.398568124459	1544
732.128806318986	1559.59997558594
732.858953581034	1563.40002441406
733.589009918514	1576.59997558594
734.318975339348	1584.59997558594
735.048849851452	1600
735.778633462744	1606.59997558594
736.508326181137	1595
737.237928014549	1593.59997558594
737.967438970897	1607.40002441406
738.696859058095	1590.80004882813
739.426188284054	1603.80004882813
740.155426656692	1588
740.884574183922	1579.80004882813
741.613630873659	1582.19995117188
742.342596733815	1569.19995117188
743.071471772302	1572
743.800255997034	1565
744.528949415921	1566.59997558594
745.257552036877	1551.19995117188
745.986063867811	1559.59997558594
746.714484916638	1545.59997558594
747.442815191261	1557.59997558594
748.171054699597	1568
748.899203449554	1557.80004882813
749.627261449039	1569.19995117188
750.355228705966	1558
751.083105228239	1575.59997558594
751.810891023765	1576.19995117188
752.538586100459	1579.80004882813
753.266190466218	1580.19995117188
753.99370412896	1599.80004882813
754.721127096582	1594.19995117188
755.448459377	1584
756.175700978114	1569.59997558594
756.902851907828	1564.80004882813
757.629912174055	1555.59997558594
758.356881784688	1560.59997558594
759.083760747639	1560.59997558594
759.810549070817	1557.19995117188
760.537246762113	1556.19995117188
761.263853829442	1559.80004882813
761.990370280698	1558
762.716796123791	1577
763.443131366618	1590
764.169376017082	1584.59997558594
764.895530083085	1589.80004882813
765.621593572527	1607.80004882813
766.347566493312	1602.19995117188
767.073448853336	1615.80004882813
767.799240660502	1629
768.524941922707	1637.19995117188
769.250552647854	1660
769.976072843836	1662.40002441406
770.701502518551	1670.19995117188
771.426841679905	1666
772.152090335793	1664.40002441406
772.877248494107	1671
773.602316162747	1667.19995117188
774.327293349609	1674.80004882813
775.052180062592	1680
775.776976309589	1676.59997558594
776.501682098496	1668.59997558594
777.226297437206	1652
777.950822333616	1653.80004882813
778.675256795621	1641.59997558594
779.399600831111	1618.80004882813
780.123854447983	1609.59997558594
780.84801765413	1606
781.572090457441	1584.59997558594
782.296072865811	1587.19995117188
783.019964887131	1577
783.743766529297	1582.59997558594
784.467477800194	1587.80004882813
785.191098707719	1596.59997558594
785.914629259756	1591.40002441406
786.638069464194	1596.59997558594
787.361419328932	1578.59997558594
788.084678861852	1573.40002441406
788.807848070845	1573.80004882813
789.530926963798	1577.19995117188
790.253915548602	1586.80004882813
790.976813833144	1586.40002441406
791.699621825307	1577.59997558594
792.422339532986	1571.19995117188
793.144966964061	1575.59997558594
793.86750412642	1567.40002441406
794.589951027946	1571.80004882813
795.312307676536	1581
796.03457408006	1585.59997558594
796.756750246417	1580.80004882813
797.478836183477	1598.59997558594
798.200831899137	1596.19995117188
798.92273740127	1568.59997558594
799.644552697769	1578.19995117188
800.36627779651	1570.59997558594
801.087912705374	1573
801.809457432251	1576.19995117188
802.530911985017	1599.40002441406
803.252276371558	1582.80004882813
803.973550599748	1584
804.694734677472	1556.19995117188
805.415828612611	1562.19995117188
806.136832413045	1561.19995117188
806.857746086646	1568
807.578569641305	1572.59997558594
808.299303084892	1573.40002441406
809.019946425289	1585
809.740499670372	1572.59997558594
810.460962828022	1579.19995117188
811.181335906114	1570
811.901618912524	1576.19995117188
812.621811855131	1581
813.341914741809	1575.40002441406
814.061927580433	1559.59997558594
814.781850378881	1567.59997558594
815.501683145025	1568.59997558594
816.221425886743	1546.40002441406
816.941078611903	1550.19995117188
817.660641328387	1569.40002441406
818.380114044065	1563.40002441406
819.099496766808	1568.19995117188
819.818789504492	1579
820.53799226499	1582.40002441406
821.257105056168	1570.59997558594
821.976127885904	1567
822.695060762064	1565.59997558594
823.413903692525	1576.19995117188
824.132656685151	1563.40002441406
824.851319747817	1563.80004882813
825.569892888388	1573.19995117188
826.288376114739	1571.59997558594
827.006769434737	1589.59997558594
827.725072856249	1585.59997558594
828.443286387142	1584.19995117188
829.161410035285	1569.19995117188
829.87944380855	1557
830.597387714798	1550.40002441406
831.315241761898	1559.59997558594
832.033005957715	1566.40002441406
832.750680310119	1558
833.468264826969	1570.19995117188
834.18575951614	1550.40002441406
834.903164385486	1562.59997558594
835.620479442878	1562.80004882813
836.337704696181	1561.80004882813
837.054840153255	1550.80004882813
837.771885821962	1560.40002441406
838.488841710172	1542.19995117188
839.20570782574	1531.80004882813
839.922484176531	1526
840.639170770409	1536
841.355767615231	1532.19995117188
842.072274718864	1527.80004882813
842.788692089164	1531.40002441406
843.505019733993	1540.59997558594
844.221257661209	1545.19995117188
844.937405878676	1541
845.65346439425	1546.59997558594
846.369433215789	1550.59997558594
847.085312351156	1567.19995117188
847.801101808205	1569.80004882813
848.516801594793	1573.59997558594
849.232411718781	1553.80004882813
849.947932188021	1548
850.663363010376	1541.40002441406
851.378704193698	1544.40002441406
852.093955745842	1550.40002441406
852.809117674669	1542.19995117188
853.524189988028	1561.59997558594
854.239172693778	1560.40002441406
854.954065799768	1543.19995117188
855.668869313857	1541.80004882813
856.383583243899	1530.80004882813
857.098207597743	1528.59997558594
857.812742383246	1512.19995117188
858.527187608255	1521
859.241543280628	1530.59997558594
859.955809408218	1524
860.669985998868	1536
861.384073060437	1544.59997558594
862.098070600772	1538.80004882813
862.811978627724	1529.40002441406
863.52579714914	1523.80004882813
864.239526172873	1525.40002441406
864.953165706776	1543
865.666715758687	1535.40002441406
866.380176336464	1539.19995117188
867.093547447951	1536.80004882813
867.806829100996	1548
868.520021303444	1553.59997558594
869.233124063149	1529.59997558594
869.94613738795	1527.40002441406
870.659061285693	1549.59997558594
871.37189576423	1536
872.084640831403	1537.80004882813
872.797296495057	1538.19995117188
873.509862763039	1545.80004882813
874.22233964319	1560
874.934727143353	1548
875.647025271374	1551
876.359234035097	1562.59997558594
877.071353442361	1564.59997558594
877.783383501015	1585
878.495324218895	1586
879.207175603844	1586.40002441406
879.918937663705	1577.80004882813
880.630610406318	1565.19995117188
881.342193839524	1555
882.053687971161	1530.59997558594
882.765092809069	1530.19995117188
883.476408361091	1531.59997558594
884.187634635066	1523.59997558594
884.898771638828	1524.19995117188
885.609819380221	1537.19995117188
886.320777867076	1528.40002441406
887.031647107236	1519.80004882813
887.742427108536	1538.19995117188
888.453117878816	1536.40002441406
889.16371942591	1535.19995117188
889.874231757652	1528.40002441406
890.584654881883	1528.59997558594
891.294988806434	1528.40002441406
892.005233539141	1514.40002441406
892.715389087837	1511.59997558594
893.42545546036	1521.40002441406
894.135432664543	1523.19995117188
894.845320708216	1520.59997558594
895.555119599216	1525.59997558594
896.264829345375	1524.59997558594
896.974449954526	1531.80004882813
897.683981434496	1525
898.393423793125	1525.59997558594
899.102777038235	1518.40002441406
899.812041177664	1516.80004882813
900.521216219239	1514.19995117188
901.230302170793	1531
901.939299040155	1538.40002441406
902.64820683515	1531.80004882813
903.357025563612	1535.40002441406
904.065755233368	1535.40002441406
904.774395852247	1541.80004882813
905.482947428076	1545.40002441406
906.191409968682	1542.40002441406
906.899783481897	1531
907.608067975538	1517.80004882813
908.316263457443	1521.59997558594
909.02436993543	1507.19995117188
909.732387417327	1516
910.440315910959	1516.40002441406
911.148155424154	1525.80004882813
911.855905964731	1520.80004882813
912.563567540521	1533
913.271140159339	1528.80004882813
913.978623829017	1549
914.686018557374	1551.59997558594
915.393324352237	1549.19995117188
916.100541221421	1544.40002441406
916.807669172752	1554.80004882813
917.514708214054	1532.80004882813
918.221658353142	1534.59997558594
918.928519597843	1525.80004882813
919.635291955976	1540.19995117188
920.341975435358	1540.19995117188
921.048570043813	1543
921.75507578916	1525
922.461492679212	1531.59997558594
923.167820721795	1532.40002441406
923.874059924726	1519.40002441406
924.58021029582	1512
925.286271842893	1536.19995117188
925.992244573769	1526.80004882813
926.698128496262	1523.40002441406
927.403923618184	1521.59997558594
928.109629947355	1513.19995117188
928.815247491593	1520.40002441406
929.520776258708	1524
930.226216256519	1533
930.931567492841	1543.80004882813
931.636829975482	1551.19995117188
932.342003712263	1554.19995117188
933.047088710995	1540.40002441406
933.752084979491	1525.59997558594
934.456992525564	1515
935.161811357024	1522.19995117188
935.866541481688	1514.59997558594
936.571182907363	1511
937.275735641861	1515.40002441406
937.980199692995	1516.40002441406
938.684575068572	1518.40002441406
939.388861776411	1524.59997558594
940.093059824311	1524
940.797169220085	1518
941.501189971544	1513.19995117188
942.205122086495	1514.59997558594
942.908965572751	1510.80004882813
943.612720438111	1512
944.316386690391	1528.19995117188
945.019964337391	1528
945.723453386924	1526.19995117188
946.426853846795	1524.19995117188
947.130165724808	1516.59997558594
947.83338902877	1517.40002441406
948.536523766488	1508.19995117188
949.239569945764	1512
949.942527574402	1519
950.64539666021	1513.40002441406
951.348177210993	1526
952.050869234548	1511.19995117188
952.753472738683	1507.19995117188
953.455987731199	1494.59997558594
954.158414219898	1491.19995117188
954.860752212587	1508
955.563001717061	1508.80004882813
956.265162741124	1507.19995117188
956.967235292576	1500.59997558594
957.669219379224	1489.40002441406
958.371115008857	1486
959.072922189283	1489.19995117188
959.774640928301	1480.59997558594
960.476271233708	1470
961.177813113301	1469.19995117188
961.879266574882	1481
962.580631626248	1482.19995117188
963.281908275194	1497
963.98309652952	1489.19995117188
964.684196397022	1491.59997558594
965.3852078855	1508
966.086131002745	1489.59997558594
966.786965756555	1493.80004882813
967.487712154726	1499.40002441406
968.188370205055	1481.19995117188
968.888939915331	1477.80004882813
969.589421293352	1465.80004882813
970.289814346909	1470.40002441406
970.990119083801	1463.59997558594
971.690335511819	1472.19995117188
972.39046363875	1473.80004882813
973.090503472398	1473.80004882813
973.790455020545	1466.19995117188
974.490318290987	1471.40002441406
975.190093291516	1468.40002441406
975.889780029923	1480.80004882813
976.589378513998	1491.40002441406
977.288888751527	1500.19995117188
977.988310750308	1492.19995117188
978.687644518122	1497.80004882813
979.386890062767	1513.59997558594
980.086047392025	1498.80004882813
980.785116513689	1504.59997558594
981.484097435542	1499
982.182990165377	1505.19995117188
982.88179471098	1473.40002441406
983.580511080137	1474
984.279139280632	1478.40002441406
984.977679320253	1461
985.67613120679	1473.59997558594
986.374494948027	1485.59997558594
987.072770551745	1485.59997558594
987.770958025731	1494.59997558594
988.469057377772	1499.59997558594
989.167068615649	1478
989.864991747145	1482.40002441406
990.562826780047	1484.80004882813
991.260573722134	1481.80004882813
991.958232581195	1487.80004882813
992.655803365003	1477
993.353286081346	1483.40002441406
994.050680738006	1483.19995117188
994.74798734276	1482.40002441406
995.44520590339	1491
996.142336427681	1491.19995117188
996.839378923407	1504.80004882813
997.536333398348	1511.59997558594
998.233199860289	1510.59997558594
998.929978317004	1515.80004882813
999.626668776274	1510.80004882813
1000.32327124587	1502.40002441406
1001.01978573359	1495.80004882813
1001.71621224718	1507
1002.41255079445	1499.40002441406
1003.10880138315	1486
1003.80496402107	1491.59997558594
1004.50103871599	1479.80004882813
1005.19702547567	1469.40002441406
1005.8929243079	1475
1006.58873522045	1471.59997558594
1007.2844582211	1472.80004882813
1007.98009331761	1478.40002441406
1008.67564051776	1486.80004882813
1009.37109982933	1493.80004882813
1010.06647126009	1485.19995117188
1010.7617548178	1491.80004882813
1011.45695051026	1489.59997558594
1012.15205834522	1497.19995117188
1012.84707833045	1490.80004882813
1013.54201047373	1493.19995117188
1014.23685478284	1492.40002441406
1014.93161126553	1502.80004882813
1015.62627992959	1507.40002441406
1016.32086078277	1507
1017.01535383285	1504.40002441406
1017.70975908761	1504.59997558594
1018.40407655479	1507.59997558594
1019.09830624219	1502.80004882813
1019.79244815755	1495.80004882813
1020.48650230866	1486.80004882813
1021.18046870328	1474.80004882813
1021.87434734917	1474.59997558594
1022.56813825411	1483.59997558594
1023.26184142584	1486.59997558594
1023.95545687216	1485.40002441406
1024.64898460082	1490.59997558594
1025.34242461957	1498
1026.0357769362	1473.40002441406
1026.72904155846	1483.40002441406
1027.42221849412	1473.19995117188
1028.11530775094	1462
1028.80830933668	1457.80004882813
1029.50122325911	1467.19995117188
1030.19404952599	1475.80004882813
1030.88678814508	1473.19995117188
1031.57943912414	1496
1032.27200247093	1480.80004882813
1032.96447819323	1482.19995117188
1033.65686629878	1485.40002441406
1034.34916679534	1468.59997558594
1035.04137969068	1466.80004882813
1035.73350499256	1467
1036.42554270874	1465.40002441406
1037.11749284697	1463
1037.80935541501	1459.40002441406
1038.50113042062	1463.40002441406
1039.19281787156	1454.40002441406
1039.88441777559	1473.40002441406
1040.57593014046	1469.19995117188
1041.26735497393	1478.40002441406
1041.95869228376	1477
1042.6499420777	1478
1043.3411043635	1473.80004882813
1044.03217914893	1488.19995117188
1044.72316644174	1486.40002441406
1045.41406624968	1470.80004882813
1046.1048785805	1469.40002441406
1046.79560344197	1467
1047.48624084182	1459.40002441406
1048.17679078783	1458.40002441406
1048.86725328774	1461.59997558594
1049.55762834929	1473.80004882813
1050.24791598025	1477.59997558594
1050.93811618837	1464
1051.62822898139	1462.59997558594
1052.31825436707	1442.80004882813
1053.00819235315	1456.40002441406
1053.6980429474	1449.59997558594
1054.38780615755	1465.19995117188
1055.07748199136	1447.80004882813
1055.76707045658	1453.59997558594
1056.45657156095	1452.80004882813
1057.14598531222	1465
1057.83531171814	1461.80004882813
1058.52455078646	1455.19995117188
1059.21370252494	1442.40002441406
1059.90276694129	1441.80004882813
1060.5917440433	1461.19995117188
1061.28063383868	1448.40002441406
1061.9694363352	1453
1062.65815154059	1446.40002441406
1063.34677946261	1449
1064.03532010899	1443.80004882813
1064.72377348748	1438.19995117188
1065.41213960583	1435.40002441406
1066.10041847177	1437.59997558594
1066.78861009306	1443.80004882813
1067.47671447743	1422
1068.16473163263	1429.19995117188
1068.85266156639	1435.59997558594
1069.54050428647	1441.40002441406
1070.2282598006	1427.40002441406
1070.91592811652	1442.59997558594
1071.60350924198	1455.19995117188
1072.29100318471	1447.80004882813
1072.97840995245	1462.19995117188
1073.66572955295	1471.19995117188
1074.35296199394	1461.59997558594
1075.04010728316	1454.59997558594
1075.72716542836	1434
1076.41413643726	1446
1077.10102031761	1452.19995117188
1077.78781707715	1455.40002441406
1078.4745267236	1445
1079.16114926471	1452.40002441406
1079.84768470822	1447.80004882813
1080.53413306185	1454
1081.22049433336	1451.40002441406
1081.90676853046	1460.19995117188
1082.5929556609	1451.59997558594
1083.27905573241	1464
1083.96506875272	1470.80004882813
1084.65099472957	1461
1085.3368336707	1458.80004882813
1086.02258558383	1470.19995117188
1086.70825047669	1470.40002441406
1087.39382835703	1446.80004882813
1088.07931923257	1435.80004882813
1088.76472311104	1436.40002441406
1089.45004000018	1434.80004882813
1090.13526990771	1424.19995117188
1090.82041284137	1429.59997558594
1091.50546880889	1435.59997558594
1092.19043781799	1418.59997558594
1092.87531987642	1425.80004882813
1093.56011499188	1436.19995117188
1094.24482317212	1436
1094.92944442486	1429.40002441406
1095.61397875783	1427.40002441406
1096.29842617876	1425.40002441406
1096.98278669537	1433
1097.6670603154	1429.40002441406
1098.35124704656	1432.80004882813
1099.03534689659	1423.40002441406
1099.71935987322	1422.19995117188
1100.40328598416	1415
1101.08712523713	1420.80004882813
1101.77087763988	1437.59997558594
1102.45454320012	1436.40002441406
1103.13812192557	1438.40002441406
1103.82161382396	1445.19995117188
1104.50501890301	1441
1105.18833717045	1435.40002441406
1105.87156863399	1437.40002441406
1106.55471330137	1436.80004882813
1107.2377711803	1434.59997558594
1107.9207422785	1442.19995117188
1108.60362660369	1427.59997558594
1109.2864241636	1424.59997558594
1109.96913496594	1428.80004882813
1110.65175901844	1428.19995117188
1111.33429632882	1417.59997558594
1112.01674690479	1423.19995117188
1112.69911075408	1425.59997558594
1113.38138788439	1427
1114.06357830346	1426
1114.745682019	1426.19995117188
1115.42769903872	1451
1116.10962937035	1430.80004882813
1116.7914730216	1434.59997558594
1117.47323000018	1441.80004882813
1118.15490031382	1441
1118.83648397022	1449.40002441406
1119.51798097712	1450.59997558594
1120.1993913422	1435.40002441406
1120.88071507321	1446.19995117188
1121.56195217784	1435.80004882813
1122.24310266381	1451.59997558594
1122.92416653884	1453.40002441406
1123.60514381064	1452.80004882813
1124.28603448692	1431.59997558594
1124.9668385754	1438.40002441406
1125.64755608378	1424
1126.32818701978	1452.19995117188
1127.00873139111	1440.80004882813
1127.68918920548	1458.59997558594
1128.3695604706	1441.19995117188
1129.04984519419	1430.19995117188
1129.73004338394	1433.59997558594
1130.41015504758	1442.40002441406
1131.09018019281	1451.19995117188
1131.77011882734	1438.80004882813
1132.44997095888	1441.80004882813
1133.12973659514	1447.19995117188
1133.80941574381	1441
1134.48900841263	1434.80004882813
1135.16851460927	1421
1135.84793434147	1416.59997558594
1136.52726761692	1426.40002441406
1137.20651444333	1436.80004882813
1137.8856748284	1437.19995117188
1138.56474877984	1434
1139.24373630536	1418.40002441406
1139.92263741265	1413.19995117188
1140.60145210943	1412.59997558594
1141.28018040339	1418.40002441406
1141.95882230225	1420.59997558594
1142.6373778137	1397.40002441406
1143.31584694545	1401.80004882813
1143.99422970519	1395.59997558594
1144.67252610064	1399.40002441406
1145.35073613949	1397
1146.02885982944	1394.59997558594
1146.7068971782	1404.80004882813
1147.38484819347	1409
1148.06271288294	1403.59997558594
1148.74049125432	1405.59997558594
1149.41818331531	1424
1150.0957890736	1418
1150.77330853689	1422
1151.45074171289	1422.59997558594
1152.12808860928	1415.59997558594
1152.80534923378	1426.19995117188
1153.48252359407	1409
1154.15961169786	1411
1154.83661355283	1405
1155.51352916669	1410.19995117188
1156.19035854713	1412.80004882813
1156.86710170185	1424
1157.54375863855	1417.40002441406
1158.22032936491	1420.19995117188
1158.89681388863	1420.19995117188
1159.57321221741	1408.40002441406
1160.24952435894	1420.80004882813
1160.92575032092	1402.40002441406
1161.60189011103	1404.40002441406
1162.27794373697	1404.59997558594
1162.95391120644	1399
1163.62979252712	1392
1164.3055877067	1413.40002441406
1164.98129675288	1401
1165.65691967336	1401.19995117188
1166.33245647581	1378.40002441406
1167.00790716792	1365.80004882813
1167.6832717574	1375.80004882813
1168.35855025193	1379.59997558594
1169.0337426592	1400.19995117188
1169.70884898689	1396.80004882813
1170.3838692427	1393.19995117188
1171.05880343431	1400
1171.73365156941	1406.40002441406
1172.40841365569	1402.59997558594
1173.08308970083	1395.19995117188
1173.75767971253	1384
1174.43218369847	1392.80004882813
1175.10660166633	1392.59997558594
1175.7809336238	1397.19995117188
1176.45517957857	1416
1177.12933953832	1430.59997558594
1177.80341351073	1432.59997558594
1178.47740150349	1429
1179.15130352429	1436.40002441406
1179.8251195808	1451.80004882813
1180.49884968071	1449
1181.1724938317	1462
1181.84605204145	1468.19995117188
1182.51952431766	1465
1183.19291066799	1474.59997558594
1183.86621110013	1468.19995117188
1184.53942562176	1461.19995117188
1185.21255424057	1453.19995117188
1185.88559696422	1434
1186.55855380041	1417.19995117188
1187.2314247568	1423.40002441406
1187.90420984109	1422.40002441406
1188.57690906095	1425
1189.24952242405	1441.19995117188
1189.92204993808	1413.59997558594
1190.59449161071	1434
1191.26684744962	1420.19995117188
1191.93911746249	1418.19995117188
1192.61130165699	1426
1193.28340004081	1423.19995117188
1193.95541262161	1421
1194.62733940707	1425
1195.29918040487	1436.40002441406
1195.97093562269	1441.59997558594
1196.64260506819	1447.19995117188
1197.31418874905	1438.59997558594
1197.98568667295	1421.40002441406
1198.65709884755	1424
1199.32842528053	1414.59997558594
1199.99966597957	1404
1200.67082095234	1399.40002441406
1201.3418902065	1412.40002441406
1202.01287374974	1407.80004882813
1202.68377158971	1419.40002441406
1203.3545837341	1416.19995117188
1204.02531019057	1421
1204.6959509668	1417.19995117188
1205.36650607045	1398.19995117188
1206.03697550919	1383.80004882813
1206.70735929069	1381.80004882813
1207.37765742263	1389.59997558594
1208.04786991266	1401.59997558594
1208.71799676846	1405.40002441406
1209.38803799769	1400.40002441406
1210.05799360803	1404.80004882813
1210.72786360714	1404.19995117188
1211.39764800268	1402
1212.06734680233	1407.40002441406
1212.73696001375	1399.80004882813
1213.4064876446	1398
1214.07592970255	1388.19995117188
1214.74528619526	1375.19995117188
1215.4145571304	1370.80004882813
1216.08374251564	1375.59997558594
1216.75284235863	1373.59997558594
1217.42185666704	1380.19995117188
1218.09078544854	1377.59997558594
1218.75962871078	1384.19995117188
1219.42838646143	1379.59997558594
1220.09705870816	1391
1220.76564545861	1387
1221.43414672046	1395.19995117188
1222.10256250136	1396.80004882813
1222.77089280898	1378.59997558594
1223.43913765098	1374.80004882813
1224.107297035	1363.19995117188
1224.77537096873	1366.80004882813
1225.44335945981	1360.59997558594
1226.1112625159	1368.19995117188
1226.77908014467	1380.59997558594
1227.44681235376	1373.40002441406
1228.11445915085	1389.40002441406
1228.78202054357	1389.19995117188
1229.44949653961	1389.59997558594
1230.11688714659	1389.80004882813
1230.7841923722	1391.19995117188
1231.45141222407	1388
1232.11854670988	1380
1232.78559583726	1391.19995117188
1233.45255961388	1371.80004882813
1234.1194380474	1369.80004882813
1234.78623114546	1382.40002441406
1235.45293891572	1372.80004882813
1236.11956136583	1367
1236.78609850345	1378
1237.45255033623	1387.59997558594
1238.11891687182	1375.40002441406
1238.78519811788	1367.59997558594
1239.45139408205	1376.19995117188
1240.11750477198	1362.19995117188
1240.78353019534	1366.59997558594
1241.44947035976	1377.80004882813
1242.11532527291	1363.40002441406
1242.78109494242	1365.80004882813
1243.44677937595	1366.40002441406
1244.11237858115	1382.59997558594
1244.77789256567	1362.40002441406
1245.44332133715	1352.19995117188
1246.10866490325	1354.19995117188
1246.7739232716	1346
1247.43909644987	1351.59997558594
1248.10418444569	1368.80004882813
1248.76918726671	1364.80004882813
1249.43410492059	1389.19995117188
1250.09893741496	1395.40002441406
1250.76368475747	1389.19995117188
1251.42834695576	1381
1252.09292401749	1383.59997558594
1252.75741595029	1380.59997558594
1253.42182276182	1374.40002441406
1254.08614445971	1368.80004882813
1254.75038105161	1372.40002441406
1255.41453254515	1365
1256.07859894799	1362
1256.74258026777	1358.19995117188
1257.40647651213	1372.80004882813
1258.0702876887	1360.59997558594
1258.73401380514	1372
1259.39765486908	1363.59997558594
1260.06121088817	1371.59997558594
1260.72468187004	1364.59997558594
1261.38806782233	1376
1262.05136875269	1373
1262.71458466875	1371.19995117188
1263.37771557815	1366.40002441406
1264.04076148854	1358.19995117188
1264.70372240753	1355.80004882813
1265.3665983428	1368
1266.02938930195	1356
1266.69209529263	1346
1267.35471632249	1361
1268.01725239914	1356.59997558594
1268.67970353024	1350.59997558594
1269.34206972342	1355.19995117188
1270.00435098631	1359
1270.66654732655	1362.40002441406
1271.32865875177	1373.80004882813
1271.9906852696	1372.19995117188
1272.65262688768	1372
1273.31448361365	1392.19995117188
1273.97625545514	1375.40002441406
1274.63794241978	1368.80004882813
1275.2995445152	1363.19995117188
1275.96106174903	1382.59997558594
1276.62249412892	1371.40002441406
1277.28384166248	1363.59997558594
1277.94510435735	1369.19995117188
1278.60628222116	1362.80004882813
1279.26737526155	1371.80004882813
1279.92838348613	1378.59997558594
1280.58930690255	1370.80004882813
1281.25014551842	1357
1281.91089934139	1358.19995117188
1282.57156837907	1363.40002441406
1283.2321526391	1353.19995117188
1283.89265212911	1366.40002441406
1284.55306685671	1367.19995117188
1285.21339682955	1359.80004882813
1285.87364205525	1370.80004882813
1286.53380254142	1372.80004882813
1287.19387829571	1377.59997558594
1287.85386932573	1354.80004882813
1288.51377563911	1353.19995117188
1289.17359724348	1355.19995117188
1289.83333414646	1347
1290.49298635567	1347
1291.15255387874	1360.59997558594
1291.8120367233	1368.80004882813
1292.47143489696	1368.59997558594
1293.13074840736	1384
1293.7899772621	1366.59997558594
1294.44912146882	1364.80004882813
1295.10818103513	1354.40002441406
1295.76715596866	1343.80004882813
1296.42604627704	1348.19995117188
1297.08485196787	1348
1297.74357304878	1354.59997558594
1298.4022095274	1358.80004882813
1299.06076141134	1353.80004882813
1299.71922870821	1365
1300.37761142565	1379.19995117188
1301.03590957126	1381.80004882813
1301.69412315268	1390.80004882813
1302.3522521775	1389.59997558594
1303.01029665336	1382.80004882813
1303.66825658787	1376.40002441406
1304.32613198865	1379.19995117188
1304.98392286332	1368.40002441406
1305.64162921948	1359.40002441406
1306.29925106476	1347.80004882813
1306.95678840677	1350
1307.61424125312	1351.80004882813
1308.27160961145	1354
1308.92889348934	1357.19995117188
1309.58609289443	1354
1310.24320783432	1368.80004882813
1310.90023831664	1367
1311.55718434898	1368
1312.21404593897	1372.59997558594
1312.87082309421	1366
1313.52751582233	1368.59997558594
1314.18412413092	1373.80004882813
1314.84064802761	1372.59997558594
1315.49708752	1376.19995117188
1316.1534426157	1364.80004882813
1316.80971332233	1366.80004882813
1317.46589964749	1363.80004882813
1318.1220015988	1360.19995117188
1318.77801918386	1360.19995117188
1319.43395241028	1355.19995117188
1320.08980128567	1359.80004882813
1320.74556581764	1364
1321.4012460138	1356.80004882813
1322.05684188176	1362.80004882813
1322.71235342911	1359.19995117188
1323.36778066347	1359.59997558594
1324.02312359245	1350.40002441406
1324.67838222365	1350.80004882813
1325.33355656468	1342
1325.98864662314	1357.40002441406
1326.64365240663	1350.80004882813
1327.29857392277	1352.80004882813
1327.95341117915	1352.40002441406
1328.60816418339	1350.19995117188
1329.26283294308	1344.59997558594
1329.91741746582	1341.40002441406
1330.57191775923	1344.80004882813
1331.2263338309	1341.40002441406
1331.88066568843	1337.59997558594
1332.53491333943	1342.80004882813
1333.1890767915	1340
1333.84315605224	1332.19995117188
1334.49715112925	1335.80004882813
1335.15106203013	1340.40002441406
1335.80488876249	1340.59997558594
1336.45863133391	1351.19995117188
1337.112289752	1351.59997558594
1337.76586402437	1365.80004882813
1338.4193541586	1368.19995117188
1339.0727601623	1360.19995117188
1339.72608204306	1361.19995117188
1340.37931980849	1356.80004882813
1341.03247346617	1345
1341.68554302372	1346
1342.33852848871	1373.80004882813
1342.99142986876	1384.19995117188
1343.64424717145	1373.59997558594
1344.29698040438	1370.80004882813
1344.94962957515	1351.59997558594
1345.60219469135	1365.80004882813
1346.25467576058	1368.80004882813
1346.90707279042	1365.40002441406
1347.55938578848	1370.59997558594
1348.21161476235	1356
1348.86375971962	1356
1349.51582066787	1357.19995117188
1350.16779761472	1357.19995117188
1350.81969056774	1359
1351.47149953453	1364.40002441406
1352.12322452269	1366.59997558594
1352.77486553979	1374.40002441406
1353.42642259344	1388.40002441406
1354.07789569122	1394.80004882813
1354.72928484072	1408.59997558594
1355.38059004953	1418.59997558594
1356.03181132525	1426.19995117188
1356.68294867545	1412.40002441406
1357.33400210773	1410.80004882813
1357.98497162968	1415.19995117188
1358.63585724889	1398.80004882813
1359.28665897294	1407.59997558594
1359.93737680942	1399.40002441406
1360.58801076591	1422
1361.23856085001	1426.59997558594
1361.88902706929	1434.40002441406
1362.53940943135	1436.40002441406
1363.18970794377	1445.80004882813
1363.83992261413	1435.19995117188
1364.49005345003	1438
1365.14010045904	1437.40002441406
1365.79006364874	1443.19995117188
1366.43994302673	1439.40002441406
1367.08973860058	1410
1367.73945037788	1398
1368.38907836621	1410.19995117188
1369.03862257315	1396.19995117188
1369.68808300629	1385
1370.3374596732	1403.19995117188
1370.98675258148	1384
1371.63596173868	1375
1372.28508715241	1379
1372.93412883024	1368
1373.58308677974	1349.80004882813
1374.2319610085	1353
1374.8807515241	1348.19995117188
1375.52945833412	1362
1376.17808144612	1348
1376.82662086771	1337
1377.47507660644	1343.40002441406
1378.12344866989	1335.40002441406
1378.77173706565	1323.59997558594
1379.41994180129	1328.80004882813
1380.06806288439	1342.59997558594
1380.71610032252	1342.40002441406
1381.36405412326	1342.40002441406
1382.01192429419	1320.19995117188
1382.65971084287	1339.40002441406
1383.30741377688	1338
1383.95503310381	1357.40002441406
1384.60256883121	1357.80004882813
1385.25002096667	1361.80004882813
1385.89738951775	1364
1386.54467449204	1353.19995117188
1387.19187589709	1348.59997558594
1387.8389937405	1349.19995117188
1388.48602802982	1332.40002441406
1389.13297877262	1341.40002441406
1389.77984597649	1340.80004882813
1390.42662964899	1336.40002441406
1391.07332979768	1331.59997558594
1391.71994643015	1321.59997558594
1392.36647955395	1318.59997558594
1393.01292917667	1318.19995117188
1393.65929530586	1322
1394.3055779491	1322.19995117188
1394.95177711395	1330.59997558594
1395.59789280799	1318
1396.24392503877	1321.40002441406
1396.88987381387	1327.19995117188
1397.53573914086	1314.80004882813
1398.1815210273	1296
1398.82721948075	1304
1399.47283450878	1306.59997558594
1400.11836611897	1305.59997558594
1400.76381431886	1309
1401.40917911603	1319.59997558594
1402.05446051805	1318.59997558594
1402.69965853247	1324.40002441406
1403.34477316686	1325
1403.98980442878	1321.80004882813
1404.6347523258	1321.19995117188
1405.27961686548	1318.19995117188
1405.92439805538	1311.40002441406
1406.56909590306	1297.59997558594
1407.21371041608	1298.40002441406
1407.85824160202	1292.19995117188
1408.50268946841	1292
1409.14705402284	1293.59997558594
1409.79133527285	1297
1410.43553322601	1289
1411.07964788987	1286.80004882813
1411.723679272	1285.19995117188
1412.36762737996	1290
1413.01149222129	1287.59997558594
1413.65527380357	1294.40002441406
1414.29897213435	1289.40002441406
1414.94258722118	1292.19995117188
1415.58611907163	1285.59997558594
1416.22956769325	1282.19995117188
1416.87293309359	1288.59997558594
1417.51621528021	1284.80004882813
1418.15941426067	1292.40002441406
1418.80253004253	1290.59997558594
1419.44556263333	1300
1420.08851204063	1293.19995117188
1420.731378272	1287.80004882813
1421.37416133497	1282.19995117188
1422.0168612371	1285.40002441406
1422.65947798596	1298.59997558594
1423.30201158908	1294
1423.94446205403	1296
1424.58682938835	1301.19995117188
1425.2291135996	1304.80004882813
1425.87131469532	1313.19995117188
1426.51343268308	1306.40002441406
1427.15546757042	1300.80004882813
1427.79741936488	1299
1428.43928807403	1304.19995117188
1429.0810737054	1301
1429.72277626656	1304.40002441406
1430.36439576504	1312.19995117188
1431.00593220841	1301.80004882813
1431.64738560419	1304.59997558594
1432.28875595995	1300.80004882813
1432.93004328324	1292.80004882813
1433.57124758159	1292.59997558594
1434.21236886255	1312.59997558594
1434.85340713368	1315.40002441406
1435.49436240252	1308.19995117188
1436.13523467661	1310
1436.77602396349	1306.80004882813
1437.41673027073	1313.59997558594
1438.05735360585	1300
1438.69789397641	1294.80004882813
1439.33835138994	1298
1439.978725854	1306.40002441406
1440.61901737612	1307.80004882813
1441.25922596385	1306.59997558594
1441.89935162473	1300.80004882813
1442.53939436631	1286.59997558594
1443.17935419612	1288.80004882813
1443.81923112171	1292.40002441406
1444.45902515061	1297.19995117188
1445.09873629038	1295.59997558594
1445.73836454854	1279.80004882813
1446.37790993265	1291.19995117188
1447.01737245024	1292.40002441406
1447.65675210885	1295.40002441406
1448.29604891602	1298.40002441406
1448.93526287928	1301
1449.57439400618	1291.19995117188
1450.21344230426	1281.19995117188
1450.85240778105	1285.19995117188
1451.49129044409	1298.59997558594
1452.13009030092	1310.80004882813
1452.76880735907	1309.59997558594
1453.40744162608	1321.59997558594
1454.04599310949	1303.40002441406
1454.68446181683	1314.40002441406
1455.32284775564	1306.40002441406
1455.96115093345	1307.19995117188
1456.5993713578	1305.80004882813
1457.23750903623	1304
1457.87556397626	1296.59997558594
1458.51353618543	1289.40002441406
1459.15142567127	1289.19995117188
1459.78923244132	1290.80004882813
1460.42695650311	1281.80004882813
1461.06459786417	1289.19995117188
1461.70215653203	1294.19995117188
1462.33963251423	1291.19995117188
1462.97702581829	1290.40002441406
1463.61433645175	1289
1464.25156442214	1293
1464.88870973699	1280.19995117188
1465.52577240382	1282.40002441406
1466.16275243017	1289.19995117188
1466.79964982356	1286.40002441406
1467.43646459154	1285.80004882813
1468.07319674161	1300
1468.70984628132	1302.40002441406
1469.34641321818	1297.80004882813
1469.98289755974	1294.19995117188
1470.6192993135	1293.19995117188
1471.25561848701	1290.80004882813
1471.89185508779	1285.40002441406
1472.52800912336	1279
1473.16408060124	1270.80004882813
1473.80006952897	1280.80004882813
1474.43597591407	1288.40002441406
1475.07179976406	1299.19995117188
1475.70754108647	1297.40002441406
1476.34319988883	1295
1476.97877617865	1308.80004882813
1477.61426996345	1298.80004882813
1478.24968125077	1317.40002441406
1478.88501004812	1295.19995117188
1479.52025636303	1301
1480.15542020302	1303.19995117188
1480.79050157561	1300
1481.42550048832	1290
1482.06041694867	1278.59997558594
1482.69525096418	1285
1483.33000254237	1273.59997558594
1483.96467169077	1277.80004882813
1484.59925841689	1279
1485.23376272825	1277.59997558594
1485.86818463237	1274.40002441406
1486.50252413677	1283.80004882813
1487.13678124896	1286.59997558594
1487.77095597646	1279.19995117188
1488.4050483268	1280.40002441406
1489.03905830749	1275.80004882813
1489.67298592604	1275.59997558594
1490.30683118996	1282.40002441406
1490.9405941068	1282.19995117188
1491.57427468403	1283
1492.2078729292	1283.59997558594
1492.84138884981	1277.19995117188
1493.47482245338	1277.80004882813
1494.10817374742	1278.80004882813
1494.74144273944	1281.59997558594
1495.37462943696	1292.19995117188
1496.0077338475	1290.80004882813
1496.64075597856	1287.19995117188
1497.27369583765	1292
1497.9065534323	1285.80004882813
1498.53932877001	1293.80004882813
1499.17202185829	1290.80004882813
1499.80463270465	1283.19995117188
1500.43716131661	1306.40002441406
1501.06960770167	1299.19995117188
1501.70197186735	1310.19995117188
1502.33425382116	1304
1502.96645357059	1307.40002441406
1503.59857112317	1303.59997558594
1504.23060648641	1299.40002441406
1504.8625596678	1287
1505.49443067486	1296.80004882813
1506.1262195151	1303.19995117188
1506.75792619602	1303.19995117188
1507.38955072513	1297.19995117188
1508.02109310993	1304.59997558594
1508.65255335794	1296.80004882813
1509.28393147666	1305.40002441406
1509.91522747359	1299.40002441406
1510.54644135624	1301.19995117188
1511.17757313212	1289.19995117188
1511.80862280872	1298.19995117188
1512.43959039356	1300.40002441406
1513.07047589413	1304.80004882813
1513.70127931795	1299.59997558594
1514.33200067251	1299
1514.96263996531	1286.80004882813
1515.59319720386	1279.19995117188
1516.22367239567	1283.80004882813
1516.85406554822	1287
1517.48437666903	1288.59997558594
1518.1146057656	1292.40002441406
1518.74475284542	1291.59997558594
1519.374817916	1285.80004882813
1520.00480098483	1272.80004882813
1520.63470205942	1276
1521.26452114726	1271.19995117188
1521.89425825586	1267.59997558594
1522.52391339271	1274.80004882813
1523.15348656531	1262.59997558594
1523.78297778116	1261.59997558594
1524.41238704775	1272.19995117188
1525.04171437259	1259.40002441406
1525.67095976317	1263.80004882813
1526.30012322699	1274.80004882813
1526.92920477154	1271.59997558594
1527.55820440432	1268
1528.18712213283	1265
1528.81595796455	1264.80004882813
1529.44471190699	1262
1530.07338396764	1255.40002441406
1530.70197415399	1261.59997558594
1531.33048247353	1259
1531.95890893377	1269.80004882813
1532.58725354219	1279
1533.21551630629	1283.59997558594
1533.84369723356	1279.19995117188
1534.47179633148	1279.80004882813
1535.09981360757	1283.19995117188
1535.72774906929	1286
1536.35560272415	1289.40002441406
1536.98337457963	1282.40002441406
1537.61106464323	1288.80004882813
1538.23867292243	1280.19995117188
1538.86619942473	1278.59997558594
1539.49364415762	1280.19995117188
1540.12100712857	1274.59997558594
1540.74828834509	1276.59997558594
1541.37548781466	1265.40002441406
1542.00260554478	1261
1542.62964154291	1251.80004882813
1543.25659581655	1259.80004882813
1543.8834683732	1265.19995117188
1544.51025922034	1252.19995117188
1545.13696836544	1260
1545.76359581601	1249.19995117188
1546.39014157952	1260.19995117188
1547.01660566345	1254
1547.64298807531	1247
1548.26928882255	1251.59997558594
1548.89550791269	1252.80004882813
1549.52164535318	1256.59997558594
1550.14770115153	1257.80004882813
1550.77367531521	1254
1551.39956785171	1248
1552.0253787685	1247
1552.65110807307	1234.19995117188
1553.2767557729	1242
1553.90232187548	1235.59997558594
1554.52780638828	1233.80004882813
1555.15320931879	1237.40002441406
1555.77853067447	1235.80004882813
1556.40377046282	1240.80004882813
1557.02892869132	1229.59997558594
1557.65400536744	1222.40002441406
1558.27900049866	1233.59997558594
1558.90391409247	1233.19995117188
1559.52874615633	1226.59997558594
1560.15349669773	1234
1560.77816572414	1239
1561.40275324305	1244.40002441406
1562.02725926192	1246.19995117188
1562.65168378824	1232.40002441406
1563.27602682948	1234.80004882813
1563.90028839311	1240.19995117188
1564.52446848662	1252.80004882813
1565.14856711748	1252.19995117188
1565.77258429316	1242
1566.39652002113	1243.80004882813
1567.02037430887	1252.40002441406
1567.64414716387	1254.40002441406
1568.26783859357	1241.40002441406
1568.89144860547	1257.19995117188
1569.51497720703	1244
1570.13842440573	1239.40002441406
1570.76179020904	1239.40002441406
1571.38507462442	1242.80004882813
1572.00827765936	1242
1572.63139932132	1238.59997558594
1573.25443961777	1239.80004882813
1573.87739855618	1236.19995117188
1574.50027614402	1233.40002441406
1575.12307238877	1239.19995117188
1575.74578729789	1243.59997558594
1576.36842087885	1242.59997558594
1576.99097313912	1235.80004882813
1577.61344408616	1244
1578.23583372745	1232
1578.85814207046	1243.80004882813
1579.48036912264	1248.19995117188
1580.10251489147	1242.59997558594
1580.72457938441	1242.59997558594
1581.34656260893	1238.59997558594
1581.9684645725	1232
1582.59028528258	1233.19995117188
1583.21202474663	1223.40002441406
1583.83368297212	1228.19995117188
1584.45525996652	1232.19995117188
1585.07675573728	1236
1585.69817029188	1216.59997558594
1586.31950363778	1222.19995117188
1586.94075578243	1217.19995117188
1587.5619267333	1205.59997558594
1588.18301649786	1208.19995117188
1588.80402508357	1212
1589.42495249788	1206.19995117188
1590.04579874826	1204.59997558594
1590.66656384217	1220
1591.28724778707	1219.19995117188
1591.90785059042	1214.19995117188
1592.52837225968	1215
1593.14881280232	1216.19995117188
1593.76917222578	1219.19995117188
1594.38945053753	1216.59997558594
1595.00964774502	1226
1595.62976385573	1220.19995117188
1596.24979887709	1223
1596.86975281657	1214.80004882813
1597.48962568164	1211.19995117188
1598.10941747974	1219.19995117188
1598.72912821832	1208
1599.34875790486	1216.80004882813
1599.9683065468	1224
1600.58777415159	1217.19995117188
1601.2071607267	1211.80004882813
1601.82646627958	1216.80004882813
1602.44569081769	1210.80004882813
1603.06483434846	1201.19995117188
1603.68389687937	1201.40002441406
1604.30287841786	1204.19995117188
1604.92177897139	1198.40002441406
1605.54059854741	1197
1606.15933715337	1194.40002441406
1606.77799479672	1200.59997558594
1607.39657148492	1213.19995117188
1608.01506722542	1213
1608.63348202566	1212.19995117188
1609.2518158931	1218.19995117188
1609.87006883519	1215.59997558594
1610.48824085939	1232
1611.10633197312	1222
1611.72434218386	1214.80004882813
1612.34227149904	1202.59997558594
1612.96011992612	1193.40002441406
1613.57788747254	1195.80004882813
1614.19557414575	1189
1614.8131799532	1198
1615.43070490234	1212
1616.04814900061	1199.19995117188
1616.66551225545	1202.40002441406
1617.28279467433	1209.59997558594
1617.89999626467	1219.19995117188
1618.51711703393	1209.40002441406
1619.13415698955	1219.59997558594
1619.75111613898	1215.40002441406
1620.36799448966	1212.80004882813
1620.98479204903	1214
1621.60150882455	1209.40002441406
1622.21814482364	1211.19995117188
1622.83470005376	1221.19995117188
1623.45117452235	1226.40002441406
1624.06756823685	1221.80004882813
1624.6838812047	1223.40002441406
1625.30011343335	1238
1625.91626493022	1232.40002441406
1626.53233570278	1223.80004882813
1627.14832575845	1224.59997558594
1627.76423510468	1220.59997558594
1628.38006374891	1216.19995117188
1628.99581169857	1224
1629.61147896111	1221.59997558594
1630.22706554397	1219.59997558594
1630.84257145457	1231
1631.45799670038	1240.19995117188
1632.07334128881	1230.59997558594
1632.6886052273	1220.59997558594
1633.3037885233	1235.80004882813
1633.91889118425	1218.59997558594
1634.53391321757	1208
1635.1488546307	1211.80004882813
1635.76371543108	1218
1636.37849562616	1208.80004882813
1636.99319522335	1201.40002441406
1637.60781423009	1208.19995117188
1638.22235265383	1192.80004882813
1638.83681050198	1187.40002441406
1639.451187782	1186.40002441406
1640.0654845013	1191.59997558594
1640.67970066734	1180.40002441406
1641.29383628752	1195.59997558594
1641.9078913693	1193.59997558594
1642.5218659201	1193.40002441406
1643.13575994735	1201.40002441406
1643.74957345849	1206
1644.36330646094	1207.40002441406
1644.97695896213	1210.59997558594
1645.59053096951	1218.40002441406
1646.20402249049	1209.80004882813
1646.8174335325	1208.59997558594
1647.43076410298	1210.19995117188
1648.04401420935	1209.19995117188
1648.65718385905	1207.80004882813
1649.2702730595	1206
1649.88328181812	1211.59997558594
1650.49621014236	1207.19995117188
1651.10905803963	1220.19995117188
1651.72182551735	1216
1652.33451258297	1223.59997558594
1652.9471192439	1221.40002441406
1653.55964550757	1210
1654.1720913814	1204.80004882813
1654.78445687283	1202.40002441406
1655.39674198926	1195
1656.00894673814	1194
1656.62107112688	1188.59997558594
1657.23311516291	1182.19995117188
1657.84507885365	1174.80004882813
1658.45696220652	1169.59997558594
1659.06876522895	1175
1659.68048792835	1160.19995117188
1660.29213031217	1154.80004882813
1660.90369238779	1149
1661.51517416267	1145.40002441406
1662.12657564421	1140.40002441406
1662.73789683984	1129.40002441406
1663.34913775697	1130.40002441406
1663.96029840303	1131.19995117188
1664.57137878544	1123
1665.18237891161	1127
1665.79329878897	1124.40002441406
1666.40413842493	1125.19995117188
1667.01489782691	1138.80004882813
1667.62557700233	1135.40002441406
1668.2361759586	1139.40002441406
1668.84669470315	1125.19995117188
1669.4571332434	1132.19995117188
1670.06749158675	1128.40002441406
1670.67776974062	1119.19995117188
1671.28796771243	1125
1671.8980855096	1119.80004882813
1672.50812313954	1122.19995117188
1673.11808060967	1123.80004882813
1673.72795792739	1118.19995117188
1674.33775510013	1128.19995117188
1674.9474721353	1122
1675.55710904031	1127.19995117188
1676.16666582257	1133
1676.7761424895	1134.40002441406
1677.38553904851	1138.80004882813
1677.99485550702	1134.19995117188
1678.60409187243	1136.59997558594
1679.21324815215	1129.59997558594
1679.8223243536	1126.40002441406
1680.43132048419	1124.19995117188
1681.04023655132	1126.40002441406
1681.64907256241	1120.59997558594
1682.25782852487	1121.40002441406
1682.86650444611	1117.40002441406
1683.47510033353	1120.80004882813
1684.08361619455	1119.19995117188
1684.69205203657	1116.59997558594
1685.300407867	1116
1685.90868369325	1114.40002441406
1686.51687952272	1107.40002441406
1687.12499536283	1108.80004882813
1687.73303122098	1112.80004882813
1688.34098710457	1104.40002441406
1688.94886302101	1106.40002441406
1689.55665897772	1106.19995117188
1690.16437498208	1098.40002441406
1690.77201104152	1104.40002441406
1691.37956716342	1098.80004882813
1691.9870433552	1096.80004882813
1692.59443962426	1104.19995117188
1693.20175597801	1091.19995117188
1693.80899242384	1101
1694.41614896916	1095.80004882813
1695.02322562138	1108
1695.63022238789	1118.40002441406
1696.23713927609	1110.80004882813
1696.8439762934	1105.40002441406
1697.4507334472	1103.19995117188
1698.05741074491	1105.59997558594
1698.66400819391	1106.80004882813
1699.27052580161	1102
1699.87696357542	1103.19995117188
1700.48332152272	1107.59997558594
1701.08959965092	1107
1701.69579796742	1111.19995117188
1702.30191647962	1115.59997558594
1702.90795519491	1102.19995117188
1703.51391412069	1098.40002441406
1704.11979326437	1097.80004882813
1704.72559263332	1095.40002441406
1705.33131223496	1092
1705.93695207668	1084.59997558594
1706.54251216588	1086.19995117188
1707.14799250994	1086.19995117188
1707.75339311628	1091
1708.35871399227	1103.40002441406
1708.96395514532	1095.19995117188
1709.56911658282	1096.40002441406
