634.948122577771	1260
635.690341530823	1257.59997558594
636.43246851086	1263
637.174503525845	1275.80004882813
637.916446583745	1255.80004882813
638.658297692538	1252.19995117188
639.400056860179	1263.59997558594
640.141724094637	1264.40002441406
640.883299403885	1274.59997558594
641.62478279588	1263.19995117188
642.366174278594	1266
643.107473859989	1270.40002441406
643.848681548029	1270
644.589797350679	1265.59997558594
645.330821275901	1262.40002441406
646.071753331665	1261.59997558594
646.812593525922	1256.40002441406
647.553341866646	1264
648.293998361798	1244
649.03456301933	1242.59997558594
649.775035847216	1245.40002441406
650.515416853409	1248.19995117188
651.255706045874	1256
651.995903432568	1243.19995117188
652.736009021453	1252
653.476022820486	1256.59997558594
654.215944837629	1260
654.955775080842	1258.40002441406
655.695513558081	1263.59997558594
656.435160277301	1282.19995117188
657.174715246465	1283
657.914178473527	1275
658.653549966449	1281.19995117188
659.392829733176	1287
660.132017781678	1291.59997558594
660.871114119901	1290.59997558594
661.610118755803	1283.19995117188
662.349031697343	1282.40002441406
663.087852952468	1280
663.826582529139	1276.59997558594
664.565220435305	1280
665.30376667892	1270.80004882813
666.04222126794	1265.80004882813
666.780584210316	1266.19995117188
667.518855514	1270
668.25703518694	1271.80004882813
668.995123237096	1264.40002441406
669.733119672413	1264.19995117188
670.471024500842	1261.19995117188
671.208837730333	1267.80004882813
671.946559368839	1282.19995117188
672.684189424308	1280.80004882813
673.421727904689	1280
674.159174817929	1282.59997558594
674.896530171977	1289
675.633793974786	1292.19995117188
676.370966234295	1289.59997558594
677.108046958461	1282.40002441406
677.845036155219	1281
678.581933832528	1286.80004882813
679.318739998323	1269
680.055454660558	1265.19995117188
680.792077827172	1267.80004882813
681.528609506116	1279.59997558594
682.265049705331	1270.80004882813
683.001398432759	1278.40002441406
683.737655696349	1268
684.47382150404	1268.80004882813
685.20989586378	1280.19995117188
685.945878783503	1293.19995117188
686.68177027116	1288.80004882813
687.417570334688	1292.19995117188
688.153278982032	1291.80004882813
688.888896221129	1283.59997558594
689.624422059921	1284
690.359856506349	1281.80004882813
691.095199568354	1272
691.830451253874	1271.19995117188
692.565611570844	1265.19995117188
693.300680527212	1255.59997558594
694.03565813091	1268.19995117188
694.770544389877	1256.59997558594
695.505339312053	1268.80004882813
696.240042905372	1257.19995117188
696.974655177772	1277.80004882813
697.70917613719	1281.40002441406
698.443605791561	1291.40002441406
699.177944148826	1298
699.912191216909	1296.19995117188
700.646347003755	1301
701.380411517295	1285.40002441406
702.114384765465	1290.19995117188
702.848266756195	1274
703.582057497421	1274.59997558594
704.315756997074	1278.19995117188
705.049365263089	1272.19995117188
705.782882303399	1271.80004882813
706.516308125936	1280.59997558594
707.249642738626	1285.40002441406
707.982886149403	1278.59997558594
708.716038366204	1291.80004882813
709.449099396949	1292.59997558594
710.182069249577	1299.19995117188
710.914947932009	1296.59997558594
711.647735452181	1290.19995117188
712.380431818022	1291.59997558594
713.113037037454	1282.80004882813
713.845551118411	1285
714.577974068818	1290.59997558594
715.310305896604	1291.80004882813
716.042546609694	1308.80004882813
716.774696216013	1300.19995117188
717.506754723493	1301.59997558594
718.238722140053	1301.59997558594
718.970598473624	1301.19995117188
719.702383732127	1291
720.43407792349	1295.80004882813
721.165681055634	1301.59997558594
721.897193136486	1292.40002441406
722.628614173966	1288
723.359944175997	1288
724.091183150505	1284.19995117188
724.822331105412	1289.80004882813
725.553388048638	1295.40002441406
726.284353988106	1284
727.015228931734	1303.59997558594
727.746012887449	1287
728.476705863162	1282.19995117188
729.207307866803	1287.40002441406
729.937818906289	1293.59997558594
730.668238989535	1281.80004882813
731.398568124459	1293.19995117188
732.128806318986	1301.40002441406
732.858953581034	1293.40002441406
733.589009918514	1288.59997558594
734.318975339348	1289.80004882813
735.048849851452	1294.59997558594
735.778633462744	1285
736.508326181137	1284.59997558594
737.237928014549	1294.19995117188
737.967438970897	1291.59997558594
738.696859058095	1283.19995117188
739.426188284054	1295
740.155426656692	1289.19995117188
740.884574183922	1292.40002441406
741.613630873659	1276.80004882813
742.342596733815	1281.19995117188
743.071471772302	1271.80004882813
743.800255997034	1267
744.528949415921	1277.40002441406
745.257552036877	1287.40002441406
745.986063867811	1281.19995117188
746.714484916638	1287
747.442815191261	1292
748.171054699597	1309
748.899203449554	1303.40002441406
749.627261449039	1304.59997558594
750.355228705966	1290.80004882813
751.083105228239	1294.59997558594
751.810891023765	1291
752.538586100459	1297.59997558594
753.266190466218	1303.40002441406
753.99370412896	1292.19995117188
754.721127096582	1300.59997558594
755.448459377	1295.19995117188
756.175700978114	1293.59997558594
756.902851907828	1293.19995117188
757.629912174055	1288.19995117188
758.356881784688	1282.59997558594
759.083760747639	1301.19995117188
759.810549070817	1293
760.537246762113	1289.40002441406
761.263853829442	1307.40002441406
761.990370280698	1302.80004882813
762.716796123791	1297.59997558594
763.443131366618	1294
764.169376017082	1281.19995117188
764.895530083085	1291.40002441406
765.621593572527	1299.59997558594
766.347566493312	1308
767.073448853336	1316
767.799240660502	1331.59997558594
768.524941922707	1341
769.250552647854	1341.59997558594
769.976072843836	1357.19995117188
770.701502518551	1358.19995117188
771.426841679905	1359.59997558594
772.152090335793	1354.59997558594
772.877248494107	1380.40002441406
773.602316162747	1372.19995117188
774.327293349609	1382.19995117188
775.052180062592	1372
775.776976309589	1362.80004882813
776.501682098496	1366.80004882813
777.226297437206	1360
777.950822333616	1348.59997558594
778.675256795621	1331.59997558594
779.399600831111	1328.19995117188
780.123854447983	1323.19995117188
780.84801765413	1312
781.572090457441	1318.80004882813
782.296072865811	1307.80004882813
783.019964887131	1293
783.743766529297	1291.19995117188
784.467477800194	1295.80004882813
785.191098707719	1282
785.914629259756	1282.40002441406
786.638069464194	1287
787.361419328932	1290.19995117188
788.084678861852	1286
788.807848070845	1287.40002441406
789.530926963798	1296.40002441406
790.253915548602	1297
790.976813833144	1296
791.699621825307	1299
792.422339532986	1284.59997558594
793.144966964061	1290.19995117188
793.86750412642	1283.40002441406
794.589951027946	1274
795.312307676536	1278.59997558594
796.03457408006	1282.80004882813
796.756750246417	1289.80004882813
797.478836183477	1296
798.200831899137	1280.80004882813
798.92273740127	1274
799.644552697769	1279.19995117188
800.36627779651	1280.80004882813
801.087912705374	1269.19995117188
801.809457432251	1272.40002441406
802.530911985017	1290.19995117188
803.252276371558	1290.19995117188
803.973550599748	1281.19995117188
804.694734677472	1294
805.415828612611	1284.59997558594
806.136832413045	1289.19995117188
806.857746086646	1293.19995117188
807.578569641305	1292
808.299303084892	1300
809.019946425289	1289.59997558594
809.740499670372	1292.19995117188
810.460962828022	1289
811.181335906114	1290
811.901618912524	1292.40002441406
812.621811855131	1299.19995117188
813.341914741809	1301.40002441406
814.061927580433	1294.80004882813
814.781850378881	1300.19995117188
815.501683145025	1303.19995117188
816.221425886743	1286.40002441406
816.941078611903	1284.80004882813
817.660641328387	1287.40002441406
818.380114044065	1283.80004882813
819.099496766808	1286
819.818789504492	1286.40002441406
820.53799226499	1276.80004882813
821.257105056168	1270.59997558594
821.976127885904	1279.59997558594
822.695060762064	1280.80004882813
823.413903692525	1280.59997558594
824.132656685151	1293.80004882813
824.851319747817	1290
825.569892888388	1292.40002441406
826.288376114739	1298.19995117188
827.006769434737	1295.80004882813
827.725072856249	1293.40002441406
828.443286387142	1296.19995117188
829.161410035285	1295.19995117188
829.87944380855	1293.19995117188
830.597387714798	1291.80004882813
831.315241761898	1285.80004882813
832.033005957715	1280
832.750680310119	1273.80004882813
833.468264826969	1271.19995117188
834.18575951614	1264.59997558594
834.903164385486	1272.80004882813
835.620479442878	1264.59997558594
836.337704696181	1269.59997558594
837.054840153255	1277
837.771885821962	1277.19995117188
838.488841710172	1274
839.20570782574	1273
839.922484176531	1277.80004882813
840.639170770409	1279.80004882813
841.355767615231	1292.80004882813
842.072274718864	1277.59997558594
842.788692089164	1283.40002441406
843.505019733993	1283
844.221257661209	1276.59997558594
844.937405878676	1277.40002441406
845.65346439425	1280.40002441406
846.369433215789	1281.19995117188
847.085312351156	1282
847.801101808205	1276.80004882813
848.516801594793	1277.80004882813
849.232411718781	1272.19995117188
849.947932188021	1272.19995117188
850.663363010376	1275.40002441406
851.378704193698	1283.59997558594
852.093955745842	1287.80004882813
852.809117674669	1293.59997558594
853.524189988028	1289.80004882813
854.239172693778	1288.80004882813
854.954065799768	1271.40002441406
855.668869313857	1271.40002441406
856.383583243899	1257.40002441406
857.098207597743	1249.80004882813
857.812742383246	1262.40002441406
858.527187608255	1266.40002441406
859.241543280628	1264.59997558594
859.955809408218	1268
860.669985998868	1280.80004882813
861.384073060437	1280.19995117188
862.098070600772	1276.19995117188
862.811978627724	1278.80004882813
863.52579714914	1283
864.239526172873	1261.80004882813
864.953165706776	1262
865.666715758687	1249
866.380176336464	1255.80004882813
867.093547447951	1253.80004882813
867.806829100996	1265.19995117188
868.520021303444	1273.59997558594
869.233124063149	1273.59997558594
869.94613738795	1283.40002441406
870.659061285693	1287.19995117188
871.37189576423	1285
872.084640831403	1288.40002441406
872.797296495057	1284.80004882813
873.509862763039	1291
874.22233964319	1290.80004882813
874.934727143353	1289.80004882813
875.647025271374	1283
876.359234035097	1290
877.071353442361	1291.80004882813
877.783383501015	1283.59997558594
878.495324218895	1284.19995117188
879.207175603844	1279.40002441406
879.918937663705	1283
880.630610406318	1271.40002441406
881.342193839524	1273
882.053687971161	1287
882.765092809069	1288
883.476408361091	1299
884.187634635066	1293
884.898771638828	1290.19995117188
885.609819380221	1287.59997558594
886.320777867076	1286.59997558594
887.031647107236	1271
887.742427108536	1277.59997558594
888.453117878816	1280.19995117188
889.16371942591	1289.59997558594
889.874231757652	1287.19995117188
890.584654881883	1287.19995117188
891.294988806434	1289.80004882813
892.005233539141	1281.19995117188
892.715389087837	1272.40002441406
893.42545546036	1291
894.135432664543	1286.59997558594
894.845320708216	1289
895.555119599216	1289.80004882813
896.264829345375	1276.59997558594
896.974449954526	1280.80004882813
897.683981434496	1284.59997558594
898.393423793125	1278.40002441406
899.102777038235	1265.40002441406
899.812041177664	1282
900.521216219239	1272.59997558594
901.230302170793	1278
901.939299040155	1274.80004882813
902.64820683515	1281.40002441406
903.357025563612	1289.19995117188
904.065755233368	1286.40002441406
904.774395852247	1296.59997558594
905.482947428076	1302.40002441406
906.191409968682	1284.80004882813
906.899783481897	1282.40002441406
907.608067975538	1299.19995117188
908.316263457443	1289.59997558594
909.02436993543	1281.59997558594
909.732387417327	1282.80004882813
910.440315910959	1294
911.148155424154	1295.40002441406
911.855905964731	1308.59997558594
912.563567540521	1303.19995117188
913.271140159339	1306
913.978623829017	1312
914.686018557374	1309.40002441406
915.393324352237	1296
916.100541221421	1294
916.807669172752	1291.59997558594
917.514708214054	1291.59997558594
918.221658353142	1284.19995117188
918.928519597843	1288.40002441406
919.635291955976	1279.19995117188
920.341975435358	1280.80004882813
921.048570043813	1272.59997558594
921.75507578916	1264.19995117188
922.461492679212	1282.19995117188
923.167820721795	1280.19995117188
923.874059924726	1287.59997558594
924.58021029582	1272.80004882813
925.286271842893	1279.40002441406
925.992244573769	1282.59997558594
926.698128496262	1283.40002441406
927.403923618184	1291.59997558594
928.109629947355	1288.59997558594
928.815247491593	1287.40002441406
929.520776258708	1300.40002441406
930.226216256519	1302.59997558594
930.931567492841	1295.40002441406
931.636829975482	1299
932.342003712263	1291
933.047088710995	1283.40002441406
933.752084979491	1271.59997558594
934.456992525564	1279.59997558594
935.161811357024	1279.80004882813
935.866541481688	1272.40002441406
936.571182907363	1270.59997558594
937.275735641861	1274.80004882813
937.980199692995	1259.59997558594
938.684575068572	1263
939.388861776411	1258.19995117188
940.093059824311	1260
940.797169220085	1262.80004882813
941.501189971544	1266.40002441406
942.205122086495	1259
942.908965572751	1265.80004882813
943.612720438111	1261
944.316386690391	1275.59997558594
945.019964337391	1270.40002441406
945.723453386924	1273.40002441406
946.426853846795	1280.40002441406
947.130165724808	1276.59997558594
947.83338902877	1274.59997558594
948.536523766488	1270.80004882813
949.239569945764	1256
949.942527574402	1266.80004882813
950.64539666021	1280
951.348177210993	1277.59997558594
952.050869234548	1284.40002441406
952.753472738683	1276.80004882813
953.455987731199	1280.40002441406
954.158414219898	1278.59997558594
954.860752212587	1266
955.563001717061	1272.59997558594
956.265162741124	1264.40002441406
956.967235292576	1268.19995117188
957.669219379224	1266
958.371115008857	1273.80004882813
959.072922189283	1265.80004882813
959.774640928301	1281
960.476271233708	1263.80004882813
961.177813113301	1273.80004882813
961.879266574882	1265.19995117188
962.580631626248	1258
963.281908275194	1259.80004882813
963.98309652952	1262
964.684196397022	1276.59997558594
965.3852078855	1257
966.086131002745	1269.40002441406
966.786965756555	1265.59997558594
967.487712154726	1272.40002441406
968.188370205055	1263.59997558594
968.888939915331	1268.80004882813
969.589421293352	1266
970.289814346909	1249.40002441406
970.990119083801	1252.80004882813
971.690335511819	1257.80004882813
972.39046363875	1249.19995117188
973.090503472398	1250.59997558594
973.790455020545	1249.19995117188
974.490318290987	1258.40002441406
975.190093291516	1258.59997558594
975.889780029923	1258.59997558594
976.589378513998	1253.19995117188
977.288888751527	1256.40002441406
977.988310750308	1254.19995117188
978.687644518122	1261.40002441406
979.386890062767	1260.19995117188
980.086047392025	1268
980.785116513689	1271.80004882813
981.484097435542	1272.19995117188
982.182990165377	1277.80004882813
982.88179471098	1267.80004882813
983.580511080137	1260.80004882813
984.279139280632	1249
984.977679320253	1260
985.67613120679	1270.59997558594
986.374494948027	1263
987.072770551745	1264.59997558594
987.770958025731	1258.19995117188
988.469057377772	1258
989.167068615649	1244.59997558594
989.864991747145	1250.40002441406
990.562826780047	1250.59997558594
991.260573722134	1248.19995117188
991.958232581195	1238.59997558594
992.655803365003	1247
993.353286081346	1246.40002441406
994.050680738006	1254.40002441406
994.74798734276	1262.40002441406
995.44520590339	1267.80004882813
996.142336427681	1262.40002441406
996.839378923407	1256.59997558594
997.536333398348	1245.40002441406
998.233199860289	1253.40002441406
998.929978317004	1238.40002441406
999.626668776274	1249
1000.32327124587	1250.59997558594
1001.01978573359	1258
1001.71621224718	1258.19995117188
1002.41255079445	1257.19995117188
1003.10880138315	1252.19995117188
1003.80496402107	1261.19995117188
1004.50103871599	1256.40002441406
1005.19702547567	1250.80004882813
1005.8929243079	1257.40002441406
1006.58873522045	1249.40002441406
1007.2844582211	1258
1007.98009331761	1259.19995117188
1008.67564051776	1265.40002441406
1009.37109982933	1259.40002441406
1010.06647126009	1256.80004882813
1010.7617548178	1262
1011.45695051026	1263.19995117188
1012.15205834522	1251.59997558594
1012.84707833045	1262
1013.54201047373	1267
1014.23685478284	1275.59997558594
1014.93161126553	1271.80004882813
1015.62627992959	1280.59997558594
1016.32086078277	1277.40002441406
1017.01535383285	1279.59997558594
1017.70975908761	1270.59997558594
1018.40407655479	1269
1019.09830624219	1268.19995117188
1019.79244815755	1260.40002441406
1020.48650230866	1265
1021.18046870328	1258.59997558594
1021.87434734917	1250.40002441406
1022.56813825411	1249.19995117188
1023.26184142584	1249.40002441406
1023.95545687216	1251.59997558594
1024.64898460082	1252.40002441406
1025.34242461957	1262.80004882813
1026.0357769362	1254.80004882813
1026.72904155846	1245.59997558594
1027.42221849412	1240.59997558594
1028.11530775094	1245
1028.80830933668	1251.19995117188
1029.50122325911	1253.19995117188
1030.19404952599	1263
1030.88678814508	1263.80004882813
1031.57943912414	1258.19995117188
1032.27200247093	1250.40002441406
1032.96447819323	1250.19995117188
1033.65686629878	1248
1034.34916679534	1253.80004882813
1035.04137969068	1256.80004882813
1035.73350499256	1257.19995117188
1036.42554270874	1241.80004882813
1037.11749284697	1245.19995117188
1037.80935541501	1244
1038.50113042062	1250.80004882813
1039.19281787156	1254.59997558594
1039.88441777559	1257.19995117188
1040.57593014046	1260
1041.26735497393	1269.19995117188
1041.95869228376	1264.59997558594
1042.6499420777	1274.40002441406
1043.3411043635	1255.40002441406
1044.03217914893	1256.19995117188
1044.72316644174	1255.40002441406
1045.41406624968	1263.59997558594
1046.1048785805	1257.80004882813
1046.79560344197	1261.40002441406
1047.48624084182	1255.19995117188
1048.17679078783	1254.19995117188
1048.86725328774	1267.40002441406
1049.55762834929	1272.19995117188
1050.24791598025	1267
1050.93811618837	1261.59997558594
1051.62822898139	1253.40002441406
1052.31825436707	1254.40002441406
1053.00819235315	1243.59997558594
1053.6980429474	1254.19995117188
1054.38780615755	1246.80004882813
1055.07748199136	1251
1055.76707045658	1241.59997558594
1056.45657156095	1249.80004882813
1057.14598531222	1246.80004882813
1057.83531171814	1250.40002441406
1058.52455078646	1246.80004882813
1059.21370252494	1249.80004882813
1059.90276694129	1234
1060.5917440433	1242.40002441406
1061.28063383868	1241.19995117188
1061.9694363352	1236
1062.65815154059	1230.59997558594
1063.34677946261	1227.80004882813
1064.03532010899	1224
1064.72377348748	1224
1065.41213960583	1240.59997558594
1066.10041847177	1242.59997558594
1066.78861009306	1244
1067.47671447743	1246
1068.16473163263	1252.19995117188
1068.85266156639	1248
1069.54050428647	1238
1070.2282598006	1245.80004882813
1070.91592811652	1256.80004882813
1071.60350924198	1249.40002441406
1072.29100318471	1240.40002441406
1072.97840995245	1251.59997558594
1073.66572955295	1246.59997558594
1074.35296199394	1245.59997558594
1075.04010728316	1245
1075.72716542836	1240.19995117188
1076.41413643726	1228
1077.10102031761	1243.19995117188
1077.78781707715	1238.80004882813
1078.4745267236	1244.40002441406
1079.16114926471	1242.59997558594
1079.84768470822	1235.80004882813
1080.53413306185	1235.40002441406
1081.22049433336	1231.59997558594
1081.90676853046	1233.59997558594
1082.5929556609	1237.59997558594
1083.27905573241	1242.19995117188
1083.96506875272	1246.80004882813
1084.65099472957	1250.19995117188
1085.3368336707	1243.59997558594
1086.02258558383	1234
1086.70825047669	1233.59997558594
1087.39382835703	1234.59997558594
1088.07931923257	1237
1088.76472311104	1239.19995117188
1089.45004000018	1243.80004882813
1090.13526990771	1242.80004882813
1090.82041284137	1235.19995117188
1091.50546880889	1249
1092.19043781799	1258.59997558594
1092.87531987642	1246.59997558594
1093.56011499188	1253.40002441406
1094.24482317212	1237.40002441406
1094.92944442486	1236.80004882813
1095.61397875783	1242.59997558594
1096.29842617876	1242.40002441406
1096.98278669537	1238
1097.6670603154	1237.59997558594
1098.35124704656	1240
1099.03534689659	1235.40002441406
1099.71935987322	1229.80004882813
1100.40328598416	1228.19995117188
1101.08712523713	1215.80004882813
1101.77087763988	1230.80004882813
1102.45454320012	1225.19995117188
1103.13812192557	1240.80004882813
1103.82161382396	1237.59997558594
1104.50501890301	1245.19995117188
1105.18833717045	1230.19995117188
1105.87156863399	1225.80004882813
1106.55471330137	1226
1107.2377711803	1239.19995117188
1107.9207422785	1234.80004882813
1108.60362660369	1239
1109.2864241636	1235.59997558594
1109.96913496594	1226.40002441406
1110.65175901844	1224.59997558594
1111.33429632882	1220
1112.01674690479	1231
1112.69911075408	1243.59997558594
1113.38138788439	1240.19995117188
1114.06357830346	1245
1114.745682019	1245.40002441406
1115.42769903872	1237
1116.10962937035	1244.80004882813
1116.7914730216	1242.19995117188
1117.47323000018	1252.19995117188
1118.15490031382	1249.59997558594
1118.83648397022	1257.59997558594
1119.51798097712	1244
1120.1993913422	1241.80004882813
1120.88071507321	1243.59997558594
1121.56195217784	1245.19995117188
1122.24310266381	1249.19995117188
1122.92416653884	1260.40002441406
1123.60514381064	1254.59997558594
1124.28603448692	1253.40002441406
1124.9668385754	1255.19995117188
1125.64755608378	1238.59997558594
1126.32818701978	1246.40002441406
1127.00873139111	1252.80004882813
1127.68918920548	1235
1128.3695604706	1242
1129.04984519419	1233
1129.73004338394	1231.59997558594
1130.41015504758	1236.40002441406
1131.09018019281	1243.40002441406
1131.77011882734	1237.80004882813
1132.44997095888	1233.19995117188
1133.12973659514	1227.80004882813
1133.80941574381	1232.19995117188
1134.48900841263	1235.59997558594
1135.16851460927	1231
1135.84793434147	1227.19995117188
1136.52726761692	1243.80004882813
1137.20651444333	1239.59997558594
1137.8856748284	1225.19995117188
1138.56474877984	1236.19995117188
1139.24373630536	1227.80004882813
1139.92263741265	1236.59997558594
1140.60145210943	1224.40002441406
1141.28018040339	1244.80004882813
1141.95882230225	1230.19995117188
1142.6373778137	1232.40002441406
1143.31584694545	1224.40002441406
1143.99422970519	1224.59997558594
1144.67252610064	1232
1145.35073613949	1233.19995117188
1146.02885982944	1237.59997558594
1146.7068971782	1239.40002441406
1147.38484819347	1226.40002441406
1148.06271288294	1234.80004882813
1148.74049125432	1232.59997558594
1149.41818331531	1237.19995117188
1150.0957890736	1228.40002441406
1150.77330853689	1229.40002441406
1151.45074171289	1228.40002441406
1152.12808860928	1229.40002441406
1152.80534923378	1231
1153.48252359407	1230.40002441406
1154.15961169786	1231
1154.83661355283	1236.59997558594
1155.51352916669	1239.80004882813
1156.19035854713	1237
1156.86710170185	1233.19995117188
1157.54375863855	1225.19995117188
1158.22032936491	1237.59997558594
1158.89681388863	1240.59997558594
1159.57321221741	1235.19995117188
1160.24952435894	1241.40002441406
1160.92575032092	1246
1161.60189011103	1239.59997558594
1162.27794373697	1236.40002441406
1162.95391120644	1233.19995117188
1163.62979252712	1238.80004882813
1164.3055877067	1232.80004882813
1164.98129675288	1231.40002441406
1165.65691967336	1230.19995117188
1166.33245647581	1232
1167.00790716792	1241.40002441406
1167.6832717574	1239
1168.35855025193	1249.19995117188
1169.0337426592	1253.40002441406
1169.70884898689	1238.40002441406
1170.3838692427	1246
1171.05880343431	1239.59997558594
1171.73365156941	1238
1172.40841365569	1237.80004882813
1173.08308970083	1232.19995117188
1173.75767971253	1242.40002441406
1174.43218369847	1243.80004882813
1175.10660166633	1242
1175.7809336238	1232.80004882813
1176.45517957857	1241.19995117188
1177.12933953832	1240.80004882813
1177.80341351073	1256
1178.47740150349	1244
1179.15130352429	1265
1179.8251195808	1265
1180.49884968071	1261.80004882813
1181.1724938317	1267.59997558594
1181.84605204145	1269.19995117188
1182.51952431766	1271.19995117188
1183.19291066799	1270.80004882813
1183.86621110013	1269.80004882813
1184.53942562176	1269.59997558594
1185.21255424057	1266
1185.88559696422	1259.80004882813
1186.55855380041	1263.19995117188
1187.2314247568	1252.19995117188
1187.90420984109	1248.59997558594
1188.57690906095	1261.19995117188
1189.24952242405	1263.80004882813
1189.92204993808	1264.19995117188
1190.59449161071	1266.59997558594
1191.26684744962	1263.80004882813
1191.93911746249	1262.80004882813
1192.61130165699	1251.80004882813
1193.28340004081	1253
1193.95541262161	1256.19995117188
1194.62733940707	1236.80004882813
1195.29918040487	1242.19995117188
1195.97093562269	1244.19995117188
1196.64260506819	1242.80004882813
1197.31418874905	1247.80004882813
1197.98568667295	1246.80004882813
1198.65709884755	1239
1199.32842528053	1241.59997558594
1199.99966597957	1235.40002441406
1200.67082095234	1241.19995117188
1201.3418902065	1242.19995117188
1202.01287374974	1250.19995117188
1202.68377158971	1248.40002441406
1203.3545837341	1254.40002441406
1204.02531019057	1243
1204.6959509668	1238.40002441406
1205.36650607045	1238
1206.03697550919	1231.80004882813
1206.70735929069	1223.40002441406
1207.37765742263	1212
1208.04786991266	1211
1208.71799676846	1216.59997558594
1209.38803799769	1213.59997558594
1210.05799360803	1212.19995117188
1210.72786360714	1213
1211.39764800268	1215.40002441406
1212.06734680233	1227.40002441406
1212.73696001375	1212.19995117188
1213.4064876446	1215.19995117188
1214.07592970255	1209
1214.74528619526	1214.59997558594
1215.4145571304	1220.59997558594
1216.08374251564	1232.40002441406
1216.75284235863	1227.19995117188
1217.42185666704	1222.40002441406
1218.09078544854	1228.40002441406
1218.75962871078	1221.40002441406
1219.42838646143	1227.80004882813
1220.09705870816	1217.40002441406
1220.76564545861	1230.40002441406
1221.43414672046	1217.40002441406
1222.10256250136	1228.19995117188
1222.77089280898	1226.40002441406
1223.43913765098	1220.80004882813
1224.107297035	1223.19995117188
1224.77537096873	1216.19995117188
1225.44335945981	1224.80004882813
1226.1112625159	1222.80004882813
1226.77908014467	1221
1227.44681235376	1223.40002441406
1228.11445915085	1217.59997558594
1228.78202054357	1213.19995117188
1229.44949653961	1214.19995117188
1230.11688714659	1213.40002441406
1230.7841923722	1218.40002441406
1231.45141222407	1228
1232.11854670988	1226.59997558594
1232.78559583726	1225.59997558594
1233.45255961388	1231.19995117188
1234.1194380474	1217.19995117188
1234.78623114546	1221
1235.45293891572	1228.40002441406
1236.11956136583	1228.80004882813
1236.78609850345	1215
1237.45255033623	1213
1238.11891687182	1218.19995117188
1238.78519811788	1216
1239.45139408205	1210.40002441406
1240.11750477198	1208.40002441406
1240.78353019534	1216.19995117188
1241.44947035976	1213.80004882813
1242.11532527291	1212.80004882813
1242.78109494242	1216.80004882813
1243.44677937595	1218.59997558594
1244.11237858115	1210
1244.77789256567	1223.80004882813
1245.44332133715	1217.19995117188
1246.10866490325	1214.40002441406
1246.7739232716	1207.59997558594
1247.43909644987	1197
1248.10418444569	1211.40002441406
1248.76918726671	1210.80004882813
1249.43410492059	1213.40002441406
1250.09893741496	1207.40002441406
1250.76368475747	1218.40002441406
1251.42834695576	1210.40002441406
1252.09292401749	1228
1252.75741595029	1226.19995117188
1253.42182276182	1224.59997558594
1254.08614445971	1219.40002441406
1254.75038105161	1214.40002441406
1255.41453254515	1200.80004882813
1256.07859894799	1194.80004882813
1256.74258026777	1206.59997558594
1257.40647651213	1194
1258.0702876887	1198.19995117188
1258.73401380514	1199.80004882813
1259.39765486908	1201
1260.06121088817	1204
1260.72468187004	1214.59997558594
1261.38806782233	1215
1262.05136875269	1215.40002441406
1262.71458466875	1216
1263.37771557815	1213.80004882813
1264.04076148854	1224.80004882813
1264.70372240753	1221.80004882813
1265.3665983428	1210.40002441406
1266.02938930195	1208
1266.69209529263	1216.59997558594
1267.35471632249	1214.40002441406
1268.01725239914	1217.80004882813
1268.67970353024	1216.59997558594
1269.34206972342	1215.59997558594
1270.00435098631	1211.59997558594
1270.66654732655	1208
1271.32865875177	1203.59997558594
1271.9906852696	1195.40002441406
1272.65262688768	1211.40002441406
1273.31448361365	1210
1273.97625545514	1210
1274.63794241978	1208.40002441406
1275.2995445152	1207.40002441406
1275.96106174903	1207.19995117188
1276.62249412892	1202.59997558594
1277.28384166248	1203.40002441406
1277.94510435735	1189.19995117188
1278.60628222116	1195.40002441406
1279.26737526155	1195.40002441406
1279.92838348613	1198.80004882813
1280.58930690255	1205
1281.25014551842	1204.59997558594
1281.91089934139	1204.40002441406
1282.57156837907	1211.19995117188
1283.2321526391	1218
1283.89265212911	1209
1284.55306685671	1220
1285.21339682955	1214
1285.87364205525	1210.59997558594
1286.53380254142	1213.80004882813
1287.19387829571	1209.80004882813
1287.85386932573	1210.80004882813
1288.51377563911	1202.40002441406
1289.17359724348	1209.40002441406
1289.83333414646	1211.80004882813
1290.49298635567	1213.59997558594
1291.15255387874	1215.40002441406
1291.8120367233	1209
1292.47143489696	1205.19995117188
1293.13074840736	1205.80004882813
1293.7899772621	1206.19995117188
1294.44912146882	1209.19995117188
1295.10818103513	1211.80004882813
1295.76715596866	1215.80004882813
1296.42604627704	1216
1297.08485196787	1218.40002441406
1297.74357304878	1215.59997558594
1298.4022095274	1211.40002441406
1299.06076141134	1219.19995117188
1299.71922870821	1221.59997558594
1300.37761142565	1214
1301.03590957126	1220.80004882813
1301.69412315268	1210.40002441406
1302.3522521775	1231.19995117188
1303.01029665336	1217.19995117188
1303.66825658787	1223.19995117188
1304.32613198865	1215.19995117188
1304.98392286332	1218.59997558594
1305.64162921948	1209.40002441406
1306.29925106476	1222.40002441406
1306.95678840677	1222.40002441406
1307.61424125312	1221.59997558594
1308.27160961145	1223.80004882813
1308.92889348934	1216.59997558594
1309.58609289443	1229.59997558594
1310.24320783432	1224.19995117188
1310.90023831664	1226
1311.55718434898	1230
1312.21404593897	1225.59997558594
1312.87082309421	1233.80004882813
1313.52751582233	1240.19995117188
1314.18412413092	1223
1314.84064802761	1227
1315.49708752	1228.59997558594
1316.1534426157	1228.80004882813
1316.80971332233	1232
1317.46589964749	1235.40002441406
1318.1220015988	1236.40002441406
1318.77801918386	1239.40002441406
1319.43395241028	1242.19995117188
1320.08980128567	1225.40002441406
1320.74556581764	1237
1321.4012460138	1229.40002441406
1322.05684188176	1227.19995117188
1322.71235342911	1222
1323.36778066347	1217.80004882813
1324.02312359245	1224.59997558594
1324.67838222365	1229.19995117188
1325.33355656468	1226.80004882813
1325.98864662314	1229.19995117188
1326.64365240663	1222
1327.29857392277	1226
1327.95341117915	1221.40002441406
1328.60816418339	1215.19995117188
1329.26283294308	1213.80004882813
1329.91741746582	1211
1330.57191775923	1214.59997558594
1331.2263338309	1213
1331.88066568843	1211.59997558594
1332.53491333943	1209.19995117188
1333.1890767915	1212.19995117188
1333.84315605224	1217.80004882813
1334.49715112925	1216.80004882813
1335.15106203013	1215
1335.80488876249	1218.19995117188
1336.45863133391	1209.19995117188
1337.112289752	1207.59997558594
1337.76586402437	1212.59997558594
1338.4193541586	1210
1339.0727601623	1203.59997558594
1339.72608204306	1207.80004882813
1340.37931980849	1205.40002441406
1341.03247346617	1204.59997558594
1341.68554302372	1204.59997558594
1342.33852848871	1209.40002441406
1342.99142986876	1208.80004882813
1343.64424717145	1211.80004882813
1344.29698040438	1202.40002441406
1344.94962957515	1207.19995117188
1345.60219469135	1216
1346.25467576058	1213
1346.90707279042	1210
1347.55938578848	1209.19995117188
1348.21161476235	1227
1348.86375971962	1217.19995117188
1349.51582066787	1221.59997558594
1350.16779761472	1221.19995117188
1350.81969056774	1226.19995117188
1351.47149953453	1231.59997558594
1352.12322452269	1236
1352.77486553979	1235.59997558594
1353.42642259344	1233.80004882813
1354.07789569122	1238.40002441406
1354.72928484072	1237.19995117188
1355.38059004953	1250.19995117188
1356.03181132525	1243.80004882813
1356.68294867545	1255.59997558594
1357.33400210773	1268.40002441406
1357.98497162968	1280.59997558594
1358.63585724889	1277.80004882813
1359.28665897294	1269.80004882813
1359.93737680942	1269.19995117188
1360.58801076591	1276.19995117188
1361.23856085001	1272.59997558594
1361.88902706929	1280.19995117188
1362.53940943135	1284.19995117188
1363.18970794377	1285.80004882813
1363.83992261413	1288.80004882813
1364.49005345003	1275.40002441406
1365.14010045904	1274.19995117188
1365.79006364874	1264
1366.43994302673	1258.80004882813
1367.08973860058	1243.40002441406
1367.73945037788	1249.59997558594
1368.38907836621	1248
1369.03862257315	1257.40002441406
1369.68808300629	1242.40002441406
1370.3374596732	1235
1370.98675258148	1212.80004882813
1371.63596173868	1210.80004882813
1372.28508715241	1220.59997558594
1372.93412883024	1217.59997558594
1373.58308677974	1221.40002441406
1374.2319610085	1223.19995117188
1374.8807515241	1215.40002441406
1375.52945833412	1208.40002441406
1376.17808144612	1206
1376.82662086771	1199.80004882813
1377.47507660644	1197.80004882813
1378.12344866989	1198
1378.77173706565	1208.40002441406
1379.41994180129	1204.40002441406
1380.06806288439	1206.19995117188
1380.71610032252	1209.80004882813
1381.36405412326	1210.40002441406
1382.01192429419	1201.59997558594
1382.65971084287	1202.80004882813
1383.30741377688	1198.19995117188
1383.95503310381	1202.40002441406
1384.60256883121	1200.59997558594
1385.25002096667	1192.19995117188
1385.89738951775	1201.40002441406
1386.54467449204	1197.59997558594
1387.19187589709	1213.80004882813
1387.8389937405	1205
1388.48602802982	1203
1389.13297877262	1196
1389.77984597649	1204
1390.42662964899	1194
1391.07332979768	1207.59997558594
1391.71994643015	1198.59997558594
1392.36647955395	1192.19995117188
1393.01292917667	1191
1393.65929530586	1196
1394.3055779491	1190.80004882813
1394.95177711395	1182.80004882813
1395.59789280799	1184.40002441406
1396.24392503877	1175.80004882813
1396.88987381387	1180.19995117188
1397.53573914086	1176.19995117188
1398.1815210273	1167
1398.82721948075	1182
1399.47283450878	1178.59997558594
1400.11836611897	1182
1400.76381431886	1186
1401.40917911603	1182
1402.05446051805	1194.59997558594
1402.69965853247	1186.80004882813
1403.34477316686	1188.59997558594
1403.98980442878	1181.80004882813
1404.6347523258	1183.19995117188
1405.27961686548	1191.40002441406
1405.92439805538	1184
1406.56909590306	1188.19995117188
1407.21371041608	1186.40002441406
1407.85824160202	1191
1408.50268946841	1187.80004882813
1409.14705402284	1179
1409.79133527285	1179.19995117188
1410.43553322601	1181
1411.07964788987	1193.19995117188
1411.723679272	1190.80004882813
1412.36762737996	1187.19995117188
1413.01149222129	1189.19995117188
1413.65527380357	1195
1414.29897213435	1192.80004882813
1414.94258722118	1194.19995117188
1415.58611907163	1190
1416.22956769325	1181.40002441406
1416.87293309359	1185.40002441406
1417.51621528021	1192.40002441406
1418.15941426067	1188
1418.80253004253	1191.19995117188
1419.44556263333	1191
1420.08851204063	1192
1420.731378272	1196.40002441406
1421.37416133497	1208.80004882813
1422.0168612371	1196.19995117188
1422.65947798596	1202.19995117188
1423.30201158908	1196
1423.94446205403	1197.80004882813
1424.58682938835	1186
1425.2291135996	1180.19995117188
1425.87131469532	1193.40002441406
1426.51343268308	1186.80004882813
1427.15546757042	1185.59997558594
1427.79741936488	1186.40002441406
1428.43928807403	1183.59997558594
1429.0810737054	1184
1429.72277626656	1173.40002441406
1430.36439576504	1176.59997558594
1431.00593220841	1183
1431.64738560419	1182.19995117188
1432.28875595995	1182
1432.93004328324	1178.19995117188
1433.57124758159	1180.40002441406
1434.21236886255	1181.40002441406
1434.85340713368	1189.19995117188
1435.49436240252	1188.59997558594
1436.13523467661	1184.19995117188
1436.77602396349	1184
1437.41673027073	1180.59997558594
1438.05735360585	1190.80004882813
1438.69789397641	1180.80004882813
1439.33835138994	1186.80004882813
1439.978725854	1187.80004882813
1440.61901737612	1171.40002441406
1441.25922596385	1174.59997558594
1441.89935162473	1185
1442.53939436631	1180.19995117188
1443.17935419612	1178.59997558594
1443.81923112171	1180.59997558594
1444.45902515061	1170.40002441406
1445.09873629038	1183.80004882813
1445.73836454854	1172.59997558594
1446.37790993265	1176.40002441406
1447.01737245024	1175
1447.65675210885	1170.80004882813
1448.29604891602	1180.80004882813
1448.93526287928	1186.80004882813
1449.57439400618	1186.80004882813
1450.21344230426	1190
1450.85240778105	1171.80004882813
1451.49129044409	1174.59997558594
1452.13009030092	1179
1452.76880735907	1173.19995117188
1453.40744162608	1170.59997558594
1454.04599310949	1176.59997558594
1454.68446181683	1175.19995117188
1455.32284775564	1173.80004882813
1455.96115093345	1181.40002441406
1456.5993713578	1172
1457.23750903623	1185.80004882813
1457.87556397626	1176.40002441406
1458.51353618543	1185
1459.15142567127	1186.59997558594
1459.78923244132	1178.19995117188
1460.42695650311	1193
1461.06459786417	1189.40002441406
1461.70215653203	1193
1462.33963251423	1183.40002441406
1462.97702581829	1191.40002441406
1463.61433645175	1179.80004882813
1464.25156442214	1182
1464.88870973699	1171.40002441406
1465.52577240382	1167
1466.16275243017	1170.80004882813
1466.79964982356	1172.59997558594
1467.43646459154	1178.19995117188
1468.07319674161	1175.40002441406
1468.70984628132	1183.40002441406
1469.34641321818	1176.40002441406
1469.98289755974	1172
1470.6192993135	1173.19995117188
1471.25561848701	1170.59997558594
1471.89185508779	1177
1472.52800912336	1179
1473.16408060124	1180
1473.80006952897	1179.80004882813
1474.43597591407	1173.19995117188
1475.07179976406	1181
1475.70754108647	1184
1476.34319988883	1186
1476.97877617865	1179
1477.61426996345	1184.19995117188
1478.24968125077	1184.59997558594
1478.88501004812	1170.80004882813
1479.52025636303	1169
1480.15542020302	1162.19995117188
1480.79050157561	1167.80004882813
1481.42550048832	1172.80004882813
1482.06041694867	1186.19995117188
1482.69525096418	1187
1483.33000254237	1187.59997558594
1483.96467169077	1192.19995117188
1484.59925841689	1183.59997558594
1485.23376272825	1185
1485.86818463237	1183.59997558594
1486.50252413677	1178
1487.13678124896	1180
1487.77095597646	1182.59997558594
1488.4050483268	1177
1489.03905830749	1174.19995117188
1489.67298592604	1174.19995117188
1490.30683118996	1179.19995117188
1490.9405941068	1178
1491.57427468403	1182.40002441406
1492.2078729292	1192
1492.84138884981	1181
1493.47482245338	1185.19995117188
1494.10817374742	1170.19995117188
1494.74144273944	1183.59997558594
1495.37462943696	1182.59997558594
1496.0077338475	1177.59997558594
1496.64075597856	1179
1497.27369583765	1179.19995117188
1497.9065534323	1183
1498.53932877001	1189.40002441406
1499.17202185829	1189.80004882813
1499.80463270465	1190.59997558594
1500.43716131661	1187.59997558594
1501.06960770167	1182.80004882813
1501.70197186735	1189.40002441406
1502.33425382116	1189.19995117188
1502.96645357059	1193.40002441406
1503.59857112317	1192.59997558594
1504.23060648641	1188.40002441406
1504.8625596678	1190.59997558594
1505.49443067486	1203
1506.1262195151	1204
1506.75792619602	1200.59997558594
1507.38955072513	1204.40002441406
1508.02109310993	1198.59997558594
1508.65255335794	1208.80004882813
1509.28393147666	1197.40002441406
1509.91522747359	1203.80004882813
1510.54644135624	1198.59997558594
1511.17757313212	1197
1511.80862280872	1197.80004882813
1512.43959039356	1202
1513.07047589413	1195.59997558594
1513.70127931795	1191.19995117188
1514.33200067251	1180.59997558594
1514.96263996531	1182
1515.59319720386	1170.40002441406
1516.22367239567	1176.80004882813
1516.85406554822	1172.40002441406
1517.48437666903	1181
1518.1146057656	1185.19995117188
1518.74475284542	1177.80004882813
1519.374817916	1178
1520.00480098483	1166
1520.63470205942	1164.40002441406
1521.26452114726	1161.19995117188
1521.89425825586	1164.40002441406
1522.52391339271	1169.19995117188
1523.15348656531	1159.19995117188
1523.78297778116	1164.59997558594
1524.41238704775	1160.40002441406
1525.04171437259	1167
1525.67095976317	1160.40002441406
1526.30012322699	1163
1526.92920477154	1167.59997558594
1527.55820440432	1176
1528.18712213283	1180.40002441406
1528.81595796455	1170
1529.44471190699	1174.19995117188
1530.07338396764	1178.19995117188
1530.70197415399	1170.59997558594
1531.33048247353	1173.19995117188
1531.95890893377	1165
1532.58725354219	1163.59997558594
1533.21551630629	1144.59997558594
1533.84369723356	1156.19995117188
1534.47179633148	1153.40002441406
1535.09981360757	1162.40002441406
1535.72774906929	1173.40002441406
1536.35560272415	1158.80004882813
1536.98337457963	1159.59997558594
1537.61106464323	1154.59997558594
1538.23867292243	1157.59997558594
1538.86619942473	1153
1539.49364415762	1164.59997558594
1540.12100712857	1169.80004882813
1540.74828834509	1163.59997558594
1541.37548781466	1162
1542.00260554478	1168.80004882813
1542.62964154291	1170.19995117188
1543.25659581655	1171.19995117188
1543.8834683732	1167
1544.51025922034	1177.80004882813
1545.13696836544	1164.19995117188
1545.76359581601	1159
1546.39014157952	1142.19995117188
1547.01660566345	1147.40002441406
1547.64298807531	1150.59997558594
1548.26928882255	1141.19995117188
1548.89550791269	1153.19995117188
1549.52164535318	1144.19995117188
1550.14770115153	1141
1550.77367531521	1139.59997558594
1551.39956785171	1146.40002441406
1552.0253787685	1146.80004882813
1552.65110807307	1143.80004882813
1553.2767557729	1142.80004882813
1553.90232187548	1144.19995117188
1554.52780638828	1136.19995117188
1555.15320931879	1135.80004882813
1555.77853067447	1138.40002441406
1556.40377046282	1132.19995117188
1557.02892869132	1138
1557.65400536744	1134.40002441406
1558.27900049866	1133.19995117188
1558.90391409247	1131.59997558594
1559.52874615633	1132.80004882813
1560.15349669773	1136.59997558594
1560.77816572414	1138.80004882813
1561.40275324305	1137.59997558594
1562.02725926192	1145
1562.65168378824	1153.59997558594
1563.27602682948	1151.40002441406
1563.90028839311	1152.80004882813
1564.52446848662	1157.80004882813
1565.14856711748	1150
1565.77258429316	1148.40002441406
1566.39652002113	1141
1567.02037430887	1143.80004882813
1567.64414716387	1151
1568.26783859357	1146.80004882813
1568.89144860547	1153.19995117188
1569.51497720703	1150.40002441406
1570.13842440573	1147
1570.76179020904	1154
1571.38507462442	1155
1572.00827765936	1149
1572.63139932132	1146.40002441406
1573.25443961777	1143.40002441406
1573.87739855618	1154
1574.50027614402	1163.19995117188
1575.12307238877	1154.40002441406
1575.74578729789	1154
1576.36842087885	1147
1576.99097313912	1153.80004882813
1577.61344408616	1145.59997558594
1578.23583372745	1149.19995117188
1578.85814207046	1150
1579.48036912264	1146.80004882813
1580.10251489147	1146.19995117188
1580.72457938441	1141.19995117188
1581.34656260893	1140
1581.9684645725	1138.19995117188
1582.59028528258	1128.80004882813
1583.21202474663	1135.80004882813
1583.83368297212	1125.40002441406
1584.45525996652	1126.40002441406
1585.07675573728	1134.80004882813
1585.69817029188	1128.59997558594
1586.31950363778	1134.59997558594
1586.94075578243	1128.19995117188
1587.5619267333	1129.59997558594
1588.18301649786	1123.19995117188
1588.80402508357	1127.19995117188
1589.42495249788	1125
1590.04579874826	1132.19995117188
1590.66656384217	1128.40002441406
1591.28724778707	1122.19995117188
1591.90785059042	1124.80004882813
1592.52837225968	1124.19995117188
1593.14881280232	1135.80004882813
1593.76917222578	1132
1594.38945053753	1129.80004882813
1595.00964774502	1134
1595.62976385573	1134.40002441406
1596.24979887709	1136.40002441406
1596.86975281657	1130
1597.48962568164	1137.59997558594
1598.10941747974	1137.80004882813
1598.72912821832	1137.19995117188
1599.34875790486	1136.59997558594
1599.9683065468	1129.59997558594
1600.58777415159	1138.19995117188
1601.2071607267	1135.80004882813
1601.82646627958	1126.80004882813
1602.44569081769	1117.19995117188
1603.06483434846	1113
1603.68389687937	1110.40002441406
1604.30287841786	1119
1604.92177897139	1121
1605.54059854741	1116.59997558594
1606.15933715337	1116.59997558594
1606.77799479672	1123.80004882813
1607.39657148492	1127.19995117188
1608.01506722542	1116.59997558594
1608.63348202566	1121.59997558594
1609.2518158931	1121.80004882813
1609.87006883519	1119.19995117188
1610.48824085939	1116.19995117188
1611.10633197312	1120.80004882813
1611.72434218386	1129
1612.34227149904	1129.59997558594
1612.96011992612	1127.80004882813
1613.57788747254	1124
1614.19557414575	1131.19995117188
1614.8131799532	1114.40002441406
1615.43070490234	1131.80004882813
1616.04814900061	1121.59997558594
1616.66551225545	1128
1617.28279467433	1130.80004882813
1617.89999626467	1135.19995117188
1618.51711703393	1128
1619.13415698955	1125.40002441406
1619.75111613898	1125.80004882813
1620.36799448966	1122.19995117188
1620.98479204903	1119.40002441406
1621.60150882455	1124.59997558594
1622.21814482364	1120
1622.83470005376	1126.19995117188
1623.45117452235	1132.40002441406
1624.06756823685	1124.40002441406
1624.6838812047	1130
1625.30011343335	1129.40002441406
1625.91626493022	1126.40002441406
1626.53233570278	1124
1627.14832575845	1117.19995117188
1627.76423510468	1114.40002441406
1628.38006374891	1111.19995117188
1628.99581169857	1124.80004882813
1629.61147896111	1110.19995117188
1630.22706554397	1115.40002441406
1630.84257145457	1114.59997558594
1631.45799670038	1111.19995117188
1632.07334128881	1111.59997558594
1632.6886052273	1110.80004882813
1633.3037885233	1114.80004882813
1633.91889118425	1109.80004882813
1634.53391321757	1102.80004882813
1635.1488546307	1107
1635.76371543108	1102.40002441406
1636.37849562616	1098
1636.99319522335	1104
1637.60781423009	1102
1638.22235265383	1105
1638.83681050198	1110.19995117188
1639.451187782	1106.80004882813
1640.0654845013	1113.40002441406
1640.67970066734	1119.19995117188
1641.29383628752	1110.80004882813
1641.9078913693	1101.80004882813
1642.5218659201	1109.19995117188
1643.13575994735	1111.59997558594
1643.74957345849	1107
1644.36330646094	1111
1644.97695896213	1101
1645.59053096951	1111.59997558594
1646.20402249049	1107.19995117188
1646.8174335325	1116.19995117188
1647.43076410298	1120
1648.04401420935	1124
1648.65718385905	1127
1649.2702730595	1126.40002441406
1649.88328181812	1125.80004882813
1650.49621014236	1123.19995117188
1651.10905803963	1123.19995117188
1651.72182551735	1129.80004882813
1652.33451258297	1124.19995117188
1652.9471192439	1119.59997558594
1653.55964550757	1120
1654.1720913814	1122.40002441406
1654.78445687283	1116.59997558594
1655.39674198926	1115
1656.00894673814	1114.40002441406
1656.62107112688	1114.80004882813
1657.23311516291	1108.80004882813
1657.84507885365	1093.80004882813
1658.45696220652	1091.80004882813
1659.06876522895	1093.80004882813
1659.68048792835	1092.19995117188
1660.29213031217	1085
1660.90369238779	1081.40002441406
1661.51517416267	1083
1662.12657564421	1072.80004882813
1662.73789683984	1070.80004882813
1663.34913775697	1068
1663.96029840303	1065.80004882813
1664.57137878544	1065.80004882813
1665.18237891161	1063.80004882813
1665.79329878897	1069.59997558594
1666.40413842493	1064
1667.01489782691	1062.59997558594
1667.62557700233	1065
1668.2361759586	1062.59997558594
1668.84669470315	1058.40002441406
1669.4571332434	1064.59997558594
1670.06749158675	1070.80004882813
1670.67776974062	1070.80004882813
1671.28796771243	1067
1671.8980855096	1062.59997558594
1672.50812313954	1058.19995117188
1673.11808060967	1067.80004882813
1673.72795792739	1057.59997558594
1674.33775510013	1058.59997558594
1674.9474721353	1073.40002441406
1675.55710904031	1070.59997558594
1676.16666582257	1068.59997558594
1676.7761424895	1067
1677.38553904851	1073.40002441406
1677.99485550702	1069.80004882813
1678.60409187243	1071.40002441406
1679.21324815215	1061.59997558594
1679.8223243536	1063.80004882813
1680.43132048419	1062.40002441406
1681.04023655132	1068
1681.64907256241	1067
1682.25782852487	1060.59997558594
1682.86650444611	1059.80004882813
1683.47510033353	1068
1684.08361619455	1063.80004882813
1684.69205203657	1053.40002441406
1685.300407867	1057.19995117188
1685.90868369325	1054.40002441406
1686.51687952272	1046
1687.12499536283	1042.19995117188
1687.73303122098	1041.19995117188
1688.34098710457	1051.19995117188
1688.94886302101	1051
1689.55665897772	1055.59997558594
1690.16437498208	1061.40002441406
1690.77201104152	1057.59997558594
1691.37956716342	1054.19995117188
1691.9870433552	1051.40002441406
1692.59443962426	1052.59997558594
1693.20175597801	1051.40002441406
1693.80899242384	1045.80004882813
1694.41614896916	1056.59997558594
1695.02322562138	1044.40002441406
1695.63022238789	1043.40002441406
1696.23713927609	1054.40002441406
1696.8439762934	1047.40002441406
1697.4507334472	1046.80004882813
1698.05741074491	1051.80004882813
1698.66400819391	1046.59997558594
1699.27052580161	1055
1699.87696357542	1053.59997558594
1700.48332152272	1063.40002441406
1701.08959965092	1053
1701.69579796742	1048.59997558594
1702.30191647962	1050.59997558594
1702.90795519491	1044.40002441406
1703.51391412069	1047.80004882813
1704.11979326437	1043.80004882813
1704.72559263332	1037
1705.33131223496	1040
1705.93695207668	1035.80004882813
1706.54251216588	1037.19995117188
1707.14799250994	1034
1707.75339311628	1032.59997558594
1708.35871399227	1037.40002441406
1708.96395514532	1033
1709.56911658282	1033.59997558594
