634.948122577771	1054.80004882813
635.690341530823	1052.40002441406
636.43246851086	1046
637.174503525845	1046
637.916446583745	1050.19995117188
638.658297692538	1050
639.400056860179	1052.59997558594
640.141724094637	1052.59997558594
640.883299403885	1063.19995117188
641.62478279588	1058.59997558594
642.366174278594	1045
643.107473859989	1046.59997558594
643.848681548029	1047.40002441406
644.589797350679	1040.19995117188
645.330821275901	1046.59997558594
646.071753331665	1046.59997558594
646.812593525922	1043.40002441406
647.553341866646	1050.80004882813
648.293998361798	1045.80004882813
649.03456301933	1055.19995117188
649.775035847216	1055
650.515416853409	1057.80004882813
651.255706045874	1050.80004882813
651.995903432568	1055
652.736009021453	1056
653.476022820486	1052.19995117188
654.215944837629	1054
654.955775080842	1058.40002441406
655.695513558081	1061.40002441406
656.435160277301	1059.80004882813
657.174715246465	1064.40002441406
657.914178473527	1069.40002441406
658.653549966449	1062.59997558594
659.392829733176	1063.19995117188
660.132017781678	1067
660.871114119901	1063.40002441406
661.610118755803	1062.40002441406
662.349031697343	1062.80004882813
663.087852952468	1065.19995117188
663.826582529139	1062.59997558594
664.565220435305	1063.80004882813
665.30376667892	1062
666.04222126794	1060.19995117188
666.780584210316	1055.19995117188
667.518855514	1056.19995117188
668.25703518694	1058.40002441406
668.995123237096	1059.40002441406
669.733119672413	1058.59997558594
670.471024500842	1060.40002441406
671.208837730333	1067
671.946559368839	1064.19995117188
672.684189424308	1064.59997558594
673.421727904689	1068
674.159174817929	1061.40002441406
674.896530171977	1063.59997558594
675.633793974786	1063
676.370966234295	1058.40002441406
677.108046958461	1054.80004882813
677.845036155219	1052.19995117188
678.581933832528	1064.80004882813
679.318739998323	1061.59997558594
680.055454660558	1061
680.792077827172	1066
681.528609506116	1060.80004882813
682.265049705331	1054.80004882813
683.001398432759	1060.59997558594
683.737655696349	1064.59997558594
684.47382150404	1071.19995117188
685.20989586378	1071
685.945878783503	1064.80004882813
686.68177027116	1053.59997558594
687.417570334688	1056.19995117188
688.153278982032	1058.40002441406
688.888896221129	1058.59997558594
689.624422059921	1061.80004882813
690.359856506349	1067.80004882813
691.095199568354	1062
691.830451253874	1062
692.565611570844	1061.80004882813
693.300680527212	1062.40002441406
694.03565813091	1062.59997558594
694.770544389877	1057.40002441406
695.505339312053	1065
696.240042905372	1072.40002441406
696.974655177772	1061
697.70917613719	1067.80004882813
698.443605791561	1059.19995117188
699.177944148826	1066.80004882813
699.912191216909	1062
700.646347003755	1062.40002441406
701.380411517295	1064.40002441406
702.114384765465	1053
702.848266756195	1051.59997558594
703.582057497421	1055.80004882813
704.315756997074	1059.59997558594
705.049365263089	1059.19995117188
705.782882303399	1062
706.516308125936	1063
707.249642738626	1062.59997558594
707.982886149403	1065.40002441406
708.716038366204	1055.40002441406
709.449099396949	1064.19995117188
710.182069249577	1059
710.914947932009	1063.40002441406
711.647735452181	1058.40002441406
712.380431818022	1063.19995117188
713.113037037454	1065.80004882813
713.845551118411	1066.40002441406
714.577974068818	1063.19995117188
715.310305896604	1068.80004882813
716.042546609694	1069
716.774696216013	1067.80004882813
717.506754723493	1062
718.238722140053	1064.80004882813
718.970598473624	1062.19995117188
719.702383732127	1071.19995117188
720.43407792349	1067
721.165681055634	1069
721.897193136486	1072.80004882813
722.628614173966	1072.59997558594
723.359944175997	1071.40002441406
724.091183150505	1070.59997558594
724.822331105412	1064
725.553388048638	1059.80004882813
726.284353988106	1066.40002441406
727.015228931734	1061.80004882813
727.746012887449	1068.59997558594
728.476705863162	1069.80004882813
729.207307866803	1067.19995117188
729.937818906289	1063.59997558594
730.668238989535	1060.80004882813
731.398568124459	1068
732.128806318986	1069.40002441406
732.858953581034	1064.19995117188
733.589009918514	1068.40002441406
734.318975339348	1068.19995117188
735.048849851452	1064.40002441406
735.778633462744	1074.40002441406
736.508326181137	1068.80004882813
737.237928014549	1068.19995117188
737.967438970897	1074.40002441406
738.696859058095	1072.19995117188
739.426188284054	1061.59997558594
740.155426656692	1070.19995117188
740.884574183922	1061.59997558594
741.613630873659	1063.19995117188
742.342596733815	1060
743.071471772302	1056.40002441406
743.800255997034	1061.19995117188
744.528949415921	1066
745.257552036877	1070.59997558594
745.986063867811	1065.80004882813
746.714484916638	1073
747.442815191261	1071
748.171054699597	1062
748.899203449554	1066.59997558594
749.627261449039	1067.19995117188
750.355228705966	1066.40002441406
751.083105228239	1066.80004882813
751.810891023765	1071.80004882813
752.538586100459	1074.40002441406
753.266190466218	1077.19995117188
753.99370412896	1071.59997558594
754.721127096582	1067.40002441406
755.448459377	1068.19995117188
756.175700978114	1064.80004882813
756.902851907828	1070.59997558594
757.629912174055	1071.19995117188
758.356881784688	1072
759.083760747639	1060.40002441406
759.810549070817	1063.80004882813
760.537246762113	1068.19995117188
761.263853829442	1075
761.990370280698	1075.80004882813
762.716796123791	1067
763.443131366618	1070.19995117188
764.169376017082	1073.19995117188
764.895530083085	1081.40002441406
765.621593572527	1085.19995117188
766.347566493312	1085.19995117188
767.073448853336	1087.59997558594
767.799240660502	1084.80004882813
768.524941922707	1084.59997558594
769.250552647854	1090.40002441406
769.976072843836	1096.40002441406
770.701502518551	1096.19995117188
771.426841679905	1101.40002441406
772.152090335793	1098
772.877248494107	1096.19995117188
773.602316162747	1101.59997558594
774.327293349609	1098.80004882813
775.052180062592	1099.59997558594
775.776976309589	1102
776.501682098496	1106.80004882813
777.226297437206	1098.40002441406
777.950822333616	1090.59997558594
778.675256795621	1085.80004882813
779.399600831111	1087.59997558594
780.123854447983	1087
780.84801765413	1084.19995117188
781.572090457441	1085.80004882813
782.296072865811	1076
783.019964887131	1081.40002441406
783.743766529297	1074.40002441406
784.467477800194	1087.59997558594
785.191098707719	1084.19995117188
785.914629259756	1074
786.638069464194	1074.19995117188
787.361419328932	1069.80004882813
788.084678861852	1064.19995117188
788.807848070845	1069.40002441406
789.530926963798	1075.80004882813
790.253915548602	1070.80004882813
790.976813833144	1070.19995117188
791.699621825307	1071.40002441406
792.422339532986	1066.80004882813
793.144966964061	1070.19995117188
793.86750412642	1069.40002441406
794.589951027946	1073
795.312307676536	1069.59997558594
796.03457408006	1065.80004882813
796.756750246417	1073.19995117188
797.478836183477	1070.59997558594
798.200831899137	1070.59997558594
798.92273740127	1074.19995117188
799.644552697769	1066.19995117188
800.36627779651	1059.40002441406
801.087912705374	1071
801.809457432251	1074.59997558594
802.530911985017	1075.19995117188
803.252276371558	1074
803.973550599748	1075
804.694734677472	1075.80004882813
805.415828612611	1067
806.136832413045	1064.80004882813
806.857746086646	1068.40002441406
807.578569641305	1065
808.299303084892	1066.80004882813
809.019946425289	1066.40002441406
809.740499670372	1060.80004882813
810.460962828022	1062.80004882813
811.181335906114	1070
811.901618912524	1071.19995117188
812.621811855131	1073
813.341914741809	1069
814.061927580433	1071.19995117188
814.781850378881	1077.40002441406
815.501683145025	1072.59997558594
816.221425886743	1070
816.941078611903	1075.80004882813
817.660641328387	1071.40002441406
818.380114044065	1071.19995117188
819.099496766808	1076.40002441406
819.818789504492	1073.19995117188
820.53799226499	1072.80004882813
821.257105056168	1075.59997558594
821.976127885904	1075.19995117188
822.695060762064	1070.19995117188
823.413903692525	1066
824.132656685151	1065.40002441406
824.851319747817	1062.59997558594
825.569892888388	1068.19995117188
826.288376114739	1066
827.006769434737	1058.59997558594
827.725072856249	1066
828.443286387142	1069.59997558594
829.161410035285	1061.59997558594
829.87944380855	1068.59997558594
830.597387714798	1068
831.315241761898	1067.80004882813
832.033005957715	1064.19995117188
832.750680310119	1075.19995117188
833.468264826969	1068
834.18575951614	1058
834.903164385486	1068.40002441406
835.620479442878	1066.40002441406
836.337704696181	1069.19995117188
837.054840153255	1072
837.771885821962	1076.40002441406
838.488841710172	1075.19995117188
839.20570782574	1069.59997558594
839.922484176531	1071.59997558594
840.639170770409	1071.80004882813
841.355767615231	1072.80004882813
842.072274718864	1074.19995117188
842.788692089164	1073.80004882813
843.505019733993	1068.19995117188
844.221257661209	1072.59997558594
844.937405878676	1061.59997558594
845.65346439425	1064.59997558594
846.369433215789	1069.59997558594
847.085312351156	1053.19995117188
847.801101808205	1067.40002441406
848.516801594793	1058.80004882813
849.232411718781	1069.80004882813
849.947932188021	1059.19995117188
850.663363010376	1068.59997558594
851.378704193698	1062
852.093955745842	1064.40002441406
852.809117674669	1060.80004882813
853.524189988028	1063.40002441406
854.239172693778	1067.40002441406
854.954065799768	1062.40002441406
855.668869313857	1061.40002441406
856.383583243899	1066.40002441406
857.098207597743	1071.40002441406
857.812742383246	1069.80004882813
858.527187608255	1069.59997558594
859.241543280628	1059.59997558594
859.955809408218	1056.19995117188
860.669985998868	1063.40002441406
861.384073060437	1065
862.098070600772	1064.59997558594
862.811978627724	1067.19995117188
863.52579714914	1066.19995117188
864.239526172873	1068.80004882813
864.953165706776	1072.80004882813
865.666715758687	1077.40002441406
866.380176336464	1064.59997558594
867.093547447951	1066.80004882813
867.806829100996	1070.80004882813
868.520021303444	1066.19995117188
869.233124063149	1066.19995117188
869.94613738795	1064.59997558594
870.659061285693	1059.19995117188
871.37189576423	1067.80004882813
872.084640831403	1070
872.797296495057	1076.19995117188
873.509862763039	1066
874.22233964319	1060.80004882813
874.934727143353	1060.19995117188
875.647025271374	1053.80004882813
876.359234035097	1056.19995117188
877.071353442361	1057.40002441406
877.783383501015	1067.59997558594
878.495324218895	1060.19995117188
879.207175603844	1061.40002441406
879.918937663705	1070.80004882813
880.630610406318	1070.80004882813
881.342193839524	1067.80004882813
882.053687971161	1069.59997558594
882.765092809069	1073.40002441406
883.476408361091	1081.19995117188
884.187634635066	1075.40002441406
884.898771638828	1077.80004882813
885.609819380221	1073.40002441406
886.320777867076	1077.59997558594
887.031647107236	1074.40002441406
887.742427108536	1077.19995117188
888.453117878816	1066.19995117188
889.16371942591	1072.19995117188
889.874231757652	1061.40002441406
890.584654881883	1063.19995117188
891.294988806434	1068.80004882813
892.005233539141	1053.59997558594
892.715389087837	1056.40002441406
893.42545546036	1060.59997558594
894.135432664543	1053.59997558594
894.845320708216	1061.19995117188
895.555119599216	1065.80004882813
896.264829345375	1068.40002441406
896.974449954526	1074.80004882813
897.683981434496	1071
898.393423793125	1071.40002441406
899.102777038235	1068.80004882813
899.812041177664	1078
900.521216219239	1071
901.230302170793	1071.19995117188
901.939299040155	1075.40002441406
902.64820683515	1071.19995117188
903.357025563612	1072.59997558594
904.065755233368	1066.80004882813
904.774395852247	1066
905.482947428076	1074.19995117188
906.191409968682	1073.59997558594
906.899783481897	1068
907.608067975538	1070.40002441406
908.316263457443	1067.80004882813
909.02436993543	1071
909.732387417327	1076.59997558594
910.440315910959	1073.40002441406
911.148155424154	1078
911.855905964731	1081
912.563567540521	1073
913.271140159339	1071.19995117188
913.978623829017	1073.80004882813
914.686018557374	1071.40002441406
915.393324352237	1063.80004882813
916.100541221421	1067.19995117188
916.807669172752	1065
917.514708214054	1066.59997558594
918.221658353142	1081.40002441406
918.928519597843	1071.59997558594
919.635291955976	1076
920.341975435358	1063.59997558594
921.048570043813	1069
921.75507578916	1069.59997558594
922.461492679212	1066.80004882813
923.167820721795	1062.19995117188
923.874059924726	1065
924.58021029582	1064.59997558594
925.286271842893	1068.80004882813
925.992244573769	1061.59997558594
926.698128496262	1066
927.403923618184	1071.80004882813
928.109629947355	1074.59997558594
928.815247491593	1074.59997558594
929.520776258708	1072
930.226216256519	1068.19995117188
930.931567492841	1068.40002441406
931.636829975482	1062.59997558594
932.342003712263	1069.80004882813
933.047088710995	1066.19995117188
933.752084979491	1071.19995117188
934.456992525564	1062.80004882813
935.161811357024	1071
935.866541481688	1065.40002441406
936.571182907363	1064.59997558594
937.275735641861	1073.19995117188
937.980199692995	1072.40002441406
938.684575068572	1065.19995117188
939.388861776411	1060.59997558594
940.093059824311	1067.80004882813
940.797169220085	1068.59997558594
941.501189971544	1069
942.205122086495	1067.19995117188
942.908965572751	1074.59997558594
943.612720438111	1068.59997558594
944.316386690391	1072.40002441406
945.019964337391	1071.59997558594
945.723453386924	1072.19995117188
946.426853846795	1068.59997558594
947.130165724808	1066.80004882813
947.83338902877	1059.40002441406
948.536523766488	1063
949.239569945764	1065.80004882813
949.942527574402	1068.19995117188
950.64539666021	1056.19995117188
951.348177210993	1061
952.050869234548	1065.59997558594
952.753472738683	1067
953.455987731199	1070.59997558594
954.158414219898	1071.59997558594
954.860752212587	1080.80004882813
955.563001717061	1074
956.265162741124	1071.59997558594
956.967235292576	1072
957.669219379224	1064
958.371115008857	1061.59997558594
959.072922189283	1069
959.774640928301	1061.40002441406
960.476271233708	1057.19995117188
961.177813113301	1063.40002441406
961.879266574882	1060.40002441406
962.580631626248	1064
963.281908275194	1065
963.98309652952	1065.40002441406
964.684196397022	1058.19995117188
965.3852078855	1062
966.086131002745	1056
966.786965756555	1061.40002441406
967.487712154726	1057.59997558594
968.188370205055	1061
968.888939915331	1064
969.589421293352	1060.59997558594
970.289814346909	1053.40002441406
970.990119083801	1051.40002441406
971.690335511819	1058.19995117188
972.39046363875	1057.59997558594
973.090503472398	1057.40002441406
973.790455020545	1062.19995117188
974.490318290987	1060.40002441406
975.190093291516	1056.19995117188
975.889780029923	1057.59997558594
976.589378513998	1056.80004882813
977.288888751527	1059
977.988310750308	1065.80004882813
978.687644518122	1061.59997558594
979.386890062767	1066.40002441406
980.086047392025	1061
980.785116513689	1062
981.484097435542	1055.19995117188
982.182990165377	1060.19995117188
982.88179471098	1071.40002441406
983.580511080137	1065.19995117188
984.279139280632	1063
984.977679320253	1062.80004882813
985.67613120679	1062.80004882813
986.374494948027	1061.40002441406
987.072770551745	1062
987.770958025731	1067.40002441406
988.469057377772	1063.40002441406
989.167068615649	1065.40002441406
989.864991747145	1058.59997558594
990.562826780047	1061
991.260573722134	1058.40002441406
991.958232581195	1054.40002441406
992.655803365003	1057.19995117188
993.353286081346	1055.59997558594
994.050680738006	1054.59997558594
994.74798734276	1054.80004882813
995.44520590339	1059.80004882813
996.142336427681	1064.19995117188
996.839378923407	1060.40002441406
997.536333398348	1056.19995117188
998.233199860289	1063.40002441406
998.929978317004	1065.19995117188
999.626668776274	1064.59997558594
1000.32327124587	1063.19995117188
1001.01978573359	1055
1001.71621224718	1050.59997558594
1002.41255079445	1053.59997558594
1003.10880138315	1057.19995117188
1003.80496402107	1053.19995117188
1004.50103871599	1064.59997558594
1005.19702547567	1060
1005.8929243079	1064.19995117188
1006.58873522045	1065
1007.2844582211	1059.40002441406
1007.98009331761	1058
1008.67564051776	1057
1009.37109982933	1054
1010.06647126009	1063
1010.7617548178	1055.59997558594
1011.45695051026	1060.19995117188
1012.15205834522	1066.59997558594
1012.84707833045	1064.59997558594
1013.54201047373	1061.40002441406
1014.23685478284	1064.40002441406
1014.93161126553	1057.80004882813
1015.62627992959	1058.80004882813
1016.32086078277	1049.40002441406
1017.01535383285	1051.80004882813
1017.70975908761	1058.19995117188
1018.40407655479	1052.80004882813
1019.09830624219	1059.40002441406
1019.79244815755	1050.40002441406
1020.48650230866	1059.19995117188
1021.18046870328	1058.59997558594
1021.87434734917	1055.59997558594
1022.56813825411	1053
1023.26184142584	1058.80004882813
1023.95545687216	1058.59997558594
1024.64898460082	1060.19995117188
1025.34242461957	1057.80004882813
1026.0357769362	1055.59997558594
1026.72904155846	1058
1027.42221849412	1059.80004882813
1028.11530775094	1057.19995117188
1028.80830933668	1052.40002441406
1029.50122325911	1059.19995117188
1030.19404952599	1058
1030.88678814508	1060.80004882813
1031.57943912414	1057.40002441406
1032.27200247093	1053.80004882813
1032.96447819323	1054
1033.65686629878	1060.19995117188
1034.34916679534	1060
1035.04137969068	1059.59997558594
1035.73350499256	1061.80004882813
1036.42554270874	1057.19995117188
1037.11749284697	1069.59997558594
1037.80935541501	1058.40002441406
1038.50113042062	1065
1039.19281787156	1063.80004882813
1039.88441777559	1065.40002441406
1040.57593014046	1061.80004882813
1041.26735497393	1061
1041.95869228376	1063.59997558594
1042.6499420777	1056.40002441406
1043.3411043635	1055.40002441406
1044.03217914893	1054.19995117188
1044.72316644174	1057.19995117188
1045.41406624968	1061.80004882813
1046.1048785805	1061.19995117188
1046.79560344197	1059.59997558594
1047.48624084182	1061.40002441406
1048.17679078783	1061.40002441406
1048.86725328774	1065.19995117188
1049.55762834929	1056.40002441406
1050.24791598025	1059.80004882813
1050.93811618837	1053.59997558594
1051.62822898139	1046.19995117188
1052.31825436707	1055.40002441406
1053.00819235315	1051.59997558594
1053.6980429474	1055.19995117188
1054.38780615755	1062.40002441406
1055.07748199136	1056.40002441406
1055.76707045658	1052.19995117188
1056.45657156095	1063.59997558594
1057.14598531222	1060.19995117188
1057.83531171814	1062.59997558594
1058.52455078646	1064.19995117188
1059.21370252494	1059.59997558594
1059.90276694129	1062.19995117188
1060.5917440433	1054
1061.28063383868	1054.80004882813
1061.9694363352	1050.59997558594
1062.65815154059	1054
1063.34677946261	1052.40002441406
1064.03532010899	1051.19995117188
1064.72377348748	1053.59997558594
1065.41213960583	1062
1066.10041847177	1061.19995117188
1066.78861009306	1056.19995117188
1067.47671447743	1058.19995117188
1068.16473163263	1064
1068.85266156639	1056.80004882813
1069.54050428647	1065.40002441406
1070.2282598006	1057.19995117188
1070.91592811652	1057.59997558594
1071.60350924198	1059.40002441406
1072.29100318471	1061.80004882813
1072.97840995245	1053
1073.66572955295	1056
1074.35296199394	1053
1075.04010728316	1053.40002441406
1075.72716542836	1053.40002441406
1076.41413643726	1057.80004882813
1077.10102031761	1063.59997558594
1077.78781707715	1068.59997558594
1078.4745267236	1067
1079.16114926471	1067.59997558594
1079.84768470822	1061
1080.53413306185	1059
1081.22049433336	1062.59997558594
1081.90676853046	1049.19995117188
1082.5929556609	1053
1083.27905573241	1048.19995117188
1083.96506875272	1049.59997558594
1084.65099472957	1056.59997558594
1085.3368336707	1057.19995117188
1086.02258558383	1054
1086.70825047669	1056.80004882813
1087.39382835703	1053.80004882813
1088.07931923257	1056.59997558594
1088.76472311104	1053.19995117188
1089.45004000018	1062
1090.13526990771	1057.19995117188
1090.82041284137	1058
1091.50546880889	1055
1092.19043781799	1052
1092.87531987642	1053.40002441406
1093.56011499188	1053.59997558594
1094.24482317212	1052
1094.92944442486	1055
1095.61397875783	1056.40002441406
1096.29842617876	1058
1096.98278669537	1058.40002441406
1097.6670603154	1058.80004882813
1098.35124704656	1059.59997558594
1099.03534689659	1051.59997558594
1099.71935987322	1055.80004882813
1100.40328598416	1051
1101.08712523713	1049.19995117188
1101.77087763988	1047.59997558594
1102.45454320012	1051
1103.13812192557	1044
1103.82161382396	1050.59997558594
1104.50501890301	1052.59997558594
1105.18833717045	1050.40002441406
1105.87156863399	1048.59997558594
1106.55471330137	1057.19995117188
1107.2377711803	1050.19995117188
1107.9207422785	1060
1108.60362660369	1054.59997558594
1109.2864241636	1047.59997558594
1109.96913496594	1049.59997558594
1110.65175901844	1050.40002441406
1111.33429632882	1055.80004882813
1112.01674690479	1056.59997558594
1112.69911075408	1064.40002441406
1113.38138788439	1065.40002441406
1114.06357830346	1062.19995117188
1114.745682019	1060.80004882813
1115.42769903872	1063.80004882813
1116.10962937035	1066.19995117188
1116.7914730216	1060.80004882813
1117.47323000018	1063
1118.15490031382	1064
1118.83648397022	1063.59997558594
1119.51798097712	1056.19995117188
1120.1993913422	1058.19995117188
1120.88071507321	1057
1121.56195217784	1055.19995117188
1122.24310266381	1054.40002441406
1122.92416653884	1055.80004882813
1123.60514381064	1053
1124.28603448692	1055.40002441406
1124.9668385754	1051.40002441406
1125.64755608378	1057.40002441406
1126.32818701978	1057
1127.00873139111	1058.80004882813
1127.68918920548	1062
1128.3695604706	1055.19995117188
1129.04984519419	1070
1129.73004338394	1062
1130.41015504758	1058.19995117188
1131.09018019281	1056.19995117188
1131.77011882734	1058.59997558594
1132.44997095888	1050.80004882813
1133.12973659514	1054.80004882813
1133.80941574381	1057.19995117188
1134.48900841263	1056.40002441406
1135.16851460927	1054
1135.84793434147	1056
1136.52726761692	1056.19995117188
1137.20651444333	1051.80004882813
1137.8856748284	1059.59997558594
1138.56474877984	1059.59997558594
1139.24373630536	1060
1139.92263741265	1063.80004882813
1140.60145210943	1059.19995117188
1141.28018040339	1055
1141.95882230225	1055.19995117188
1142.6373778137	1057.19995117188
1143.31584694545	1064.80004882813
1143.99422970519	1059.19995117188
1144.67252610064	1067.40002441406
1145.35073613949	1059.19995117188
1146.02885982944	1052.19995117188
1146.7068971782	1055.40002441406
1147.38484819347	1060
1148.06271288294	1059.80004882813
1148.74049125432	1052.59997558594
1149.41818331531	1058.40002441406
1150.0957890736	1058
1150.77330853689	1060.19995117188
1151.45074171289	1053.80004882813
1152.12808860928	1058.59997558594
1152.80534923378	1060.59997558594
1153.48252359407	1063.80004882813
1154.15961169786	1062.59997558594
1154.83661355283	1046
1155.51352916669	1054.40002441406
1156.19035854713	1046.59997558594
1156.86710170185	1050.80004882813
1157.54375863855	1051.59997558594
1158.22032936491	1057.80004882813
1158.89681388863	1059.40002441406
1159.57321221741	1059.59997558594
1160.24952435894	1059.40002441406
1160.92575032092	1063.19995117188
1161.60189011103	1056.59997558594
1162.27794373697	1057
1162.95391120644	1056.59997558594
1163.62979252712	1060.59997558594
1164.3055877067	1054
1164.98129675288	1055.40002441406
1165.65691967336	1055.59997558594
1166.33245647581	1051.80004882813
1167.00790716792	1054.40002441406
1167.6832717574	1061.59997558594
1168.35855025193	1064.59997558594
1169.0337426592	1059.80004882813
1169.70884898689	1058
1170.3838692427	1054.40002441406
1171.05880343431	1061
1171.73365156941	1062
1172.40841365569	1053.40002441406
1173.08308970083	1058.80004882813
1173.75767971253	1058.19995117188
1174.43218369847	1067.19995117188
1175.10660166633	1064.40002441406
1175.7809336238	1065
1176.45517957857	1073.80004882813
1177.12933953832	1071.80004882813
1177.80341351073	1070.80004882813
1178.47740150349	1068.59997558594
1179.15130352429	1069
1179.8251195808	1069.40002441406
1180.49884968071	1064.40002441406
1181.1724938317	1065.80004882813
1181.84605204145	1065.40002441406
1182.51952431766	1070.80004882813
1183.19291066799	1075.80004882813
1183.86621110013	1066.40002441406
1184.53942562176	1070
1185.21255424057	1068.19995117188
1185.88559696422	1075
1186.55855380041	1067.80004882813
1187.2314247568	1069.59997558594
1187.90420984109	1066.40002441406
1188.57690906095	1074.40002441406
1189.24952242405	1070.80004882813
1189.92204993808	1073.19995117188
1190.59449161071	1071.80004882813
1191.26684744962	1074.59997558594
1191.93911746249	1066.80004882813
1192.61130165699	1070.40002441406
1193.28340004081	1068.80004882813
1193.95541262161	1064.40002441406
1194.62733940707	1064.80004882813
1195.29918040487	1064.40002441406
1195.97093562269	1068.59997558594
1196.64260506819	1065.59997558594
1197.31418874905	1071.80004882813
1197.98568667295	1064.40002441406
1198.65709884755	1067.59997558594
1199.32842528053	1064.19995117188
1199.99966597957	1068.59997558594
1200.67082095234	1058.80004882813
1201.3418902065	1063.59997558594
1202.01287374974	1060.40002441406
1202.68377158971	1059.40002441406
1203.3545837341	1065.19995117188
1204.02531019057	1057.80004882813
1204.6959509668	1053.19995117188
1205.36650607045	1047.19995117188
1206.03697550919	1050.59997558594
1206.70735929069	1052.40002441406
1207.37765742263	1056
1208.04786991266	1045.59997558594
1208.71799676846	1056.80004882813
1209.38803799769	1057.19995117188
1210.05799360803	1048.19995117188
1210.72786360714	1044.80004882813
1211.39764800268	1050.59997558594
1212.06734680233	1053
1212.73696001375	1053.59997558594
1213.4064876446	1057.40002441406
1214.07592970255	1054.80004882813
1214.74528619526	1055.80004882813
1215.4145571304	1057.19995117188
1216.08374251564	1054.59997558594
1216.75284235863	1047.80004882813
1217.42185666704	1052.19995117188
1218.09078544854	1055.59997558594
1218.75962871078	1060.40002441406
1219.42838646143	1049.80004882813
1220.09705870816	1053.19995117188
1220.76564545861	1055
1221.43414672046	1052.59997558594
1222.10256250136	1051.19995117188
1222.77089280898	1052.19995117188
1223.43913765098	1058.19995117188
1224.107297035	1058
1224.77537096873	1052.59997558594
1225.44335945981	1059.80004882813
1226.1112625159	1052.40002441406
1226.77908014467	1053.19995117188
1227.44681235376	1055.19995117188
1228.11445915085	1052.59997558594
1228.78202054357	1056.80004882813
1229.44949653961	1061
1230.11688714659	1054.19995117188
1230.7841923722	1046.19995117188
1231.45141222407	1043
1232.11854670988	1042
1232.78559583726	1041.59997558594
1233.45255961388	1052.80004882813
1234.1194380474	1053.80004882813
1234.78623114546	1055.80004882813
1235.45293891572	1055.19995117188
1236.11956136583	1044.80004882813
1236.78609850345	1052.19995117188
1237.45255033623	1048.40002441406
1238.11891687182	1050.80004882813
1238.78519811788	1050.59997558594
1239.45139408205	1047.40002441406
1240.11750477198	1055
1240.78353019534	1052
1241.44947035976	1050
1242.11532527291	1049.19995117188
1242.78109494242	1049
1243.44677937595	1044
1244.11237858115	1042.59997558594
1244.77789256567	1044.40002441406
1245.44332133715	1045.40002441406
1246.10866490325	1050.40002441406
1246.7739232716	1046.80004882813
1247.43909644987	1045.80004882813
1248.10418444569	1054.59997558594
1248.76918726671	1048.40002441406
1249.43410492059	1048
1250.09893741496	1054.40002441406
1250.76368475747	1053
1251.42834695576	1051.59997558594
1252.09292401749	1058.80004882813
1252.75741595029	1048.80004882813
1253.42182276182	1049
1254.08614445971	1047.80004882813
1254.75038105161	1055.19995117188
1255.41453254515	1054.40002441406
1256.07859894799	1051.19995117188
1256.74258026777	1044
1257.40647651213	1043.40002441406
1258.0702876887	1045
1258.73401380514	1049
1259.39765486908	1048.40002441406
1260.06121088817	1040
1260.72468187004	1048
1261.38806782233	1051
1262.05136875269	1053.59997558594
1262.71458466875	1056.59997558594
1263.37771557815	1046
1264.04076148854	1051.80004882813
1264.70372240753	1050.19995117188
1265.3665983428	1053.19995117188
1266.02938930195	1045
1266.69209529263	1051.19995117188
1267.35471632249	1051.40002441406
1268.01725239914	1056.80004882813
1268.67970353024	1058.40002441406
1269.34206972342	1052.40002441406
1270.00435098631	1052.59997558594
1270.66654732655	1049.80004882813
1271.32865875177	1054
1271.9906852696	1053
1272.65262688768	1054
1273.31448361365	1054
1273.97625545514	1052.59997558594
1274.63794241978	1047.40002441406
1275.2995445152	1042.80004882813
1275.96106174903	1050
1276.62249412892	1046.40002441406
1277.28384166248	1040.40002441406
1277.94510435735	1047
1278.60628222116	1044.40002441406
1279.26737526155	1042.80004882813
1279.92838348613	1046
1280.58930690255	1039.19995117188
1281.25014551842	1046.40002441406
1281.91089934139	1043.59997558594
1282.57156837907	1041.59997558594
1283.2321526391	1041.40002441406
1283.89265212911	1048.59997558594
1284.55306685671	1046.19995117188
1285.21339682955	1044.19995117188
1285.87364205525	1046.19995117188
1286.53380254142	1050
1287.19387829571	1052.40002441406
1287.85386932573	1049.40002441406
1288.51377563911	1055
1289.17359724348	1053.59997558594
1289.83333414646	1047.80004882813
1290.49298635567	1049.40002441406
1291.15255387874	1055
1291.8120367233	1052.19995117188
1292.47143489696	1056.80004882813
1293.13074840736	1051.59997558594
1293.7899772621	1058.19995117188
1294.44912146882	1052.19995117188
1295.10818103513	1056
1295.76715596866	1052.59997558594
1296.42604627704	1053.59997558594
1297.08485196787	1047
1297.74357304878	1051.80004882813
1298.4022095274	1053.40002441406
1299.06076141134	1045
1299.71922870821	1057
1300.37761142565	1052
1301.03590957126	1054.80004882813
1301.69412315268	1056.80004882813
1302.3522521775	1066.59997558594
1303.01029665336	1060.59997558594
1303.66825658787	1060.19995117188
1304.32613198865	1064.19995117188
1304.98392286332	1070
1305.64162921948	1060.80004882813
1306.29925106476	1063.59997558594
1306.95678840677	1059.40002441406
1307.61424125312	1061.19995117188
1308.27160961145	1064.40002441406
1308.92889348934	1064.40002441406
1309.58609289443	1061.59997558594
1310.24320783432	1062.19995117188
1310.90023831664	1065.80004882813
1311.55718434898	1058
1312.21404593897	1065.19995117188
1312.87082309421	1059.59997558594
1313.52751582233	1060
1314.18412413092	1061.59997558594
1314.84064802761	1063.19995117188
1315.49708752	1056
1316.1534426157	1059.80004882813
1316.80971332233	1057.59997558594
1317.46589964749	1059
1318.1220015988	1055.19995117188
1318.77801918386	1055.40002441406
1319.43395241028	1068.59997558594
1320.08980128567	1059
1320.74556581764	1063.59997558594
1321.4012460138	1062
1322.05684188176	1060.40002441406
1322.71235342911	1068.59997558594
1323.36778066347	1065.59997558594
1324.02312359245	1065.80004882813
1324.67838222365	1057.80004882813
1325.33355656468	1069.19995117188
1325.98864662314	1071.80004882813
1326.64365240663	1062.59997558594
1327.29857392277	1063
1327.95341117915	1057
1328.60816418339	1056.59997558594
1329.26283294308	1057.80004882813
1329.91741746582	1055.80004882813
1330.57191775923	1057.80004882813
1331.2263338309	1057.80004882813
1331.88066568843	1065.19995117188
1332.53491333943	1059.19995117188
1333.1890767915	1066
1333.84315605224	1058.40002441406
1334.49715112925	1062
1335.15106203013	1066.59997558594
1335.80488876249	1066.40002441406
1336.45863133391	1071.40002441406
1337.112289752	1072.19995117188
1337.76586402437	1069.59997558594
1338.4193541586	1066
1339.0727601623	1057.59997558594
1339.72608204306	1064.40002441406
1340.37931980849	1064.59997558594
1341.03247346617	1068.59997558594
1341.68554302372	1070
1342.33852848871	1061.80004882813
1342.99142986876	1062
1343.64424717145	1060
1344.29698040438	1059.19995117188
1344.94962957515	1061
1345.60219469135	1064.59997558594
1346.25467576058	1067.19995117188
1346.90707279042	1071
1347.55938578848	1072.40002441406
1348.21161476235	1076.19995117188
1348.86375971962	1071
1349.51582066787	1073.59997558594
1350.16779761472	1070
1350.81969056774	1071.80004882813
1351.47149953453	1078.80004882813
1352.12322452269	1074
1352.77486553979	1077.59997558594
1353.42642259344	1081
1354.07789569122	1076
1354.72928484072	1086.80004882813
1355.38059004953	1083.80004882813
1356.03181132525	1077.80004882813
1356.68294867545	1083
1357.33400210773	1089.19995117188
1357.98497162968	1088.59997558594
1358.63585724889	1084.80004882813
1359.28665897294	1084.59997558594
1359.93737680942	1077.40002441406
1360.58801076591	1085
1361.23856085001	1089.19995117188
1361.88902706929	1083
1362.53940943135	1090.80004882813
1363.18970794377	1090.19995117188
1363.83992261413	1085.80004882813
1364.49005345003	1088.19995117188
1365.14010045904	1093.40002441406
1365.79006364874	1086.59997558594
1366.43994302673	1084.80004882813
1367.08973860058	1077.40002441406
1367.73945037788	1073.19995117188
1368.38907836621	1065.40002441406
1369.03862257315	1072.19995117188
1369.68808300629	1064.40002441406
1370.3374596732	1068.19995117188
1370.98675258148	1067
1371.63596173868	1065.40002441406
1372.28508715241	1059.40002441406
1372.93412883024	1054.40002441406
1373.58308677974	1053.59997558594
1374.2319610085	1047.59997558594
1374.8807515241	1046
1375.52945833412	1049
1376.17808144612	1047.59997558594
1376.82662086771	1049.40002441406
1377.47507660644	1050.80004882813
1378.12344866989	1052.59997558594
1378.77173706565	1043.59997558594
1379.41994180129	1047
1380.06806288439	1054.19995117188
1380.71610032252	1048.40002441406
1381.36405412326	1045.40002441406
1382.01192429419	1051.80004882813
1382.65971084287	1049.59997558594
1383.30741377688	1044.40002441406
1383.95503310381	1051.59997558594
1384.60256883121	1045.59997558594
1385.25002096667	1043.59997558594
1385.89738951775	1046.59997558594
1386.54467449204	1049.59997558594
1387.19187589709	1051
1387.8389937405	1051.59997558594
1388.48602802982	1052
1389.13297877262	1048.40002441406
1389.77984597649	1040.80004882813
1390.42662964899	1044
1391.07332979768	1045.59997558594
1391.71994643015	1041.19995117188
1392.36647955395	1037
1393.01292917667	1042.59997558594
1393.65929530586	1039.59997558594
1394.3055779491	1040
1394.95177711395	1039
1395.59789280799	1036.59997558594
1396.24392503877	1039.40002441406
1396.88987381387	1036.40002441406
1397.53573914086	1039.19995117188
1398.1815210273	1042.80004882813
1398.82721948075	1045
1399.47283450878	1037.80004882813
1400.11836611897	1043.19995117188
1400.76381431886	1044
1401.40917911603	1049.80004882813
1402.05446051805	1042.59997558594
1402.69965853247	1048.40002441406
1403.34477316686	1048.40002441406
1403.98980442878	1047.19995117188
1404.6347523258	1045.19995117188
1405.27961686548	1049
1405.92439805538	1039.40002441406
1406.56909590306	1038
1407.21371041608	1043.80004882813
1407.85824160202	1043.80004882813
1408.50268946841	1050.80004882813
1409.14705402284	1044.80004882813
1409.79133527285	1051
1410.43553322601	1053.19995117188
1411.07964788987	1057.80004882813
1411.723679272	1050.19995117188
1412.36762737996	1053
1413.01149222129	1046.80004882813
1413.65527380357	1049.80004882813
1414.29897213435	1041.80004882813
1414.94258722118	1043.19995117188
1415.58611907163	1044
1416.22956769325	1037
1416.87293309359	1044.40002441406
1417.51621528021	1052.40002441406
1418.15941426067	1047.40002441406
1418.80253004253	1058.19995117188
1419.44556263333	1049.80004882813
1420.08851204063	1046.40002441406
1420.731378272	1046.40002441406
1421.37416133497	1038.40002441406
1422.0168612371	1042.40002441406
1422.65947798596	1044.40002441406
1423.30201158908	1039.40002441406
1423.94446205403	1036.19995117188
1424.58682938835	1039.40002441406
1425.2291135996	1039
1425.87131469532	1044.40002441406
1426.51343268308	1048
1427.15546757042	1044
1427.79741936488	1044.40002441406
1428.43928807403	1043.19995117188
1429.0810737054	1039.40002441406
1429.72277626656	1038.80004882813
1430.36439576504	1045.59997558594
1431.00593220841	1046.80004882813
1431.64738560419	1043.59997558594
1432.28875595995	1041.59997558594
1432.93004328324	1044.80004882813
1433.57124758159	1041.59997558594
1434.21236886255	1040.80004882813
1434.85340713368	1043
1435.49436240252	1044.59997558594
1436.13523467661	1050.59997558594
1436.77602396349	1049.80004882813
1437.41673027073	1045
1438.05735360585	1039.40002441406
1438.69789397641	1049.80004882813
1439.33835138994	1050.19995117188
1439.978725854	1050.59997558594
1440.61901737612	1050
1441.25922596385	1046.59997558594
1441.89935162473	1048.59997558594
1442.53939436631	1055.80004882813
1443.17935419612	1052.59997558594
1443.81923112171	1053
1444.45902515061	1051
1445.09873629038	1049
1445.73836454854	1052.19995117188
1446.37790993265	1053
1447.01737245024	1053
1447.65675210885	1060
1448.29604891602	1064.40002441406
1448.93526287928	1044.59997558594
1449.57439400618	1055.19995117188
1450.21344230426	1051
1450.85240778105	1047
1451.49129044409	1047.59997558594
1452.13009030092	1047.19995117188
1452.76880735907	1046.40002441406
1453.40744162608	1057.59997558594
1454.04599310949	1052
1454.68446181683	1041.59997558594
1455.32284775564	1045
1455.96115093345	1048
1456.5993713578	1051.19995117188
1457.23750903623	1047.19995117188
1457.87556397626	1043.40002441406
1458.51353618543	1043.40002441406
1459.15142567127	1045.40002441406
1459.78923244132	1044.19995117188
1460.42695650311	1048.80004882813
1461.06459786417	1052.59997558594
1461.70215653203	1049
1462.33963251423	1052.40002441406
1462.97702581829	1044.40002441406
1463.61433645175	1045.59997558594
1464.25156442214	1043.80004882813
1464.88870973699	1042.40002441406
1465.52577240382	1044.19995117188
1466.16275243017	1048.80004882813
1466.79964982356	1044.19995117188
1467.43646459154	1042.59997558594
1468.07319674161	1042
1468.70984628132	1034.19995117188
1469.34641321818	1033.59997558594
1469.98289755974	1032.19995117188
1470.6192993135	1030.59997558594
1471.25561848701	1035.40002441406
1471.89185508779	1037.59997558594
1472.52800912336	1037.40002441406
1473.16408060124	1035.19995117188
1473.80006952897	1038
1474.43597591407	1040.59997558594
1475.07179976406	1033.19995117188
1475.70754108647	1039
1476.34319988883	1040.80004882813
1476.97877617865	1040.59997558594
1477.61426996345	1040.59997558594
1478.24968125077	1040
1478.88501004812	1037.40002441406
1479.52025636303	1036.19995117188
1480.15542020302	1043
1480.79050157561	1037.80004882813
1481.42550048832	1048.19995117188
1482.06041694867	1041.80004882813
1482.69525096418	1037.80004882813
1483.33000254237	1055.19995117188
1483.96467169077	1047.40002441406
1484.59925841689	1045.80004882813
1485.23376272825	1044
1485.86818463237	1044.80004882813
1486.50252413677	1052
1487.13678124896	1052.40002441406
1487.77095597646	1056.80004882813
1488.4050483268	1049.59997558594
1489.03905830749	1051
1489.67298592604	1046
1490.30683118996	1049.80004882813
1490.9405941068	1052
1491.57427468403	1050.40002441406
1492.2078729292	1050
1492.84138884981	1050.80004882813
1493.47482245338	1052.80004882813
1494.10817374742	1048.59997558594
1494.74144273944	1050
1495.37462943696	1055.40002441406
1496.0077338475	1052.40002441406
1496.64075597856	1058.80004882813
1497.27369583765	1059.40002441406
1497.9065534323	1056.40002441406
1498.53932877001	1059.80004882813
1499.17202185829	1057.19995117188
1499.80463270465	1056.80004882813
1500.43716131661	1059
1501.06960770167	1052.19995117188
1501.70197186735	1047.59997558594
1502.33425382116	1053.80004882813
1502.96645357059	1054.19995117188
1503.59857112317	1052.59997558594
1504.23060648641	1058.40002441406
1504.8625596678	1055.40002441406
1505.49443067486	1050.59997558594
1506.1262195151	1057
1506.75792619602	1061
1507.38955072513	1053.19995117188
1508.02109310993	1058.40002441406
1508.65255335794	1051.40002441406
1509.28393147666	1054.19995117188
1509.91522747359	1051.59997558594
1510.54644135624	1050
1511.17757313212	1049.40002441406
1511.80862280872	1048
1512.43959039356	1055.19995117188
1513.07047589413	1050.59997558594
1513.70127931795	1053.80004882813
1514.33200067251	1050
1514.96263996531	1045.19995117188
1515.59319720386	1049.80004882813
1516.22367239567	1047.40002441406
1516.85406554822	1040
1517.48437666903	1038.59997558594
1518.1146057656	1044.80004882813
1518.74475284542	1047
1519.374817916	1039.59997558594
1520.00480098483	1044.59997558594
1520.63470205942	1043.40002441406
1521.26452114726	1040.59997558594
1521.89425825586	1039.59997558594
1522.52391339271	1044.40002441406
1523.15348656531	1036.19995117188
1523.78297778116	1044.80004882813
1524.41238704775	1036.80004882813
1525.04171437259	1031.80004882813
1525.67095976317	1034.59997558594
1526.30012322699	1032.80004882813
1526.92920477154	1035.40002441406
1527.55820440432	1037.59997558594
1528.18712213283	1036.80004882813
1528.81595796455	1037.59997558594
1529.44471190699	1044.80004882813
1530.07338396764	1040.19995117188
1530.70197415399	1041.40002441406
1531.33048247353	1039.59997558594
1531.95890893377	1039
1532.58725354219	1033.80004882813
1533.21551630629	1032.19995117188
1533.84369723356	1027.59997558594
1534.47179633148	1037.80004882813
1535.09981360757	1045.80004882813
1535.72774906929	1046.40002441406
1536.35560272415	1042.59997558594
1536.98337457963	1035.19995117188
1537.61106464323	1040.19995117188
1538.23867292243	1042.59997558594
1538.86619942473	1037.40002441406
1539.49364415762	1037.59997558594
1540.12100712857	1040.80004882813
1540.74828834509	1036.19995117188
1541.37548781466	1036
1542.00260554478	1040.59997558594
1542.62964154291	1036.19995117188
1543.25659581655	1032.80004882813
1543.8834683732	1034.19995117188
1544.51025922034	1036
1545.13696836544	1039.19995117188
1545.76359581601	1030.19995117188
1546.39014157952	1033
1547.01660566345	1029.40002441406
1547.64298807531	1025.80004882813
1548.26928882255	1027.80004882813
1548.89550791269	1026
1549.52164535318	1033.80004882813
1550.14770115153	1025.80004882813
1550.77367531521	1028.40002441406
1551.39956785171	1029.40002441406
1552.0253787685	1028.19995117188
1552.65110807307	1027.59997558594
1553.2767557729	1028.80004882813
1553.90232187548	1032
1554.52780638828	1024
1555.15320931879	1027.59997558594
1555.77853067447	1029.40002441406
1556.40377046282	1028.80004882813
1557.02892869132	1028
1557.65400536744	1029.80004882813
1558.27900049866	1030.19995117188
1558.90391409247	1027.59997558594
1559.52874615633	1022.59997558594
1560.15349669773	1025.40002441406
1560.77816572414	1027.19995117188
1561.40275324305	1028.19995117188
1562.02725926192	1031.59997558594
1562.65168378824	1026.40002441406
1563.27602682948	1032.80004882813
1563.90028839311	1025
1564.52446848662	1029.40002441406
1565.14856711748	1024.59997558594
1565.77258429316	1029.80004882813
1566.39652002113	1021.79998779297
1567.02037430887	1023.20001220703
1567.64414716387	1022.79998779297
1568.26783859357	1028.59997558594
1568.89144860547	1021.20001220703
1569.51497720703	1026.40002441406
1570.13842440573	1031.19995117188
1570.76179020904	1034.80004882813
1571.38507462442	1036.40002441406
1572.00827765936	1039
1572.63139932132	1038
1573.25443961777	1032
1573.87739855618	1039.59997558594
1574.50027614402	1034.40002441406
1575.12307238877	1032.40002441406
1575.74578729789	1029.80004882813
1576.36842087885	1032
1576.99097313912	1033.19995117188
1577.61344408616	1026
1578.23583372745	1029.59997558594
1578.85814207046	1022.79998779297
1579.48036912264	1028.59997558594
1580.10251489147	1034.40002441406
1580.72457938441	1030.80004882813
1581.34656260893	1028.40002441406
1581.9684645725	1026.80004882813
1582.59028528258	1028.19995117188
1583.21202474663	1019.59997558594
1583.83368297212	1030.19995117188
1584.45525996652	1020.40002441406
1585.07675573728	1020.79998779297
1585.69817029188	1018.59997558594
1586.31950363778	1016
1586.94075578243	1013.20001220703
1587.5619267333	1013.40002441406
1588.18301649786	1017
1588.80402508357	1016.20001220703
1589.42495249788	1010.40002441406
1590.04579874826	1011
1590.66656384217	1009
1591.28724778707	1016
1591.90785059042	1010
1592.52837225968	1009
1593.14881280232	1014
1593.76917222578	1016.40002441406
1594.38945053753	1017.40002441406
1595.00964774502	1013
1595.62976385573	1012.40002441406
1596.24979887709	1021.59997558594
1596.86975281657	1015.59997558594
1597.48962568164	1014
1598.10941747974	1016.20001220703
1598.72912821832	1016.79998779297
1599.34875790486	1018.20001220703
1599.9683065468	1018.20001220703
1600.58777415159	1020
1601.2071607267	1015.79998779297
1601.82646627958	1015.20001220703
1602.44569081769	1013.40002441406
1603.06483434846	1014.40002441406
1603.68389687937	1019.40002441406
1604.30287841786	1012.59997558594
1604.92177897139	1017.79998779297
1605.54059854741	1014.79998779297
1606.15933715337	1022.79998779297
1606.77799479672	1013.59997558594
1607.39657148492	1020
1608.01506722542	1012
1608.63348202566	1011.20001220703
1609.2518158931	1020
1609.87006883519	1017.59997558594
1610.48824085939	1013.59997558594
1611.10633197312	1010
1611.72434218386	1012.40002441406
1612.34227149904	1009.40002441406
1612.96011992612	1011.59997558594
1613.57788747254	1015
1614.19557414575	1019.40002441406
1614.8131799532	1020.79998779297
1615.43070490234	1018.40002441406
1616.04814900061	1015.20001220703
1616.66551225545	1018.40002441406
1617.28279467433	1015.59997558594
1617.89999626467	1010.79998779297
1618.51711703393	1012.79998779297
1619.13415698955	1015
1619.75111613898	1009.59997558594
1620.36799448966	1009.20001220703
1620.98479204903	1007.20001220703
1621.60150882455	1008.40002441406
1622.21814482364	1003.40002441406
1622.83470005376	1006.79998779297
1623.45117452235	1004.79998779297
1624.06756823685	1007
1624.6838812047	1007
1625.30011343335	1004
1625.91626493022	1003.40002441406
1626.53233570278	1007
1627.14832575845	1005.59997558594
1627.76423510468	1004.40002441406
1628.38006374891	996.200012207031
1628.99581169857	1006.79998779297
1629.61147896111	1003.59997558594
1630.22706554397	1009.79998779297
1630.84257145457	1010
1631.45799670038	1010.40002441406
1632.07334128881	1010
1632.6886052273	1012
1633.3037885233	1015.20001220703
1633.91889118425	1014.20001220703
1634.53391321757	1007.79998779297
1635.1488546307	1010
1635.76371543108	1003.59997558594
1636.37849562616	1007.79998779297
1636.99319522335	1003.20001220703
1637.60781423009	1005.40002441406
1638.22235265383	1006.20001220703
1638.83681050198	1005.59997558594
1639.451187782	1005.79998779297
1640.0654845013	1004.40002441406
1640.67970066734	1002.79998779297
1641.29383628752	1003.20001220703
1641.9078913693	1003.20001220703
1642.5218659201	1000.59997558594
1643.13575994735	1008.40002441406
1643.74957345849	1012
1644.36330646094	1013
1644.97695896213	1010
1645.59053096951	1012.79998779297
1646.20402249049	1015.20001220703
1646.8174335325	1016.20001220703
1647.43076410298	1024.40002441406
1648.04401420935	1018.40002441406
1648.65718385905	1031.19995117188
1649.2702730595	1019.40002441406
1649.88328181812	1024.19995117188
1650.49621014236	1015
1651.10905803963	1007.40002441406
1651.72182551735	1006
1652.33451258297	1006.79998779297
1652.9471192439	1008.79998779297
1653.55964550757	1014.20001220703
1654.1720913814	1002.59997558594
1654.78445687283	1001.79998779297
1655.39674198926	999.400024414063
1656.00894673814	1001.40002441406
1656.62107112688	994.599975585938
1657.23311516291	996.799987792969
1657.84507885365	997.400024414063
1658.45696220652	994
1659.06876522895	987.599975585938
1659.68048792835	992.599975585938
1660.29213031217	993.599975585938
1660.90369238779	986.599975585938
1661.51517416267	988.599975585938
1662.12657564421	987.400024414063
1662.73789683984	985.799987792969
1663.34913775697	983.400024414063
1663.96029840303	985.200012207031
1664.57137878544	980.200012207031
1665.18237891161	983.200012207031
1665.79329878897	981
1666.40413842493	983.400024414063
1667.01489782691	981.200012207031
1667.62557700233	978.799987792969
1668.2361759586	982
1668.84669470315	981.799987792969
1669.4571332434	982
1670.06749158675	982.799987792969
1670.67776974062	977.400024414063
1671.28796771243	980.799987792969
1671.8980855096	973.799987792969
1672.50812313954	976
1673.11808060967	970.400024414063
1673.72795792739	973.799987792969
1674.33775510013	975.599975585938
1674.9474721353	972.799987792969
1675.55710904031	978.400024414063
1676.16666582257	976.200012207031
1676.7761424895	980.200012207031
1677.38553904851	978.400024414063
1677.99485550702	974.400024414063
1678.60409187243	975
1679.21324815215	972.200012207031
1679.8223243536	972.400024414063
1680.43132048419	970
1681.04023655132	970.400024414063
1681.64907256241	971.799987792969
1682.25782852487	977.200012207031
1682.86650444611	972.400024414063
1683.47510033353	972.799987792969
1684.08361619455	976
1684.69205203657	975.200012207031
1685.300407867	972.200012207031
1685.90868369325	968.599975585938
1686.51687952272	968.200012207031
1687.12499536283	971.799987792969
1687.73303122098	972
1688.34098710457	967.400024414063
1688.94886302101	968
1689.55665897772	971
1690.16437498208	966.200012207031
1690.77201104152	967.200012207031
1691.37956716342	971.200012207031
1691.9870433552	965.200012207031
1692.59443962426	966.599975585938
1693.20175597801	970
1693.80899242384	970
1694.41614896916	967.799987792969
1695.02322562138	967.400024414063
1695.63022238789	966.200012207031
1696.23713927609	971.400024414063
1696.8439762934	968.200012207031
1697.4507334472	963.599975585938
1698.05741074491	966.599975585938
1698.66400819391	962
1699.27052580161	963
1699.87696357542	962.799987792969
1700.48332152272	962
1701.08959965092	962.200012207031
1701.69579796742	964.799987792969
1702.30191647962	966.799987792969
1702.90795519491	960.400024414063
1703.51391412069	958.799987792969
1704.11979326437	957.799987792969
1704.72559263332	958.200012207031
1705.33131223496	954.599975585938
1705.93695207668	958.200012207031
1706.54251216588	959.200012207031
1707.14799250994	956.599975585938
1707.75339311628	965
1708.35871399227	962.799987792969
1708.96395514532	970.799987792969
1709.56911658282	960.799987792969
