634.948122577771	979.599975585938
635.690341530823	983.200012207031
636.43246851086	982.799987792969
637.174503525845	986.200012207031
637.916446583745	992
638.658297692538	990.599975585938
639.400056860179	990.200012207031
640.141724094637	993.200012207031
640.883299403885	986.400024414063
641.62478279588	993
642.366174278594	990.599975585938
643.107473859989	993.599975585938
643.848681548029	988.400024414063
644.589797350679	990.200012207031
645.330821275901	992
646.071753331665	989.400024414063
646.812593525922	992
647.553341866646	988.400024414063
648.293998361798	990.599975585938
649.03456301933	992.599975585938
649.775035847216	991
650.515416853409	990
651.255706045874	991.799987792969
651.995903432568	984.799987792969
652.736009021453	987.599975585938
653.476022820486	993.799987792969
654.215944837629	993
654.955775080842	995
655.695513558081	991.200012207031
656.435160277301	990
657.174715246465	987.799987792969
657.914178473527	994
658.653549966449	991.599975585938
659.392829733176	992.599975585938
660.132017781678	992.599975585938
660.871114119901	989.599975585938
661.610118755803	996.400024414063
662.349031697343	987.400024414063
663.087852952468	998
663.826582529139	998.599975585938
664.565220435305	997.400024414063
665.30376667892	991
666.04222126794	992.400024414063
666.780584210316	994.400024414063
667.518855514	998
668.25703518694	997.599975585938
668.995123237096	996
669.733119672413	994
670.471024500842	999.799987792969
671.208837730333	991.400024414063
671.946559368839	993
672.684189424308	994
673.421727904689	994
674.159174817929	997
674.896530171977	994.599975585938
675.633793974786	995.400024414063
676.370966234295	988.599975585938
677.108046958461	988.400024414063
677.845036155219	991.799987792969
678.581933832528	991.200012207031
679.318739998323	993.400024414063
680.055454660558	990.599975585938
680.792077827172	989.400024414063
681.528609506116	987.200012207031
682.265049705331	990.400024414063
683.001398432759	992.599975585938
683.737655696349	995.200012207031
684.47382150404	991.200012207031
685.20989586378	995.799987792969
685.945878783503	994.799987792969
686.68177027116	999.200012207031
687.417570334688	994.599975585938
688.153278982032	991.799987792969
688.888896221129	990.799987792969
689.624422059921	992.400024414063
690.359856506349	992.599975585938
691.095199568354	994.799987792969
691.830451253874	997.599975585938
692.565611570844	994.400024414063
693.300680527212	994
694.03565813091	997.400024414063
694.770544389877	1002.40002441406
695.505339312053	995.799987792969
696.240042905372	995.400024414063
696.974655177772	999
697.70917613719	995.400024414063
698.443605791561	996.799987792969
699.177944148826	1002.59997558594
699.912191216909	994
700.646347003755	1005
701.380411517295	996.400024414063
702.114384765465	996.599975585938
702.848266756195	1002.59997558594
703.582057497421	997.799987792969
704.315756997074	996.200012207031
705.049365263089	989
705.782882303399	994.400024414063
706.516308125936	994.400024414063
707.249642738626	992.599975585938
707.982886149403	991
708.716038366204	996.599975585938
709.449099396949	992.400024414063
710.182069249577	994.599975585938
710.914947932009	997
711.647735452181	997.200012207031
712.380431818022	999
713.113037037454	999.400024414063
713.845551118411	998.599975585938
714.577974068818	1002
715.310305896604	1006.40002441406
716.042546609694	1003.40002441406
716.774696216013	1000.20001220703
717.506754723493	996.599975585938
718.238722140053	1002
718.970598473624	1004.20001220703
719.702383732127	1002.20001220703
720.43407792349	1004.20001220703
721.165681055634	1006.40002441406
721.897193136486	1007.59997558594
722.628614173966	1003.20001220703
723.359944175997	1001.59997558594
724.091183150505	998.799987792969
724.822331105412	996
725.553388048638	991.799987792969
726.284353988106	994
727.015228931734	997.599975585938
727.746012887449	995.799987792969
728.476705863162	996
729.207307866803	999
729.937818906289	998.599975585938
730.668238989535	996
731.398568124459	994.599975585938
732.128806318986	993
732.858953581034	998.400024414063
733.589009918514	994.799987792969
734.318975339348	999.400024414063
735.048849851452	1001.40002441406
735.778633462744	998.599975585938
736.508326181137	997.599975585938
737.237928014549	1001
737.967438970897	999.799987792969
738.696859058095	997.599975585938
739.426188284054	997
740.155426656692	999.400024414063
740.884574183922	999
741.613630873659	998.200012207031
742.342596733815	998.200012207031
743.071471772302	994.799987792969
743.800255997034	1004.79998779297
744.528949415921	1004
745.257552036877	1005.20001220703
745.986063867811	1001
746.714484916638	1002.79998779297
747.442815191261	997.799987792969
748.171054699597	996.799987792969
748.899203449554	999.400024414063
749.627261449039	997.400024414063
750.355228705966	999.599975585938
751.083105228239	999.799987792969
751.810891023765	995.799987792969
752.538586100459	998
753.266190466218	1001.20001220703
753.99370412896	997.799987792969
754.721127096582	1001
755.448459377	996
756.175700978114	990.799987792969
756.902851907828	994
757.629912174055	1004
758.356881784688	1003.20001220703
759.083760747639	1000.20001220703
759.810549070817	999
760.537246762113	1004
761.263853829442	1007
761.990370280698	1010.20001220703
762.716796123791	1006.40002441406
763.443131366618	1006.40002441406
764.169376017082	1001.79998779297
764.895530083085	1004.40002441406
765.621593572527	1005.40002441406
766.347566493312	1003.20001220703
767.073448853336	1009.59997558594
767.799240660502	1014.59997558594
768.524941922707	1013.20001220703
769.250552647854	1016.79998779297
769.976072843836	1017.79998779297
770.701502518551	1018.20001220703
771.426841679905	1011.20001220703
772.152090335793	1014
772.877248494107	1023
773.602316162747	1012.59997558594
774.327293349609	1010.79998779297
775.052180062592	1012.79998779297
775.776976309589	1016.79998779297
776.501682098496	1025
777.226297437206	1014.20001220703
777.950822333616	1015.59997558594
778.675256795621	1017
779.399600831111	1011
780.123854447983	1007.40002441406
780.84801765413	1004.59997558594
781.572090457441	1004.79998779297
782.296072865811	993
783.019964887131	995.200012207031
783.743766529297	992.599975585938
784.467477800194	1001
785.191098707719	1000.20001220703
785.914629259756	1001.20001220703
786.638069464194	1000.59997558594
787.361419328932	995.799987792969
788.084678861852	997
788.807848070845	994.599975585938
789.530926963798	1000.20001220703
790.253915548602	996
790.976813833144	999.200012207031
791.699621825307	998.599975585938
792.422339532986	998.799987792969
793.144966964061	1002.20001220703
793.86750412642	998.200012207031
794.589951027946	1005.59997558594
795.312307676536	1006
796.03457408006	999.599975585938
796.756750246417	1007
797.478836183477	1001
798.200831899137	995.799987792969
798.92273740127	996.400024414063
799.644552697769	993.200012207031
800.36627779651	992.400024414063
801.087912705374	996.599975585938
801.809457432251	994.599975585938
802.530911985017	991.799987792969
803.252276371558	996.400024414063
803.973550599748	993.200012207031
804.694734677472	994.799987792969
805.415828612611	992.400024414063
806.136832413045	998.400024414063
806.857746086646	998.200012207031
807.578569641305	1001.20001220703
808.299303084892	998.599975585938
809.019946425289	1005.59997558594
809.740499670372	1002.40002441406
810.460962828022	1001.40002441406
811.181335906114	997.799987792969
811.901618912524	1001
812.621811855131	994.200012207031
813.341914741809	995.400024414063
814.061927580433	994
814.781850378881	993.599975585938
815.501683145025	1000.20001220703
816.221425886743	993.799987792969
816.941078611903	1000.59997558594
817.660641328387	995.599975585938
818.380114044065	1001.20001220703
819.099496766808	997
819.818789504492	991
820.53799226499	999
821.257105056168	995.200012207031
821.976127885904	997.799987792969
822.695060762064	991
823.413903692525	992
824.132656685151	989.799987792969
824.851319747817	994.799987792969
825.569892888388	999.599975585938
826.288376114739	999.599975585938
827.006769434737	1002
827.725072856249	995
828.443286387142	1007.40002441406
829.161410035285	1011.20001220703
829.87944380855	1005
830.597387714798	1002
831.315241761898	1003.59997558594
832.033005957715	998.400024414063
832.750680310119	999.599975585938
833.468264826969	1003.20001220703
834.18575951614	995.799987792969
834.903164385486	995
835.620479442878	999.200012207031
836.337704696181	1001
837.054840153255	1001
837.771885821962	1002.20001220703
838.488841710172	997.799987792969
839.20570782574	1005
839.922484176531	1008.40002441406
840.639170770409	1004.79998779297
841.355767615231	998.599975585938
842.072274718864	999.400024414063
842.788692089164	993
843.505019733993	992.799987792969
844.221257661209	995.200012207031
844.937405878676	1000.20001220703
845.65346439425	996.400024414063
846.369433215789	1000
847.085312351156	1000.59997558594
847.801101808205	996
848.516801594793	993.400024414063
849.232411718781	996.200012207031
849.947932188021	992.200012207031
850.663363010376	999.400024414063
851.378704193698	998.599975585938
852.093955745842	999.400024414063
852.809117674669	993.799987792969
853.524189988028	999
854.239172693778	1002.79998779297
854.954065799768	999.200012207031
855.668869313857	999.400024414063
856.383583243899	998.799987792969
857.098207597743	996.200012207031
857.812742383246	996.799987792969
858.527187608255	991.200012207031
859.241543280628	999
859.955809408218	993
860.669985998868	993.599975585938
861.384073060437	997.200012207031
862.098070600772	1002
862.811978627724	997.799987792969
863.52579714914	999.400024414063
864.239526172873	1003.20001220703
864.953165706776	1000.40002441406
865.666715758687	1000.20001220703
866.380176336464	994.599975585938
867.093547447951	996.200012207031
867.806829100996	998
868.520021303444	1000.79998779297
869.233124063149	998
869.94613738795	999.599975585938
870.659061285693	997.599975585938
871.37189576423	999
872.084640831403	1002.79998779297
872.797296495057	993.799987792969
873.509862763039	994
874.22233964319	995.599975585938
874.934727143353	990.599975585938
875.647025271374	994
876.359234035097	1003.40002441406
877.071353442361	996.599975585938
877.783383501015	1000.59997558594
878.495324218895	996.400024414063
879.207175603844	998.400024414063
879.918937663705	995.799987792969
880.630610406318	995
881.342193839524	996.200012207031
882.053687971161	999.400024414063
882.765092809069	1003.59997558594
883.476408361091	998.599975585938
884.187634635066	998.200012207031
884.898771638828	999.400024414063
885.609819380221	995
886.320777867076	1003.59997558594
887.031647107236	1002.59997558594
887.742427108536	998.200012207031
888.453117878816	992.799987792969
889.16371942591	994.599975585938
889.874231757652	996
890.584654881883	993.599975585938
891.294988806434	992.599975585938
892.005233539141	996.599975585938
892.715389087837	990.599975585938
893.42545546036	986
894.135432664543	995
894.845320708216	997.200012207031
895.555119599216	1006.79998779297
896.264829345375	998.799987792969
896.974449954526	998.200012207031
897.683981434496	1001.40002441406
898.393423793125	1001.79998779297
899.102777038235	1002.20001220703
899.812041177664	1005.79998779297
900.521216219239	1002.40002441406
901.230302170793	1006.20001220703
901.939299040155	1001
902.64820683515	1005
903.357025563612	998.799987792969
904.065755233368	997.200012207031
904.774395852247	998.400024414063
905.482947428076	992.200012207031
906.191409968682	1000.79998779297
906.899783481897	997.200012207031
907.608067975538	1000.40002441406
908.316263457443	995.799987792969
909.02436993543	994.799987792969
909.732387417327	996.200012207031
910.440315910959	990.799987792969
911.148155424154	994.400024414063
911.855905964731	993
912.563567540521	1000.40002441406
913.271140159339	990.799987792969
913.978623829017	990.599975585938
914.686018557374	996
915.393324352237	995
916.100541221421	998
916.807669172752	999.400024414063
917.514708214054	1001.79998779297
918.221658353142	1000.59997558594
918.928519597843	1000
919.635291955976	997.400024414063
920.341975435358	1000
921.048570043813	1000.20001220703
921.75507578916	999.599975585938
922.461492679212	1001.79998779297
923.167820721795	1001.20001220703
923.874059924726	1008.40002441406
924.58021029582	999
925.286271842893	1000.40002441406
925.992244573769	994.400024414063
926.698128496262	997.799987792969
927.403923618184	993.799987792969
928.109629947355	994
928.815247491593	998.799987792969
929.520776258708	998.200012207031
930.226216256519	998
930.931567492841	993.200012207031
931.636829975482	998
932.342003712263	997.599975585938
933.047088710995	995.799987792969
933.752084979491	998
934.456992525564	1007.20001220703
935.161811357024	999.400024414063
935.866541481688	1006.79998779297
936.571182907363	1006.40002441406
937.275735641861	1003.79998779297
937.980199692995	1002.79998779297
938.684575068572	1000.40002441406
939.388861776411	997.200012207031
940.093059824311	995.200012207031
940.797169220085	992
941.501189971544	995
942.205122086495	993.599975585938
942.908965572751	999.400024414063
943.612720438111	999.200012207031
944.316386690391	993.400024414063
945.019964337391	993.599975585938
945.723453386924	995.599975585938
946.426853846795	997.799987792969
947.130165724808	990
947.83338902877	993
948.536523766488	996.200012207031
949.239569945764	996.799987792969
949.942527574402	992.599975585938
950.64539666021	993.799987792969
951.348177210993	997.400024414063
952.050869234548	1000.20001220703
952.753472738683	997
953.455987731199	997.200012207031
954.158414219898	1000.59997558594
954.860752212587	993
955.563001717061	999
956.265162741124	996
956.967235292576	999.799987792969
957.669219379224	999.599975585938
958.371115008857	992.799987792969
959.072922189283	993.200012207031
959.774640928301	1001
960.476271233708	994.799987792969
961.177813113301	995.599975585938
961.879266574882	992.799987792969
962.580631626248	997.799987792969
963.281908275194	996
963.98309652952	997.599975585938
964.684196397022	999
965.3852078855	994.799987792969
966.086131002745	994.200012207031
966.786965756555	996.200012207031
967.487712154726	993.200012207031
968.188370205055	997.599975585938
968.888939915331	1001.20001220703
969.589421293352	994.400024414063
970.289814346909	997.200012207031
970.990119083801	1001.59997558594
971.690335511819	999.400024414063
972.39046363875	1001.79998779297
973.090503472398	999.200012207031
973.790455020545	994.400024414063
974.490318290987	991.799987792969
975.190093291516	999.799987792969
975.889780029923	996.200012207031
976.589378513998	997.200012207031
977.288888751527	994.599975585938
977.988310750308	995.799987792969
978.687644518122	995.200012207031
979.386890062767	998.400024414063
980.086047392025	997.799987792969
980.785116513689	992.400024414063
981.484097435542	1000.59997558594
982.182990165377	994.200012207031
982.88179471098	998.799987792969
983.580511080137	993.599975585938
984.279139280632	990.200012207031
984.977679320253	996.200012207031
985.67613120679	994
986.374494948027	993.200012207031
987.072770551745	994.799987792969
987.770958025731	992.599975585938
988.469057377772	990
989.167068615649	987.599975585938
989.864991747145	986.400024414063
990.562826780047	987.799987792969
991.260573722134	987.799987792969
991.958232581195	981.400024414063
992.655803365003	988.599975585938
993.353286081346	987.400024414063
994.050680738006	992.400024414063
994.74798734276	991.799987792969
995.44520590339	989.599975585938
996.142336427681	989.799987792969
996.839378923407	995.799987792969
997.536333398348	992.200012207031
998.233199860289	993.599975585938
998.929978317004	986.400024414063
999.626668776274	989.799987792969
1000.32327124587	991
1001.01978573359	995.599975585938
1001.71621224718	994.799987792969
1002.41255079445	989.599975585938
1003.10880138315	992.200012207031
1003.80496402107	996
1004.50103871599	996
1005.19702547567	990.200012207031
1005.8929243079	994.400024414063
1006.58873522045	996.599975585938
1007.2844582211	996.799987792969
1007.98009331761	993.200012207031
1008.67564051776	990.200012207031
1009.37109982933	989.200012207031
1010.06647126009	987.400024414063
1010.7617548178	981.799987792969
1011.45695051026	988
1012.15205834522	993.400024414063
1012.84707833045	994.200012207031
1013.54201047373	989
1014.23685478284	988.799987792969
1014.93161126553	995.599975585938
1015.62627992959	990.400024414063
1016.32086078277	1000.59997558594
1017.01535383285	995.799987792969
1017.70975908761	990.799987792969
1018.40407655479	993.400024414063
1019.09830624219	993
1019.79244815755	989.799987792969
1020.48650230866	993.799987792969
1021.18046870328	989.200012207031
1021.87434734917	993.400024414063
1022.56813825411	993.599975585938
1023.26184142584	990.400024414063
1023.95545687216	990.400024414063
1024.64898460082	989.200012207031
1025.34242461957	990
1026.0357769362	987
1026.72904155846	987.599975585938
1027.42221849412	988.200012207031
1028.11530775094	986.400024414063
1028.80830933668	990
1029.50122325911	988.200012207031
1030.19404952599	987.599975585938
1030.88678814508	989.599975585938
1031.57943912414	986
1032.27200247093	989.400024414063
1032.96447819323	986.200012207031
1033.65686629878	989.200012207031
1034.34916679534	996.400024414063
1035.04137969068	991.200012207031
1035.73350499256	994.799987792969
1036.42554270874	987.400024414063
1037.11749284697	990.200012207031
1037.80935541501	988.200012207031
1038.50113042062	987.200012207031
1039.19281787156	992.400024414063
1039.88441777559	992.599975585938
1040.57593014046	993
1041.26735497393	986
1041.95869228376	986
1042.6499420777	986.200012207031
1043.3411043635	987.200012207031
1044.03217914893	987.799987792969
1044.72316644174	988.599975585938
1045.41406624968	986.200012207031
1046.1048785805	982.599975585938
1046.79560344197	985.400024414063
1047.48624084182	982.799987792969
1048.17679078783	987.599975585938
1048.86725328774	988
1049.55762834929	984.200012207031
1050.24791598025	986.400024414063
1050.93811618837	985
1051.62822898139	986.200012207031
1052.31825436707	987.200012207031
1053.00819235315	986.400024414063
1053.6980429474	989.200012207031
1054.38780615755	992.799987792969
1055.07748199136	987.400024414063
1055.76707045658	983
1056.45657156095	985.400024414063
1057.14598531222	987
1057.83531171814	987.400024414063
1058.52455078646	988.400024414063
1059.21370252494	988.799987792969
1059.90276694129	984.599975585938
1060.5917440433	993.799987792969
1061.28063383868	993.200012207031
1061.9694363352	991
1062.65815154059	991.400024414063
1063.34677946261	995.599975585938
1064.03532010899	993.599975585938
1064.72377348748	991
1065.41213960583	992.400024414063
1066.10041847177	996.200012207031
1066.78861009306	990.200012207031
1067.47671447743	993.400024414063
1068.16473163263	990
1068.85266156639	993.799987792969
1069.54050428647	987
1070.2282598006	985.200012207031
1070.91592811652	990.799987792969
1071.60350924198	987.400024414063
1072.29100318471	987.400024414063
1072.97840995245	984.599975585938
1073.66572955295	990
1074.35296199394	989.400024414063
1075.04010728316	991.200012207031
1075.72716542836	988.200012207031
1076.41413643726	991
1077.10102031761	983.799987792969
1077.78781707715	989.200012207031
1078.4745267236	983.200012207031
1079.16114926471	985.599975585938
1079.84768470822	988.799987792969
1080.53413306185	984.400024414063
1081.22049433336	989.400024414063
1081.90676853046	986.200012207031
1082.5929556609	985.799987792969
1083.27905573241	986.799987792969
1083.96506875272	995
1084.65099472957	987
1085.3368336707	991
1086.02258558383	992.200012207031
1086.70825047669	990.599975585938
1087.39382835703	991.200012207031
1088.07931923257	989.599975585938
1088.76472311104	986.200012207031
1089.45004000018	979.799987792969
1090.13526990771	979.799987792969
1090.82041284137	991
1091.50546880889	979.599975585938
1092.19043781799	987.799987792969
1092.87531987642	984.799987792969
1093.56011499188	984.200012207031
1094.24482317212	988
1094.92944442486	989.200012207031
1095.61397875783	980
1096.29842617876	979.400024414063
1096.98278669537	987.599975585938
1097.6670603154	982.200012207031
1098.35124704656	986.200012207031
1099.03534689659	987.599975585938
1099.71935987322	988.200012207031
1100.40328598416	995.799987792969
1101.08712523713	988
1101.77087763988	987.400024414063
1102.45454320012	983
1103.13812192557	983.400024414063
1103.82161382396	977.599975585938
1104.50501890301	974.400024414063
1105.18833717045	980.799987792969
1105.87156863399	985.400024414063
1106.55471330137	981.400024414063
1107.2377711803	982.799987792969
1107.9207422785	984.400024414063
1108.60362660369	985.200012207031
1109.2864241636	988.599975585938
1109.96913496594	992.599975585938
1110.65175901844	987
1111.33429632882	994.400024414063
1112.01674690479	985.599975585938
1112.69911075408	990.200012207031
1113.38138788439	988.799987792969
1114.06357830346	976.200012207031
1114.745682019	984.799987792969
1115.42769903872	987.400024414063
1116.10962937035	991.599975585938
1116.7914730216	985
1117.47323000018	982.799987792969
1118.15490031382	990.400024414063
1118.83648397022	985.400024414063
1119.51798097712	987
1120.1993913422	984.599975585938
1120.88071507321	981.599975585938
1121.56195217784	986.200012207031
1122.24310266381	986
1122.92416653884	983.599975585938
1123.60514381064	988
1124.28603448692	992
1124.9668385754	994.400024414063
1125.64755608378	989
1126.32818701978	989.599975585938
1127.00873139111	994.599975585938
1127.68918920548	996.799987792969
1128.3695604706	991.200012207031
1129.04984519419	987
1129.73004338394	990.400024414063
1130.41015504758	987.400024414063
1131.09018019281	985.200012207031
1131.77011882734	991
1132.44997095888	983.200012207031
1133.12973659514	987.200012207031
1133.80941574381	980.200012207031
1134.48900841263	985.200012207031
1135.16851460927	977.200012207031
1135.84793434147	984.400024414063
1136.52726761692	976
1137.20651444333	979.200012207031
1137.8856748284	978.799987792969
1138.56474877984	980.400024414063
1139.24373630536	981
1139.92263741265	982.799987792969
1140.60145210943	985.799987792969
1141.28018040339	985.799987792969
1141.95882230225	982
1142.6373778137	975.799987792969
1143.31584694545	978.400024414063
1143.99422970519	979
1144.67252610064	978.400024414063
1145.35073613949	981.400024414063
1146.02885982944	974.200012207031
1146.7068971782	982.799987792969
1147.38484819347	977.599975585938
1148.06271288294	980
1148.74049125432	989.400024414063
1149.41818331531	985.200012207031
1150.0957890736	988.200012207031
1150.77330853689	985.799987792969
1151.45074171289	986.400024414063
1152.12808860928	986.799987792969
1152.80534923378	987.200012207031
1153.48252359407	983.599975585938
1154.15961169786	983.599975585938
1154.83661355283	982.400024414063
1155.51352916669	986
1156.19035854713	985.799987792969
1156.86710170185	987.799987792969
1157.54375863855	987.799987792969
1158.22032936491	991.400024414063
1158.89681388863	987.200012207031
1159.57321221741	984.799987792969
1160.24952435894	984.599975585938
1160.92575032092	986.799987792969
1161.60189011103	986.799987792969
1162.27794373697	986.799987792969
1162.95391120644	987.599975585938
1163.62979252712	986.200012207031
1164.3055877067	989.400024414063
1164.98129675288	988.200012207031
1165.65691967336	983.400024414063
1166.33245647581	986.799987792969
1167.00790716792	987
1167.6832717574	983.200012207031
1168.35855025193	986
1169.0337426592	981.799987792969
1169.70884898689	987
1170.3838692427	992.599975585938
1171.05880343431	988.599975585938
1171.73365156941	984.799987792969
1172.40841365569	987.200012207031
1173.08308970083	985.200012207031
1173.75767971253	982.799987792969
1174.43218369847	983.200012207031
1175.10660166633	983.799987792969
1175.7809336238	988.799987792969
1176.45517957857	983.200012207031
1177.12933953832	986.599975585938
1177.80341351073	989.200012207031
1178.47740150349	983.400024414063
1179.15130352429	979.200012207031
1179.8251195808	984.200012207031
1180.49884968071	986.599975585938
1181.1724938317	988
1181.84605204145	985.599975585938
1182.51952431766	983.400024414063
1183.19291066799	983.599975585938
1183.86621110013	983.400024414063
1184.53942562176	989.799987792969
1185.21255424057	991.400024414063
1185.88559696422	986.200012207031
1186.55855380041	985
1187.2314247568	991.200012207031
1187.90420984109	986.200012207031
1188.57690906095	985.599975585938
1189.24952242405	986.799987792969
1189.92204993808	982.799987792969
1190.59449161071	985.200012207031
1191.26684744962	985.400024414063
1191.93911746249	984
1192.61130165699	989.200012207031
1193.28340004081	980.400024414063
1193.95541262161	982
1194.62733940707	980
1195.29918040487	987.400024414063
1195.97093562269	985.200012207031
1196.64260506819	985.599975585938
1197.31418874905	982.400024414063
1197.98568667295	979.400024414063
1198.65709884755	982.400024414063
1199.32842528053	982
1199.99966597957	981.400024414063
1200.67082095234	980.799987792969
1201.3418902065	984.200012207031
1202.01287374974	982.400024414063
1202.68377158971	986.400024414063
1203.3545837341	989.400024414063
1204.02531019057	986
1204.6959509668	987
1205.36650607045	989.599975585938
1206.03697550919	981.200012207031
1206.70735929069	980.200012207031
1207.37765742263	982.200012207031
1208.04786991266	979.200012207031
1208.71799676846	981.400024414063
1209.38803799769	978.400024414063
1210.05799360803	983.599975585938
1210.72786360714	982.400024414063
1211.39764800268	976.599975585938
1212.06734680233	980
1212.73696001375	981.200012207031
1213.4064876446	981
1214.07592970255	978.400024414063
1214.74528619526	980.799987792969
1215.4145571304	983.200012207031
1216.08374251564	978.200012207031
1216.75284235863	979.200012207031
1217.42185666704	982.799987792969
1218.09078544854	980.400024414063
1218.75962871078	976.400024414063
1219.42838646143	972.599975585938
1220.09705870816	981.400024414063
1220.76564545861	979
1221.43414672046	975.200012207031
1222.10256250136	981.400024414063
1222.77089280898	982.200012207031
1223.43913765098	981.400024414063
1224.107297035	979.799987792969
1224.77537096873	978.200012207031
1225.44335945981	982.200012207031
1226.1112625159	982.799987792969
1226.77908014467	982.400024414063
1227.44681235376	982
1228.11445915085	989
1228.78202054357	982.799987792969
1229.44949653961	983.200012207031
1230.11688714659	974.599975585938
1230.7841923722	966.200012207031
1231.45141222407	977.799987792969
1232.11854670988	976.400024414063
1232.78559583726	977.400024414063
1233.45255961388	984.799987792969
1234.1194380474	974.200012207031
1234.78623114546	979.599975585938
1235.45293891572	983
1236.11956136583	977.200012207031
1236.78609850345	982
1237.45255033623	981.799987792969
1238.11891687182	981.599975585938
1238.78519811788	983.799987792969
1239.45139408205	977.799987792969
1240.11750477198	982.599975585938
1240.78353019534	976.599975585938
1241.44947035976	980.400024414063
1242.11532527291	979.599975585938
1242.78109494242	979.799987792969
1243.44677937595	979.799987792969
1244.11237858115	984.400024414063
1244.77789256567	976
1245.44332133715	974.200012207031
1246.10866490325	974.799987792969
1246.7739232716	981.599975585938
1247.43909644987	980
1248.10418444569	978.799987792969
1248.76918726671	980.200012207031
1249.43410492059	983.200012207031
1250.09893741496	979.400024414063
1250.76368475747	983
1251.42834695576	981.799987792969
1252.09292401749	980.799987792969
1252.75741595029	983.400024414063
1253.42182276182	978.799987792969
1254.08614445971	981.400024414063
1254.75038105161	981
1255.41453254515	981.799987792969
1256.07859894799	973.200012207031
1256.74258026777	978
1257.40647651213	981.599975585938
1258.0702876887	975.799987792969
1258.73401380514	976
1259.39765486908	976.799987792969
1260.06121088817	978.200012207031
1260.72468187004	977.200012207031
1261.38806782233	977.599975585938
1262.05136875269	976.200012207031
1262.71458466875	981
1263.37771557815	979.400024414063
1264.04076148854	978.799987792969
1264.70372240753	980.599975585938
1265.3665983428	980.200012207031
1266.02938930195	975.599975585938
1266.69209529263	977.400024414063
1267.35471632249	981.200012207031
1268.01725239914	986.400024414063
1268.67970353024	980.799987792969
1269.34206972342	979.200012207031
1270.00435098631	980.200012207031
1270.66654732655	979.599975585938
1271.32865875177	974.599975585938
1271.9906852696	981
1272.65262688768	983
1273.31448361365	980.799987792969
1273.97625545514	974.400024414063
1274.63794241978	976
1275.2995445152	978
1275.96106174903	977.599975585938
1276.62249412892	979.400024414063
1277.28384166248	973.400024414063
1277.94510435735	981.799987792969
1278.60628222116	980
1279.26737526155	972
1279.92838348613	977.799987792969
1280.58930690255	973.799987792969
1281.25014551842	978
1281.91089934139	978.799987792969
1282.57156837907	974.599975585938
1283.2321526391	975
1283.89265212911	969.200012207031
1284.55306685671	972.799987792969
1285.21339682955	975.799987792969
1285.87364205525	979
1286.53380254142	979.599975585938
1287.19387829571	978.400024414063
1287.85386932573	977.400024414063
1288.51377563911	973.599975585938
1289.17359724348	976.799987792969
1289.83333414646	979
1290.49298635567	980
1291.15255387874	983
1291.8120367233	974.799987792969
1292.47143489696	974.200012207031
1293.13074840736	973.200012207031
1293.7899772621	974
1294.44912146882	970.599975585938
1295.10818103513	975.599975585938
1295.76715596866	977.200012207031
1296.42604627704	966
1297.08485196787	973.799987792969
1297.74357304878	972.200012207031
1298.4022095274	976.599975585938
1299.06076141134	974.200012207031
1299.71922870821	975.799987792969
1300.37761142565	981.200012207031
1301.03590957126	983.599975585938
1301.69412315268	974.799987792969
1302.3522521775	977.200012207031
1303.01029665336	975.400024414063
1303.66825658787	983.400024414063
1304.32613198865	985
1304.98392286332	983
1305.64162921948	988.200012207031
1306.29925106476	980.799987792969
1306.95678840677	981.200012207031
1307.61424125312	977.599975585938
1308.27160961145	973.799987792969
1308.92889348934	979.599975585938
1309.58609289443	979
1310.24320783432	985.599975585938
1310.90023831664	983.400024414063
1311.55718434898	979.200012207031
1312.21404593897	985.400024414063
1312.87082309421	986
1313.52751582233	985
1314.18412413092	986
1314.84064802761	981.400024414063
1315.49708752	981.599975585938
1316.1534426157	973.400024414063
1316.80971332233	976.599975585938
1317.46589964749	979.400024414063
1318.1220015988	982
1318.77801918386	976.599975585938
1319.43395241028	981.400024414063
1320.08980128567	985
1320.74556581764	979.799987792969
1321.4012460138	982.799987792969
1322.05684188176	984.400024414063
1322.71235342911	986.200012207031
1323.36778066347	986.200012207031
1324.02312359245	986
1324.67838222365	978.799987792969
1325.33355656468	976.200012207031
1325.98864662314	978
1326.64365240663	982.400024414063
1327.29857392277	975.200012207031
1327.95341117915	977.400024414063
1328.60816418339	976
1329.26283294308	981.599975585938
1329.91741746582	975.799987792969
1330.57191775923	979.599975585938
1331.2263338309	983.400024414063
1331.88066568843	981.799987792969
1332.53491333943	983.799987792969
1333.1890767915	979.400024414063
1333.84315605224	980.400024414063
1334.49715112925	984.799987792969
1335.15106203013	977.599975585938
1335.80488876249	979
1336.45863133391	974.799987792969
1337.112289752	979
1337.76586402437	973
1338.4193541586	980.599975585938
1339.0727601623	977.799987792969
1339.72608204306	982.400024414063
1340.37931980849	979.200012207031
1341.03247346617	976.400024414063
1341.68554302372	979.400024414063
1342.33852848871	973.799987792969
1342.99142986876	975.599975585938
1343.64424717145	976.799987792969
1344.29698040438	982
1344.94962957515	980.599975585938
1345.60219469135	977.200012207031
1346.25467576058	979.599975585938
1346.90707279042	981.400024414063
1347.55938578848	987.400024414063
1348.21161476235	991.400024414063
1348.86375971962	981.799987792969
1349.51582066787	987.200012207031
1350.16779761472	988.799987792969
1350.81969056774	981.799987792969
1351.47149953453	985.200012207031
1352.12322452269	984.599975585938
1352.77486553979	984
1353.42642259344	984
1354.07789569122	979.799987792969
1354.72928484072	986
1355.38059004953	987.200012207031
1356.03181132525	982.599975585938
1356.68294867545	982.799987792969
1357.33400210773	990
1357.98497162968	988
1358.63585724889	987
1359.28665897294	992.599975585938
1359.93737680942	987.200012207031
1360.58801076591	987.599975585938
1361.23856085001	986
1361.88902706929	993
1362.53940943135	998.200012207031
1363.18970794377	995.599975585938
1363.83992261413	993.400024414063
1364.49005345003	995.599975585938
1365.14010045904	987.200012207031
1365.79006364874	984.400024414063
1366.43994302673	982.200012207031
1367.08973860058	985.200012207031
1367.73945037788	981.400024414063
1368.38907836621	984.599975585938
1369.03862257315	981.599975585938
1369.68808300629	982.799987792969
1370.3374596732	979.400024414063
1370.98675258148	976.400024414063
1371.63596173868	978.400024414063
1372.28508715241	979.400024414063
1372.93412883024	978.599975585938
1373.58308677974	971.400024414063
1374.2319610085	977
1374.8807515241	976.799987792969
1375.52945833412	973.599975585938
1376.17808144612	972.599975585938
1376.82662086771	975.200012207031
1377.47507660644	975.599975585938
1378.12344866989	971.400024414063
1378.77173706565	969.599975585938
1379.41994180129	972
1380.06806288439	972.200012207031
1380.71610032252	977.400024414063
1381.36405412326	973.799987792969
1382.01192429419	972
1382.65971084287	975
1383.30741377688	970.200012207031
1383.95503310381	976.599975585938
1384.60256883121	970.200012207031
1385.25002096667	973.799987792969
1385.89738951775	978
1386.54467449204	976
1387.19187589709	972.400024414063
1387.8389937405	971.200012207031
1388.48602802982	974
1389.13297877262	970.200012207031
1389.77984597649	971.799987792969
1390.42662964899	969.599975585938
1391.07332979768	972.400024414063
1391.71994643015	966.200012207031
1392.36647955395	969.799987792969
1393.01292917667	970
1393.65929530586	970.200012207031
1394.3055779491	966.599975585938
1394.95177711395	969
1395.59789280799	972.400024414063
1396.24392503877	971.200012207031
1396.88987381387	972.400024414063
1397.53573914086	970
1398.1815210273	963.400024414063
1398.82721948075	970.200012207031
1399.47283450878	964
1400.11836611897	966
1400.76381431886	967.799987792969
1401.40917911603	971.599975585938
1402.05446051805	967.799987792969
1402.69965853247	966.599975585938
1403.34477316686	970.599975585938
1403.98980442878	973.200012207031
1404.6347523258	968.799987792969
1405.27961686548	964.599975585938
1405.92439805538	964.400024414063
1406.56909590306	966.799987792969
1407.21371041608	973.599975585938
1407.85824160202	967.400024414063
1408.50268946841	969.400024414063
1409.14705402284	972.599975585938
1409.79133527285	969.200012207031
1410.43553322601	972
1411.07964788987	971.599975585938
1411.723679272	965.400024414063
1412.36762737996	967.799987792969
1413.01149222129	967.200012207031
1413.65527380357	964
1414.29897213435	968.599975585938
1414.94258722118	969.200012207031
1415.58611907163	966.599975585938
1416.22956769325	963.799987792969
1416.87293309359	965.599975585938
1417.51621528021	961.400024414063
1418.15941426067	964
1418.80253004253	963.400024414063
1419.44556263333	969
1420.08851204063	965.400024414063
1420.731378272	971.400024414063
1421.37416133497	969
1422.0168612371	967.200012207031
1422.65947798596	965.400024414063
1423.30201158908	968.599975585938
1423.94446205403	971.400024414063
1424.58682938835	973
1425.2291135996	967
1425.87131469532	964.400024414063
1426.51343268308	972.400024414063
1427.15546757042	970.799987792969
1427.79741936488	973.200012207031
1428.43928807403	969.400024414063
1429.0810737054	966.200012207031
1429.72277626656	967.599975585938
1430.36439576504	975.799987792969
1431.00593220841	968
1431.64738560419	967.799987792969
1432.28875595995	972.799987792969
1432.93004328324	973.599975585938
1433.57124758159	974.599975585938
1434.21236886255	977
1434.85340713368	974.200012207031
1435.49436240252	973.400024414063
1436.13523467661	971.599975585938
1436.77602396349	970.799987792969
1437.41673027073	972
1438.05735360585	975
1438.69789397641	976.799987792969
1439.33835138994	984.200012207031
1439.978725854	975.200012207031
1440.61901737612	976.400024414063
1441.25922596385	975.200012207031
1441.89935162473	978.599975585938
1442.53939436631	980
1443.17935419612	973
1443.81923112171	974.200012207031
1444.45902515061	972.400024414063
1445.09873629038	972.599975585938
1445.73836454854	966
1446.37790993265	975.799987792969
1447.01737245024	973
1447.65675210885	974.400024414063
1448.29604891602	968
1448.93526287928	971.200012207031
1449.57439400618	969.400024414063
1450.21344230426	968
1450.85240778105	968.200012207031
1451.49129044409	969.799987792969
1452.13009030092	971.200012207031
1452.76880735907	972.599975585938
1453.40744162608	970.400024414063
1454.04599310949	967.799987792969
1454.68446181683	968.200012207031
1455.32284775564	969.400024414063
1455.96115093345	964.799987792969
1456.5993713578	965.200012207031
1457.23750903623	970.599975585938
1457.87556397626	969
1458.51353618543	970.400024414063
1459.15142567127	972.200012207031
1459.78923244132	975.200012207031
1460.42695650311	971.200012207031
1461.06459786417	972.200012207031
1461.70215653203	971.200012207031
1462.33963251423	968.799987792969
1462.97702581829	969.799987792969
1463.61433645175	969.599975585938
1464.25156442214	960.400024414063
1464.88870973699	963.599975585938
1465.52577240382	967.400024414063
1466.16275243017	970
1466.79964982356	964.799987792969
1467.43646459154	970.200012207031
1468.07319674161	969.200012207031
1468.70984628132	973.200012207031
1469.34641321818	973
1469.98289755974	970.400024414063
1470.6192993135	973.599975585938
1471.25561848701	975.400024414063
1471.89185508779	971.599975585938
1472.52800912336	969.599975585938
1473.16408060124	965.599975585938
1473.80006952897	967.799987792969
1474.43597591407	968.799987792969
1475.07179976406	972.799987792969
1475.70754108647	966.599975585938
1476.34319988883	965.599975585938
1476.97877617865	969.799987792969
1477.61426996345	967.200012207031
1478.24968125077	961.200012207031
1478.88501004812	962.799987792969
1479.52025636303	962.799987792969
1480.15542020302	960.799987792969
1480.79050157561	964.599975585938
1481.42550048832	972.200012207031
1482.06041694867	969.799987792969
1482.69525096418	972.200012207031
1483.33000254237	974
1483.96467169077	969.200012207031
1484.59925841689	976.400024414063
1485.23376272825	969
1485.86818463237	974
1486.50252413677	975.200012207031
1487.13678124896	968.200012207031
1487.77095597646	971.200012207031
1488.4050483268	968.400024414063
1489.03905830749	969.400024414063
1489.67298592604	966.599975585938
1490.30683118996	969
1490.9405941068	968.599975585938
1491.57427468403	966
1492.2078729292	963.200012207031
1492.84138884981	966
1493.47482245338	965.599975585938
1494.10817374742	966.200012207031
1494.74144273944	971.799987792969
1495.37462943696	971.599975585938
1496.0077338475	964.599975585938
1496.64075597856	965.799987792969
1497.27369583765	966.799987792969
1497.9065534323	966
1498.53932877001	964.200012207031
1499.17202185829	966.599975585938
1499.80463270465	965.200012207031
1500.43716131661	963.200012207031
1501.06960770167	968.200012207031
1501.70197186735	964.200012207031
1502.33425382116	957
1502.96645357059	962
1503.59857112317	964
1504.23060648641	968.599975585938
1504.8625596678	964
1505.49443067486	967.200012207031
1506.1262195151	969.400024414063
1506.75792619602	971.799987792969
1507.38955072513	964.799987792969
1508.02109310993	970.799987792969
1508.65255335794	967.200012207031
1509.28393147666	974
1509.91522747359	974
1510.54644135624	978.599975585938
1511.17757313212	974.200012207031
1511.80862280872	970.799987792969
1512.43959039356	972
1513.07047589413	968.799987792969
1513.70127931795	961.599975585938
1514.33200067251	973.400024414063
1514.96263996531	976.599975585938
1515.59319720386	974.799987792969
1516.22367239567	973.200012207031
1516.85406554822	966.400024414063
1517.48437666903	967.200012207031
1518.1146057656	964.400024414063
1518.74475284542	959.200012207031
1519.374817916	962.799987792969
1520.00480098483	968.200012207031
1520.63470205942	967.599975585938
1521.26452114726	967.599975585938
1521.89425825586	968.400024414063
1522.52391339271	964.200012207031
1523.15348656531	965
1523.78297778116	963.400024414063
1524.41238704775	964.200012207031
1525.04171437259	964.799987792969
1525.67095976317	963.799987792969
1526.30012322699	961.200012207031
1526.92920477154	968.599975585938
1527.55820440432	968.200012207031
1528.18712213283	966.599975585938
1528.81595796455	957.599975585938
1529.44471190699	962.400024414063
1530.07338396764	964
1530.70197415399	961.200012207031
1531.33048247353	960.400024414063
1531.95890893377	964
1532.58725354219	962.400024414063
1533.21551630629	960.400024414063
1533.84369723356	961.599975585938
1534.47179633148	958.400024414063
1535.09981360757	960.799987792969
1535.72774906929	959
1536.35560272415	960.799987792969
1536.98337457963	964.599975585938
1537.61106464323	963.400024414063
1538.23867292243	962
1538.86619942473	962.400024414063
1539.49364415762	965.400024414063
1540.12100712857	966.799987792969
1540.74828834509	966.799987792969
1541.37548781466	963.400024414063
1542.00260554478	964
1542.62964154291	966.200012207031
1543.25659581655	960.200012207031
1543.8834683732	955.599975585938
1544.51025922034	958.400024414063
1545.13696836544	956
1545.76359581601	949.799987792969
1546.39014157952	953
1547.01660566345	953.799987792969
1547.64298807531	950.599975585938
1548.26928882255	954.200012207031
1548.89550791269	956.799987792969
1549.52164535318	961
1550.14770115153	952.799987792969
1550.77367531521	958.400024414063
1551.39956785171	959.200012207031
1552.0253787685	956.799987792969
1552.65110807307	953.799987792969
1553.2767557729	954.400024414063
1553.90232187548	955.400024414063
1554.52780638828	958.799987792969
1555.15320931879	959.799987792969
1555.77853067447	960.799987792969
1556.40377046282	956.799987792969
1557.02892869132	961.400024414063
1557.65400536744	958.599975585938
1558.27900049866	956
1558.90391409247	958.400024414063
1559.52874615633	961.200012207031
1560.15349669773	960
1560.77816572414	959.799987792969
1561.40275324305	959.799987792969
1562.02725926192	956.400024414063
1562.65168378824	957.799987792969
1563.27602682948	953
1563.90028839311	955
1564.52446848662	956.200012207031
1565.14856711748	958
1565.77258429316	958.799987792969
1566.39652002113	957
1567.02037430887	963.400024414063
1567.64414716387	961.599975585938
1568.26783859357	964.200012207031
1568.89144860547	961
1569.51497720703	959.599975585938
1570.13842440573	960.200012207031
1570.76179020904	966.400024414063
1571.38507462442	961.400024414063
1572.00827765936	963.400024414063
1572.63139932132	963
1573.25443961777	964.200012207031
1573.87739855618	968.200012207031
1574.50027614402	964.400024414063
1575.12307238877	960.200012207031
1575.74578729789	966.200012207031
1576.36842087885	964.200012207031
1576.99097313912	960.400024414063
1577.61344408616	963
1578.23583372745	961.200012207031
1578.85814207046	958.799987792969
1579.48036912264	954.799987792969
1580.10251489147	957.200012207031
1580.72457938441	959.799987792969
1581.34656260893	952
1581.9684645725	953.599975585938
1582.59028528258	948.400024414063
1583.21202474663	953.799987792969
1583.83368297212	954.400024414063
1584.45525996652	956.799987792969
1585.07675573728	955.799987792969
1585.69817029188	952.599975585938
1586.31950363778	951.599975585938
1586.94075578243	951.599975585938
1587.5619267333	952.599975585938
1588.18301649786	953.799987792969
1588.80402508357	950.599975585938
1589.42495249788	947.799987792969
1590.04579874826	951
1590.66656384217	948.400024414063
1591.28724778707	948.200012207031
1591.90785059042	950.799987792969
1592.52837225968	951
1593.14881280232	946
1593.76917222578	951.400024414063
1594.38945053753	950.400024414063
1595.00964774502	945.200012207031
1595.62976385573	952.200012207031
1596.24979887709	950.599975585938
1596.86975281657	953.400024414063
1597.48962568164	952.599975585938
1598.10941747974	953
1598.72912821832	952.200012207031
1599.34875790486	953.400024414063
1599.9683065468	960
1600.58777415159	954.599975585938
1601.2071607267	959.599975585938
1601.82646627958	956.200012207031
1602.44569081769	955.799987792969
1603.06483434846	957
1603.68389687937	956.599975585938
1604.30287841786	956.400024414063
1604.92177897139	954.599975585938
1605.54059854741	952.599975585938
1606.15933715337	950
1606.77799479672	954.799987792969
1607.39657148492	954.599975585938
1608.01506722542	953.799987792969
1608.63348202566	958.799987792969
1609.2518158931	947.799987792969
1609.87006883519	950.599975585938
1610.48824085939	951.599975585938
1611.10633197312	952
1611.72434218386	951.400024414063
1612.34227149904	950.200012207031
1612.96011992612	946.200012207031
1613.57788747254	949
1614.19557414575	945.200012207031
1614.8131799532	949.799987792969
1615.43070490234	951.599975585938
1616.04814900061	949.200012207031
1616.66551225545	943.799987792969
1617.28279467433	947.400024414063
1617.89999626467	946.599975585938
1618.51711703393	946.599975585938
1619.13415698955	950
1619.75111613898	948.200012207031
1620.36799448966	949.799987792969
1620.98479204903	946.200012207031
1621.60150882455	943.400024414063
1622.21814482364	945.599975585938
1622.83470005376	944.799987792969
1623.45117452235	943.400024414063
1624.06756823685	943.400024414063
1624.6838812047	944.400024414063
1625.30011343335	946.200012207031
1625.91626493022	943.200012207031
1626.53233570278	946.799987792969
1627.14832575845	945
1627.76423510468	943.799987792969
1628.38006374891	944
1628.99581169857	938.200012207031
1629.61147896111	938.599975585938
1630.22706554397	943.799987792969
1630.84257145457	947.599975585938
1631.45799670038	949
1632.07334128881	945.200012207031
1632.6886052273	943.400024414063
1633.3037885233	946.400024414063
1633.91889118425	944.799987792969
1634.53391321757	941.799987792969
1635.1488546307	940.200012207031
1635.76371543108	934.200012207031
1636.37849562616	941.799987792969
1636.99319522335	940.799987792969
1637.60781423009	945.200012207031
1638.22235265383	945.799987792969
1638.83681050198	945.799987792969
1639.451187782	946.400024414063
1640.0654845013	941.200012207031
1640.67970066734	950
1641.29383628752	944.799987792969
1641.9078913693	943.599975585938
1642.5218659201	944.200012207031
1643.13575994735	944.799987792969
1643.74957345849	945
1644.36330646094	949.400024414063
1644.97695896213	950.200012207031
1645.59053096951	953.599975585938
1646.20402249049	949.400024414063
1646.8174335325	949.200012207031
1647.43076410298	950.200012207031
1648.04401420935	951.200012207031
1648.65718385905	947.200012207031
1649.2702730595	948.599975585938
1649.88328181812	948.400024414063
1650.49621014236	948.799987792969
1651.10905803963	951.400024414063
1651.72182551735	943.200012207031
1652.33451258297	950.599975585938
1652.9471192439	946.400024414063
1653.55964550757	948.799987792969
1654.1720913814	942.599975585938
1654.78445687283	943.599975585938
1655.39674198926	941.799987792969
1656.00894673814	943
1656.62107112688	939.200012207031
1657.23311516291	939
1657.84507885365	937.400024414063
1658.45696220652	942
1659.06876522895	936.599975585938
1659.68048792835	938
1660.29213031217	936.200012207031
1660.90369238779	934.400024414063
1661.51517416267	934.200012207031
1662.12657564421	937.599975585938
1662.73789683984	932
1663.34913775697	930.799987792969
1663.96029840303	934
1664.57137878544	933.799987792969
1665.18237891161	934.200012207031
1665.79329878897	935.799987792969
1666.40413842493	936.200012207031
1667.01489782691	932.799987792969
1667.62557700233	934.799987792969
1668.2361759586	932.400024414063
1668.84669470315	933.599975585938
1669.4571332434	934
1670.06749158675	933.599975585938
1670.67776974062	933
1671.28796771243	936.400024414063
1671.8980855096	934.200012207031
1672.50812313954	936.599975585938
1673.11808060967	932.799987792969
1673.72795792739	929.200012207031
1674.33775510013	931.799987792969
1674.9474721353	930
1675.55710904031	929
1676.16666582257	923.799987792969
1676.7761424895	927
1677.38553904851	927.599975585938
1677.99485550702	931.200012207031
1678.60409187243	933.400024414063
1679.21324815215	989.799987792969
1679.8223243536	937.599975585938
1680.43132048419	929
1681.04023655132	928.799987792969
1681.64907256241	929.799987792969
1682.25782852487	932.599975585938
1682.86650444611	932.400024414063
1683.47510033353	930.200012207031
1684.08361619455	933.799987792969
1684.69205203657	929.599975585938
1685.300407867	927.799987792969
1685.90868369325	923.200012207031
1686.51687952272	928.799987792969
1687.12499536283	928.400024414063
1687.73303122098	930.799987792969
1688.34098710457	929.200012207031
1688.94886302101	931
1689.55665897772	928.799987792969
1690.16437498208	932.799987792969
1690.77201104152	933.200012207031
1691.37956716342	930.200012207031
1691.9870433552	932.400024414063
1692.59443962426	927.400024414063
1693.20175597801	924.200012207031
1693.80899242384	925.599975585938
1694.41614896916	928.799987792969
1695.02322562138	929.200012207031
1695.63022238789	932
1696.23713927609	927.599975585938
1696.8439762934	931.599975585938
1697.4507334472	931.400024414063
1698.05741074491	928.400024414063
1698.66400819391	924.200012207031
1699.27052580161	927.400024414063
1699.87696357542	928.200012207031
1700.48332152272	925.599975585938
1701.08959965092	928.400024414063
1701.69579796742	930.200012207031
1702.30191647962	924.400024414063
1702.90795519491	924
1703.51391412069	923.599975585938
1704.11979326437	924.200012207031
1704.72559263332	919.799987792969
1705.33131223496	923
1705.93695207668	921.400024414063
1706.54251216588	922.200012207031
1707.14799250994	922.400024414063
1707.75339311628	926.200012207031
1708.35871399227	924.599975585938
1708.96395514532	924.799987792969
1709.56911658282	922.799987792969
