634.948122577771	1071.19995117188
635.690341530823	1067.19995117188
636.43246851086	1067.59997558594
637.174503525845	1068
637.916446583745	1074
638.658297692538	1073.19995117188
639.400056860179	1073.19995117188
640.141724094637	1076.40002441406
640.883299403885	1076.40002441406
641.62478279588	1066
642.366174278594	1072.19995117188
643.107473859989	1077
643.848681548029	1073.80004882813
644.589797350679	1067.80004882813
645.330821275901	1075.40002441406
646.071753331665	1069.80004882813
646.812593525922	1079.40002441406
647.553341866646	1077.80004882813
648.293998361798	1073
649.03456301933	1077.40002441406
649.775035847216	1077.80004882813
650.515416853409	1077.40002441406
651.255706045874	1068.19995117188
651.995903432568	1072.40002441406
652.736009021453	1075.19995117188
653.476022820486	1077.80004882813
654.215944837629	1078.59997558594
654.955775080842	1074.19995117188
655.695513558081	1076.80004882813
656.435160277301	1084.19995117188
657.174715246465	1082.59997558594
657.914178473527	1090.40002441406
658.653549966449	1089.40002441406
659.392829733176	1091.80004882813
660.132017781678	1089.19995117188
660.871114119901	1092.59997558594
661.610118755803	1096.19995117188
662.349031697343	1094.59997558594
663.087852952468	1091.80004882813
663.826582529139	1098.40002441406
664.565220435305	1097.80004882813
665.30376667892	1099.19995117188
666.04222126794	1090.80004882813
666.780584210316	1086.40002441406
667.518855514	1092.59997558594
668.25703518694	1090.80004882813
668.995123237096	1090
669.733119672413	1087.80004882813
670.471024500842	1089.80004882813
671.208837730333	1085.80004882813
671.946559368839	1079
672.684189424308	1085.80004882813
673.421727904689	1077
674.159174817929	1082.19995117188
674.896530171977	1090.19995117188
675.633793974786	1086.40002441406
676.370966234295	1085.59997558594
677.108046958461	1082.40002441406
677.845036155219	1090
678.581933832528	1083.59997558594
679.318739998323	1089.80004882813
680.055454660558	1086.59997558594
680.792077827172	1082.40002441406
681.528609506116	1085
682.265049705331	1090.40002441406
683.001398432759	1094.40002441406
683.737655696349	1094
684.47382150404	1099.40002441406
685.20989586378	1097.40002441406
685.945878783503	1097.40002441406
686.68177027116	1094.59997558594
687.417570334688	1088
688.153278982032	1083.40002441406
688.888896221129	1080.80004882813
689.624422059921	1081.40002441406
690.359856506349	1081.80004882813
691.095199568354	1068
691.830451253874	1076.19995117188
692.565611570844	1082.40002441406
693.300680527212	1083.40002441406
694.03565813091	1083.19995117188
694.770544389877	1091.59997558594
695.505339312053	1096.80004882813
696.240042905372	1089.40002441406
696.974655177772	1096.19995117188
697.70917613719	1090
698.443605791561	1087.40002441406
699.177944148826	1097.59997558594
699.912191216909	1092.19995117188
700.646347003755	1087
701.380411517295	1086
702.114384765465	1085.59997558594
702.848266756195	1082.80004882813
703.582057497421	1090.59997558594
704.315756997074	1089.40002441406
705.049365263089	1086.19995117188
705.782882303399	1091
706.516308125936	1092.80004882813
707.249642738626	1091
707.982886149403	1096.40002441406
708.716038366204	1097.40002441406
709.449099396949	1096.59997558594
710.182069249577	1094.59997558594
710.914947932009	1090.40002441406
711.647735452181	1089.40002441406
712.380431818022	1096.80004882813
713.113037037454	1097.40002441406
713.845551118411	1093.40002441406
714.577974068818	1092.40002441406
715.310305896604	1095.19995117188
716.042546609694	1095.59997558594
716.774696216013	1094.80004882813
717.506754723493	1098.19995117188
718.238722140053	1104.59997558594
718.970598473624	1096.40002441406
719.702383732127	1098.19995117188
720.43407792349	1094.40002441406
721.165681055634	1099.19995117188
721.897193136486	1090.80004882813
722.628614173966	1091.80004882813
723.359944175997	1098.59997558594
724.091183150505	1098.80004882813
724.822331105412	1109.19995117188
725.553388048638	1100.80004882813
726.284353988106	1100.19995117188
727.015228931734	1105.80004882813
727.746012887449	1104.80004882813
728.476705863162	1101.40002441406
729.207307866803	1100.59997558594
729.937818906289	1101.59997558594
730.668238989535	1098.59997558594
731.398568124459	1102
732.128806318986	1096.80004882813
732.858953581034	1091.59997558594
733.589009918514	1085.59997558594
734.318975339348	1091.80004882813
735.048849851452	1099.19995117188
735.778633462744	1085.80004882813
736.508326181137	1095
737.237928014549	1094.40002441406
737.967438970897	1097
738.696859058095	1103.80004882813
739.426188284054	1101.19995117188
740.155426656692	1099
740.884574183922	1104.19995117188
741.613630873659	1101
742.342596733815	1086.19995117188
743.071471772302	1093.40002441406
743.800255997034	1096.40002441406
744.528949415921	1090.59997558594
745.257552036877	1091.80004882813
745.986063867811	1099.40002441406
746.714484916638	1101.80004882813
747.442815191261	1108.59997558594
748.171054699597	1108.40002441406
748.899203449554	1093.59997558594
749.627261449039	1100.80004882813
750.355228705966	1103.40002441406
751.083105228239	1095.59997558594
751.810891023765	1101.59997558594
752.538586100459	1091.59997558594
753.266190466218	1094.19995117188
753.99370412896	1090.80004882813
754.721127096582	1096.19995117188
755.448459377	1093.40002441406
756.175700978114	1098.40002441406
756.902851907828	1090.59997558594
757.629912174055	1092.80004882813
758.356881784688	1102.59997558594
759.083760747639	1108.40002441406
759.810549070817	1112
760.537246762113	1096.19995117188
761.263853829442	1103.80004882813
761.990370280698	1101.40002441406
762.716796123791	1092.59997558594
763.443131366618	1102.40002441406
764.169376017082	1097
764.895530083085	1100
765.621593572527	1103.80004882813
766.347566493312	1110.19995117188
767.073448853336	1112.59997558594
767.799240660502	1120.19995117188
768.524941922707	1120.59997558594
769.250552647854	1126
769.976072843836	1127.40002441406
770.701502518551	1127.19995117188
771.426841679905	1136.59997558594
772.152090335793	1133.40002441406
772.877248494107	1138.59997558594
773.602316162747	1138.80004882813
774.327293349609	1140.40002441406
775.052180062592	1140.80004882813
775.776976309589	1145.40002441406
776.501682098496	1140.40002441406
777.226297437206	1136.59997558594
777.950822333616	1125.80004882813
778.675256795621	1124
779.399600831111	1126.19995117188
780.123854447983	1107.40002441406
780.84801765413	1107.80004882813
781.572090457441	1111.59997558594
782.296072865811	1101.59997558594
783.019964887131	1113.40002441406
783.743766529297	1104.40002441406
784.467477800194	1114.40002441406
785.191098707719	1114.19995117188
785.914629259756	1118.80004882813
786.638069464194	1114
787.361419328932	1110.19995117188
788.084678861852	1119.59997558594
788.807848070845	1118.40002441406
789.530926963798	1107.59997558594
790.253915548602	1110.59997558594
790.976813833144	1106
791.699621825307	1103.80004882813
792.422339532986	1102.40002441406
793.144966964061	1107.59997558594
793.86750412642	1104.80004882813
794.589951027946	1095.59997558594
795.312307676536	1103.59997558594
796.03457408006	1095.80004882813
796.756750246417	1089.59997558594
797.478836183477	1106.40002441406
798.200831899137	1093.19995117188
798.92273740127	1095.19995117188
799.644552697769	1105
800.36627779651	1116
801.087912705374	1101.59997558594
801.809457432251	1103
802.530911985017	1096
803.252276371558	1096.19995117188
803.973550599748	1098.40002441406
804.694734677472	1099.40002441406
805.415828612611	1110.80004882813
806.136832413045	1113.40002441406
806.857746086646	1110.19995117188
807.578569641305	1112.19995117188
808.299303084892	1105
809.019946425289	1096.80004882813
809.740499670372	1092
810.460962828022	1098.59997558594
811.181335906114	1099.59997558594
811.901618912524	1099
812.621811855131	1099
813.341914741809	1105.80004882813
814.061927580433	1102.40002441406
814.781850378881	1105.80004882813
815.501683145025	1106.19995117188
816.221425886743	1100.40002441406
816.941078611903	1106.80004882813
817.660641328387	1102.40002441406
818.380114044065	1106.19995117188
819.099496766808	1106
819.818789504492	1110.80004882813
820.53799226499	1106
821.257105056168	1103.59997558594
821.976127885904	1103.80004882813
822.695060762064	1107.40002441406
823.413903692525	1116.19995117188
824.132656685151	1121
824.851319747817	1108.80004882813
825.569892888388	1110.80004882813
826.288376114739	1095.40002441406
827.006769434737	1103
827.725072856249	1095.80004882813
828.443286387142	1098.40002441406
829.161410035285	1099.19995117188
829.87944380855	1108.19995117188
830.597387714798	1101.59997558594
831.315241761898	1094
832.033005957715	1101
832.750680310119	1104.40002441406
833.468264826969	1103.40002441406
834.18575951614	1102.19995117188
834.903164385486	1108.40002441406
835.620479442878	1097.40002441406
836.337704696181	1103.40002441406
837.054840153255	1097.80004882813
837.771885821962	1100.40002441406
838.488841710172	1101.59997558594
839.20570782574	1101.59997558594
839.922484176531	1102
840.639170770409	1099.59997558594
841.355767615231	1098.40002441406
842.072274718864	1097.80004882813
842.788692089164	1104.80004882813
843.505019733993	1101.19995117188
844.221257661209	1103
844.937405878676	1098
845.65346439425	1095.40002441406
846.369433215789	1097.59997558594
847.085312351156	1102.40002441406
847.801101808205	1095.40002441406
848.516801594793	1093.40002441406
849.232411718781	1103.59997558594
849.947932188021	1100.59997558594
850.663363010376	1095.40002441406
851.378704193698	1099
852.093955745842	1104.80004882813
852.809117674669	1091.80004882813
853.524189988028	1106.19995117188
854.239172693778	1105
854.954065799768	1099.19995117188
855.668869313857	1094.59997558594
856.383583243899	1108.80004882813
857.098207597743	1105.80004882813
857.812742383246	1099.59997558594
858.527187608255	1101
859.241543280628	1090
859.955809408218	1089.59997558594
860.669985998868	1092.19995117188
861.384073060437	1090.19995117188
862.098070600772	1091.40002441406
862.811978627724	1091.59997558594
863.52579714914	1101.19995117188
864.239526172873	1102.19995117188
864.953165706776	1099.19995117188
865.666715758687	1092.80004882813
866.380176336464	1101.40002441406
867.093547447951	1104.80004882813
867.806829100996	1101.80004882813
868.520021303444	1095.80004882813
869.233124063149	1104.80004882813
869.94613738795	1095.59997558594
870.659061285693	1098
871.37189576423	1097
872.084640831403	1095.80004882813
872.797296495057	1088
873.509862763039	1090.19995117188
874.22233964319	1092.19995117188
874.934727143353	1092.40002441406
875.647025271374	1102
876.359234035097	1095
877.071353442361	1110
877.783383501015	1102.40002441406
878.495324218895	1112.19995117188
879.207175603844	1106.59997558594
879.918937663705	1099
880.630610406318	1097.80004882813
881.342193839524	1097.59997558594
882.053687971161	1088.80004882813
882.765092809069	1102.19995117188
883.476408361091	1101.80004882813
884.187634635066	1098.59997558594
884.898771638828	1102.19995117188
885.609819380221	1094.80004882813
886.320777867076	1100.40002441406
887.031647107236	1100.40002441406
887.742427108536	1101.59997558594
888.453117878816	1105.19995117188
889.16371942591	1099.59997558594
889.874231757652	1105
890.584654881883	1104.80004882813
891.294988806434	1112.40002441406
892.005233539141	1116.59997558594
892.715389087837	1115.19995117188
893.42545546036	1106.80004882813
894.135432664543	1105.59997558594
894.845320708216	1103.19995117188
895.555119599216	1102.19995117188
896.264829345375	1093.80004882813
896.974449954526	1097.40002441406
897.683981434496	1097.59997558594
898.393423793125	1100.80004882813
899.102777038235	1101.80004882813
899.812041177664	1102
900.521216219239	1104
901.230302170793	1105.80004882813
901.939299040155	1105
902.64820683515	1110
903.357025563612	1103.19995117188
904.065755233368	1111.19995117188
904.774395852247	1110.80004882813
905.482947428076	1099
906.191409968682	1095.59997558594
906.899783481897	1099.59997558594
907.608067975538	1094
908.316263457443	1102
909.02436993543	1099.19995117188
909.732387417327	1095.80004882813
910.440315910959	1088.19995117188
911.148155424154	1094.40002441406
911.855905964731	1102.59997558594
912.563567540521	1094.59997558594
913.271140159339	1100.59997558594
913.978623829017	1098
914.686018557374	1094.40002441406
915.393324352237	1090
916.100541221421	1097.59997558594
916.807669172752	1093.59997558594
917.514708214054	1090.80004882813
918.221658353142	1096.19995117188
918.928519597843	1097.40002441406
919.635291955976	1105
920.341975435358	1104.40002441406
921.048570043813	1092.59997558594
921.75507578916	1103.59997558594
922.461492679212	1100
923.167820721795	1098.59997558594
923.874059924726	1096.40002441406
924.58021029582	1108.40002441406
925.286271842893	1111.40002441406
925.992244573769	1100.19995117188
926.698128496262	1095.19995117188
927.403923618184	1103.40002441406
928.109629947355	1100.40002441406
928.815247491593	1097.59997558594
929.520776258708	1093.80004882813
930.226216256519	1087.40002441406
930.931567492841	1093.19995117188
931.636829975482	1088.59997558594
932.342003712263	1094.19995117188
933.047088710995	1097
933.752084979491	1096.59997558594
934.456992525564	1102
935.161811357024	1096
935.866541481688	1093.40002441406
936.571182907363	1088.19995117188
937.275735641861	1093.59997558594
937.980199692995	1085.19995117188
938.684575068572	1092.19995117188
939.388861776411	1099
940.093059824311	1098.80004882813
940.797169220085	1093.59997558594
941.501189971544	1084.40002441406
942.205122086495	1091.59997558594
942.908965572751	1089
943.612720438111	1101.59997558594
944.316386690391	1096
945.019964337391	1096.80004882813
945.723453386924	1098.80004882813
946.426853846795	1096.59997558594
947.130165724808	1096.19995117188
947.83338902877	1089.59997558594
948.536523766488	1089.40002441406
949.239569945764	1091
949.942527574402	1089.19995117188
950.64539666021	1089.19995117188
951.348177210993	1088.59997558594
952.050869234548	1090
952.753472738683	1093.19995117188
953.455987731199	1092
954.158414219898	1099.59997558594
954.860752212587	1099.40002441406
955.563001717061	1093.59997558594
956.265162741124	1093.19995117188
956.967235292576	1099.19995117188
957.669219379224	1089.19995117188
958.371115008857	1082.80004882813
959.072922189283	1085.80004882813
959.774640928301	1081.80004882813
960.476271233708	1087.80004882813
961.177813113301	1092
961.879266574882	1089
962.580631626248	1093.40002441406
963.281908275194	1096.80004882813
963.98309652952	1095.59997558594
964.684196397022	1096
965.3852078855	1091.80004882813
966.086131002745	1088.80004882813
966.786965756555	1084
967.487712154726	1090.59997558594
968.188370205055	1086.40002441406
968.888939915331	1091
969.589421293352	1087.40002441406
970.289814346909	1085.59997558594
970.990119083801	1088.40002441406
971.690335511819	1084.80004882813
972.39046363875	1082
973.090503472398	1083.19995117188
973.790455020545	1087
974.490318290987	1083
975.190093291516	1085.40002441406
975.889780029923	1096.40002441406
976.589378513998	1085
977.288888751527	1087
977.988310750308	1089.40002441406
978.687644518122	1083.80004882813
979.386890062767	1078.80004882813
980.086047392025	1085.80004882813
980.785116513689	1091.59997558594
981.484097435542	1091
982.182990165377	1095
982.88179471098	1094.40002441406
983.580511080137	1094.59997558594
984.279139280632	1096
984.977679320253	1089.59997558594
985.67613120679	1087
986.374494948027	1090.40002441406
987.072770551745	1093.19995117188
987.770958025731	1089.19995117188
988.469057377772	1092
989.167068615649	1096.19995117188
989.864991747145	1099.19995117188
990.562826780047	1093.40002441406
991.260573722134	1092
991.958232581195	1089
992.655803365003	1094.80004882813
993.353286081346	1088.80004882813
994.050680738006	1088.80004882813
994.74798734276	1085.40002441406
995.44520590339	1089.40002441406
996.142336427681	1084.59997558594
996.839378923407	1085.59997558594
997.536333398348	1086.19995117188
998.233199860289	1088.59997558594
998.929978317004	1096
999.626668776274	1090.19995117188
1000.32327124587	1089.80004882813
1001.01978573359	1079.19995117188
1001.71621224718	1080.59997558594
1002.41255079445	1081
1003.10880138315	1077.80004882813
1003.80496402107	1078.40002441406
1004.50103871599	1083
1005.19702547567	1086
1005.8929243079	1089
1006.58873522045	1096
1007.2844582211	1084.40002441406
1007.98009331761	1091.80004882813
1008.67564051776	1089
1009.37109982933	1088.80004882813
1010.06647126009	1087.19995117188
1010.7617548178	1086.19995117188
1011.45695051026	1086.59997558594
1012.15205834522	1092.19995117188
1012.84707833045	1088.19995117188
1013.54201047373	1079.59997558594
1014.23685478284	1089.59997558594
1014.93161126553	1088.80004882813
1015.62627992959	1090.80004882813
1016.32086078277	1085.40002441406
1017.01535383285	1082.59997558594
1017.70975908761	1075.59997558594
1018.40407655479	1082.59997558594
1019.09830624219	1083
1019.79244815755	1098.40002441406
1020.48650230866	1102
1021.18046870328	1091
1021.87434734917	1098.80004882813
1022.56813825411	1093
1023.26184142584	1086.40002441406
1023.95545687216	1086.59997558594
1024.64898460082	1086.19995117188
1025.34242461957	1083.59997558594
1026.0357769362	1080.19995117188
1026.72904155846	1086
1027.42221849412	1083
1028.11530775094	1083.40002441406
1028.80830933668	1080.19995117188
1029.50122325911	1081.59997558594
1030.19404952599	1087.59997558594
1030.88678814508	1082.19995117188
1031.57943912414	1083.80004882813
1032.27200247093	1088.40002441406
1032.96447819323	1089.80004882813
1033.65686629878	1087
1034.34916679534	1088
1035.04137969068	1086.80004882813
1035.73350499256	1091
1036.42554270874	1096.40002441406
1037.11749284697	1089.59997558594
1037.80935541501	1095.59997558594
1038.50113042062	1099.19995117188
1039.19281787156	1086.19995117188
1039.88441777559	1085
1040.57593014046	1088.59997558594
1041.26735497393	1082.80004882813
1041.95869228376	1089
1042.6499420777	1082.19995117188
1043.3411043635	1080.80004882813
1044.03217914893	1086.59997558594
1044.72316644174	1083.40002441406
1045.41406624968	1084
1046.1048785805	1084
1046.79560344197	1079
1047.48624084182	1085.59997558594
1048.17679078783	1083.19995117188
1048.86725328774	1082.80004882813
1049.55762834929	1077.19995117188
1050.24791598025	1084.40002441406
1050.93811618837	1088.40002441406
1051.62822898139	1087.80004882813
1052.31825436707	1084.80004882813
1053.00819235315	1086.19995117188
1053.6980429474	1083.80004882813
1054.38780615755	1083.80004882813
1055.07748199136	1080.80004882813
1055.76707045658	1081.40002441406
1056.45657156095	1077.59997558594
1057.14598531222	1074.59997558594
1057.83531171814	1084.19995117188
1058.52455078646	1084.80004882813
1059.21370252494	1092.19995117188
1059.90276694129	1089.19995117188
1060.5917440433	1083
1061.28063383868	1088
1061.9694363352	1078.80004882813
1062.65815154059	1077.59997558594
1063.34677946261	1075.40002441406
1064.03532010899	1085.80004882813
1064.72377348748	1079.59997558594
1065.41213960583	1068.59997558594
1066.10041847177	1078.59997558594
1066.78861009306	1080.40002441406
1067.47671447743	1076.19995117188
1068.16473163263	1077.19995117188
1068.85266156639	1080.80004882813
1069.54050428647	1085
1070.2282598006	1075.19995117188
1070.91592811652	1077.59997558594
1071.60350924198	1086
1072.29100318471	1083.19995117188
1072.97840995245	1091.19995117188
1073.66572955295	1084.40002441406
1074.35296199394	1081.40002441406
1075.04010728316	1088.59997558594
1075.72716542836	1080.19995117188
1076.41413643726	1091
1077.10102031761	1082.19995117188
1077.78781707715	1080.59997558594
1078.4745267236	1086.59997558594
1079.16114926471	1074
1079.84768470822	1074.19995117188
1080.53413306185	1067.80004882813
1081.22049433336	1069.80004882813
1081.90676853046	1069.40002441406
1082.5929556609	1080.40002441406
1083.27905573241	1075.59997558594
1083.96506875272	1079.19995117188
1084.65099472957	1073.40002441406
1085.3368336707	1080.59997558594
1086.02258558383	1078
1086.70825047669	1080.59997558594
1087.39382835703	1073.19995117188
1088.07931923257	1076.19995117188
1088.76472311104	1076.80004882813
1089.45004000018	1080.59997558594
1090.13526990771	1086.80004882813
1090.82041284137	1075.19995117188
1091.50546880889	1070.19995117188
1092.19043781799	1070
1092.87531987642	1074.80004882813
1093.56011499188	1072.19995117188
1094.24482317212	1066.59997558594
1094.92944442486	1070.80004882813
1095.61397875783	1076.40002441406
1096.29842617876	1074.19995117188
1096.98278669537	1074
1097.6670603154	1073.80004882813
1098.35124704656	1069
1099.03534689659	1060
1099.71935987322	1061
1100.40328598416	1070
1101.08712523713	1071.19995117188
1101.77087763988	1068.40002441406
1102.45454320012	1070.40002441406
1103.13812192557	1073
1103.82161382396	1075.80004882813
1104.50501890301	1087.19995117188
1105.18833717045	1077.80004882813
1105.87156863399	1078.40002441406
1106.55471330137	1078.40002441406
1107.2377711803	1079.80004882813
1107.9207422785	1084.59997558594
1108.60362660369	1088.40002441406
1109.2864241636	1083.59997558594
1109.96913496594	1084.59997558594
1110.65175901844	1076.59997558594
1111.33429632882	1080
1112.01674690479	1076.59997558594
1112.69911075408	1080.40002441406
1113.38138788439	1083
1114.06357830346	1083.59997558594
1114.745682019	1086.19995117188
1115.42769903872	1076.80004882813
1116.10962937035	1082
1116.7914730216	1083.40002441406
1117.47323000018	1088.40002441406
1118.15490031382	1084.19995117188
1118.83648397022	1093.80004882813
1119.51798097712	1087.59997558594
1120.1993913422	1085.59997558594
1120.88071507321	1085
1121.56195217784	1090.19995117188
1122.24310266381	1093
1122.92416653884	1090.59997558594
1123.60514381064	1085.59997558594
1124.28603448692	1086.80004882813
1124.9668385754	1086
1125.64755608378	1076.40002441406
1126.32818701978	1085
1127.00873139111	1085.19995117188
1127.68918920548	1086.80004882813
1128.3695604706	1085.40002441406
1129.04984519419	1083.40002441406
1129.73004338394	1082.19995117188
1130.41015504758	1089
1131.09018019281	1082
1131.77011882734	1094.19995117188
1132.44997095888	1084
1133.12973659514	1085.80004882813
1133.80941574381	1088.59997558594
1134.48900841263	1078
1135.16851460927	1081.40002441406
1135.84793434147	1081.59997558594
1136.52726761692	1079.80004882813
1137.20651444333	1075.59997558594
1137.8856748284	1073.59997558594
1138.56474877984	1074.19995117188
1139.24373630536	1081.80004882813
1139.92263741265	1073
1140.60145210943	1076.80004882813
1141.28018040339	1072.59997558594
1141.95882230225	1067.80004882813
1142.6373778137	1073
1143.31584694545	1067.59997558594
1143.99422970519	1076.40002441406
1144.67252610064	1069
1145.35073613949	1065.19995117188
1146.02885982944	1064.59997558594
1146.7068971782	1072.59997558594
1147.38484819347	1070
1148.06271288294	1071.59997558594
1148.74049125432	1074
1149.41818331531	1080.59997558594
1150.0957890736	1073.40002441406
1150.77330853689	1080
1151.45074171289	1078
1152.12808860928	1074.19995117188
1152.80534923378	1072
1153.48252359407	1078.40002441406
1154.15961169786	1076.40002441406
1154.83661355283	1070.59997558594
1155.51352916669	1075
1156.19035854713	1078.80004882813
1156.86710170185	1080.80004882813
1157.54375863855	1077.59997558594
1158.22032936491	1081
1158.89681388863	1075.80004882813
1159.57321221741	1070.80004882813
1160.24952435894	1068
1160.92575032092	1078.59997558594
1161.60189011103	1077.80004882813
1162.27794373697	1069.19995117188
1162.95391120644	1078.19995117188
1163.62979252712	1074.59997558594
1164.3055877067	1076.80004882813
1164.98129675288	1076.40002441406
1165.65691967336	1077
1166.33245647581	1082.59997558594
1167.00790716792	1081.19995117188
1167.6832717574	1077.40002441406
1168.35855025193	1074.80004882813
1169.0337426592	1081.40002441406
1169.70884898689	1083.19995117188
1170.3838692427	1081.19995117188
1171.05880343431	1070
1171.73365156941	1078.40002441406
1172.40841365569	1074.80004882813
1173.08308970083	1073.19995117188
1173.75767971253	1078.59997558594
1174.43218369847	1078.19995117188
1175.10660166633	1080.40002441406
1175.7809336238	1083
1176.45517957857	1087
1177.12933953832	1091
1177.80341351073	1078
1178.47740150349	1085
1179.15130352429	1085.59997558594
1179.8251195808	1084
1180.49884968071	1081.80004882813
1181.1724938317	1089.19995117188
1181.84605204145	1089.80004882813
1182.51952431766	1093.80004882813
1183.19291066799	1089.40002441406
1183.86621110013	1089
1184.53942562176	1085.59997558594
1185.21255424057	1086.40002441406
1185.88559696422	1088.80004882813
1186.55855380041	1094
1187.2314247568	1095.40002441406
1187.90420984109	1096.59997558594
1188.57690906095	1089.40002441406
1189.24952242405	1095.19995117188
1189.92204993808	1090.80004882813
1190.59449161071	1087.80004882813
1191.26684744962	1083
1191.93911746249	1084.80004882813
1192.61130165699	1085.40002441406
1193.28340004081	1086.80004882813
1193.95541262161	1089.59997558594
1194.62733940707	1082.40002441406
1195.29918040487	1081.59997558594
1195.97093562269	1067.19995117188
1196.64260506819	1077.19995117188
1197.31418874905	1080.59997558594
1197.98568667295	1081.59997558594
1198.65709884755	1080.19995117188
1199.32842528053	1082.59997558594
1199.99966597957	1085.40002441406
1200.67082095234	1075.80004882813
1201.3418902065	1081.40002441406
1202.01287374974	1083.40002441406
1202.68377158971	1080.19995117188
1203.3545837341	1076.19995117188
1204.02531019057	1080.40002441406
1204.6959509668	1082.80004882813
1205.36650607045	1077.19995117188
1206.03697550919	1076.80004882813
1206.70735929069	1082
1207.37765742263	1079.19995117188
1208.04786991266	1074.40002441406
1208.71799676846	1070.80004882813
1209.38803799769	1082.80004882813
1210.05799360803	1080
1210.72786360714	1080.19995117188
1211.39764800268	1070.80004882813
1212.06734680233	1075.19995117188
1212.73696001375	1070.59997558594
1213.4064876446	1074.19995117188
1214.07592970255	1072
1214.74528619526	1069.80004882813
1215.4145571304	1073.59997558594
1216.08374251564	1072.40002441406
1216.75284235863	1062.19995117188
1217.42185666704	1065.80004882813
1218.09078544854	1064
1218.75962871078	1066
1219.42838646143	1061.80004882813
1220.09705870816	1070.59997558594
1220.76564545861	1073.19995117188
1221.43414672046	1068.40002441406
1222.10256250136	1060.59997558594
1222.77089280898	1071.80004882813
1223.43913765098	1074.19995117188
1224.107297035	1076.59997558594
1224.77537096873	1077.80004882813
1225.44335945981	1068.40002441406
1226.1112625159	1077.19995117188
1226.77908014467	1074.19995117188
1227.44681235376	1065
1228.11445915085	1070
1228.78202054357	1072
1229.44949653961	1068.40002441406
1230.11688714659	1066.80004882813
1230.7841923722	1064.80004882813
1231.45141222407	1061.59997558594
1232.11854670988	1076.80004882813
1232.78559583726	1063
1233.45255961388	1073.59997558594
1234.1194380474	1068.59997558594
1234.78623114546	1067.19995117188
1235.45293891572	1070.80004882813
1236.11956136583	1074
1236.78609850345	1082.19995117188
1237.45255033623	1085.19995117188
1238.11891687182	1077
1238.78519811788	1072.59997558594
1239.45139408205	1066.59997558594
1240.11750477198	1077
1240.78353019534	1069.59997558594
1241.44947035976	1077.40002441406
1242.11532527291	1071.80004882813
1242.78109494242	1068.40002441406
1243.44677937595	1068.80004882813
1244.11237858115	1071
1244.77789256567	1065.19995117188
1245.44332133715	1062.80004882813
1246.10866490325	1065.40002441406
1246.7739232716	1062.59997558594
1247.43909644987	1058.59997558594
1248.10418444569	1063.19995117188
1248.76918726671	1059.40002441406
1249.43410492059	1065.40002441406
1250.09893741496	1068.19995117188
1250.76368475747	1063.59997558594
1251.42834695576	1057.59997558594
1252.09292401749	1067.59997558594
1252.75741595029	1065.40002441406
1253.42182276182	1063
1254.08614445971	1058.59997558594
1254.75038105161	1066.19995117188
1255.41453254515	1057.80004882813
1256.07859894799	1055
1256.74258026777	1067
1257.40647651213	1062.40002441406
1258.0702876887	1061.80004882813
1258.73401380514	1064.19995117188
1259.39765486908	1066.40002441406
1260.06121088817	1070.40002441406
1260.72468187004	1063.59997558594
1261.38806782233	1063.40002441406
1262.05136875269	1061.40002441406
1262.71458466875	1070.19995117188
1263.37771557815	1073.40002441406
1264.04076148854	1076
1264.70372240753	1068.40002441406
1265.3665983428	1062.80004882813
1266.02938930195	1054.59997558594
1266.69209529263	1056.40002441406
1267.35471632249	1055.19995117188
1268.01725239914	1060.19995117188
1268.67970353024	1059
1269.34206972342	1063.59997558594
1270.00435098631	1068.80004882813
1270.66654732655	1069.59997558594
1271.32865875177	1065.59997558594
1271.9906852696	1073
1272.65262688768	1069.40002441406
1273.31448361365	1069
1273.97625545514	1069.40002441406
1274.63794241978	1066.40002441406
1275.2995445152	1064
1275.96106174903	1065
1276.62249412892	1066.19995117188
1277.28384166248	1069
1277.94510435735	1059.59997558594
1278.60628222116	1065.80004882813
1279.26737526155	1071
1279.92838348613	1070.19995117188
1280.58930690255	1071.80004882813
1281.25014551842	1066.40002441406
1281.91089934139	1073
1282.57156837907	1061.80004882813
1283.2321526391	1054.80004882813
1283.89265212911	1052.59997558594
1284.55306685671	1056.40002441406
1285.21339682955	1059.80004882813
1285.87364205525	1065.19995117188
1286.53380254142	1068.80004882813
1287.19387829571	1065.19995117188
1287.85386932573	1059.19995117188
1288.51377563911	1066
1289.17359724348	1064.19995117188
1289.83333414646	1063.19995117188
1290.49298635567	1069.80004882813
1291.15255387874	1068.59997558594
1291.8120367233	1065.80004882813
1292.47143489696	1063.40002441406
1293.13074840736	1061
1293.7899772621	1062.80004882813
1294.44912146882	1064.19995117188
1295.10818103513	1062.80004882813
1295.76715596866	1058.80004882813
1296.42604627704	1067.80004882813
1297.08485196787	1070.40002441406
1297.74357304878	1069
1298.4022095274	1067.59997558594
1299.06076141134	1063
1299.71922870821	1053.40002441406
1300.37761142565	1057
1301.03590957126	1052.19995117188
1301.69412315268	1053.80004882813
1302.3522521775	1056
1303.01029665336	1056.19995117188
1303.66825658787	1057.40002441406
1304.32613198865	1064.19995117188
1304.98392286332	1066.59997558594
1305.64162921948	1067
1306.29925106476	1069.80004882813
1306.95678840677	1072.19995117188
1307.61424125312	1070.19995117188
1308.27160961145	1077.59997558594
1308.92889348934	1084.80004882813
1309.58609289443	1084.80004882813
1310.24320783432	1085.80004882813
1310.90023831664	1085.40002441406
1311.55718434898	1081.80004882813
1312.21404593897	1082.19995117188
1312.87082309421	1085.80004882813
1313.52751582233	1076.59997558594
1314.18412413092	1080
1314.84064802761	1079.40002441406
1315.49708752	1077.80004882813
1316.1534426157	1082.19995117188
1316.80971332233	1073
1317.46589964749	1076
1318.1220015988	1083.40002441406
1318.77801918386	1068.40002441406
1319.43395241028	1069.80004882813
1320.08980128567	1075
1320.74556581764	1076.59997558594
1321.4012460138	1063.40002441406
1322.05684188176	1074
1322.71235342911	1074.80004882813
1323.36778066347	1073
1324.02312359245	1071
1324.67838222365	1072
1325.33355656468	1069.19995117188
1325.98864662314	1072.40002441406
1326.64365240663	1071.19995117188
1327.29857392277	1067.40002441406
1327.95341117915	1062.40002441406
1328.60816418339	1061
1329.26283294308	1068.59997558594
1329.91741746582	1065
1330.57191775923	1069.80004882813
1331.2263338309	1077
1331.88066568843	1066
1332.53491333943	1065.19995117188
1333.1890767915	1066.19995117188
1333.84315605224	1066.19995117188
1334.49715112925	1066.59997558594
1335.15106203013	1074.59997558594
1335.80488876249	1072.80004882813
1336.45863133391	1068.80004882813
1337.112289752	1076.80004882813
1337.76586402437	1075
1338.4193541586	1074.80004882813
1339.0727601623	1072.40002441406
1339.72608204306	1073
1340.37931980849	1065.40002441406
1341.03247346617	1067.40002441406
1341.68554302372	1073.19995117188
1342.33852848871	1076.40002441406
1342.99142986876	1078.80004882813
1343.64424717145	1077.40002441406
1344.29698040438	1078.59997558594
1344.94962957515	1075
1345.60219469135	1083.19995117188
1346.25467576058	1082.80004882813
1346.90707279042	1085.40002441406
1347.55938578848	1082
1348.21161476235	1085.19995117188
1348.86375971962	1080.40002441406
1349.51582066787	1088
1350.16779761472	1082.19995117188
1350.81969056774	1091.59997558594
1351.47149953453	1089
1352.12322452269	1092.40002441406
1352.77486553979	1095.59997558594
1353.42642259344	1089
1354.07789569122	1086.40002441406
1354.72928484072	1087.59997558594
1355.38059004953	1087.40002441406
1356.03181132525	1089.19995117188
1356.68294867545	1093
1357.33400210773	1088
1357.98497162968	1095.19995117188
1358.63585724889	1087.59997558594
1359.28665897294	1097.80004882813
1359.93737680942	1103.59997558594
1360.58801076591	1108.40002441406
1361.23856085001	1103.59997558594
1361.88902706929	1097.19995117188
1362.53940943135	1104.19995117188
1363.18970794377	1100.80004882813
1363.83992261413	1100.19995117188
1364.49005345003	1095.59997558594
1365.14010045904	1098.40002441406
1365.79006364874	1096.80004882813
1366.43994302673	1082.59997558594
1367.08973860058	1083.80004882813
1367.73945037788	1080.19995117188
1368.38907836621	1080.59997558594
1369.03862257315	1084.59997558594
1369.68808300629	1079.59997558594
1370.3374596732	1081
1370.98675258148	1074.40002441406
1371.63596173868	1070.59997558594
1372.28508715241	1073
1372.93412883024	1072.19995117188
1373.58308677974	1068.19995117188
1374.2319610085	1067.80004882813
1374.8807515241	1063.19995117188
1375.52945833412	1068.59997558594
1376.17808144612	1069
1376.82662086771	1062
1377.47507660644	1060.80004882813
1378.12344866989	1054.80004882813
1378.77173706565	1059.40002441406
1379.41994180129	1059.80004882813
1380.06806288439	1070.59997558594
1380.71610032252	1066.59997558594
1381.36405412326	1060.40002441406
1382.01192429419	1061.80004882813
1382.65971084287	1052
1383.30741377688	1057
1383.95503310381	1062
1384.60256883121	1055.80004882813
1385.25002096667	1057.19995117188
1385.89738951775	1062
1386.54467449204	1058.80004882813
1387.19187589709	1059.59997558594
1387.8389937405	1069.19995117188
1388.48602802982	1059.80004882813
1389.13297877262	1066
1389.77984597649	1064.80004882813
1390.42662964899	1064.19995117188
1391.07332979768	1067.40002441406
1391.71994643015	1051.59997558594
1392.36647955395	1055.40002441406
1393.01292917667	1052.80004882813
1393.65929530586	1051.80004882813
1394.3055779491	1054.80004882813
1394.95177711395	1061.80004882813
1395.59789280799	1050.40002441406
1396.24392503877	1060
1396.88987381387	1055.19995117188
1397.53573914086	1045
1398.1815210273	1056
1398.82721948075	1053.59997558594
1399.47283450878	1052.80004882813
1400.11836611897	1055.19995117188
1400.76381431886	1054.40002441406
1401.40917911603	1055
1402.05446051805	1049.40002441406
1402.69965853247	1058.80004882813
1403.34477316686	1049.59997558594
1403.98980442878	1054.80004882813
1404.6347523258	1054.59997558594
1405.27961686548	1046.59997558594
1405.92439805538	1052.40002441406
1406.56909590306	1049.40002441406
1407.21371041608	1055
1407.85824160202	1060.19995117188
1408.50268946841	1050.40002441406
1409.14705402284	1055.19995117188
1409.79133527285	1057
1410.43553322601	1051.80004882813
1411.07964788987	1055
1411.723679272	1055.40002441406
1412.36762737996	1057
1413.01149222129	1050.40002441406
1413.65527380357	1057.59997558594
1414.29897213435	1058.40002441406
1414.94258722118	1050.59997558594
1415.58611907163	1055.19995117188
1416.22956769325	1058.59997558594
1416.87293309359	1056.59997558594
1417.51621528021	1061.40002441406
1418.15941426067	1062.80004882813
1418.80253004253	1064.80004882813
1419.44556263333	1069.19995117188
1420.08851204063	1070.59997558594
1420.731378272	1064.59997558594
1421.37416133497	1071.59997558594
1422.0168612371	1065.59997558594
1422.65947798596	1058.80004882813
1423.30201158908	1061.59997558594
1423.94446205403	1053.59997558594
1424.58682938835	1054.19995117188
1425.2291135996	1063.19995117188
1425.87131469532	1061.59997558594
1426.51343268308	1056
1427.15546757042	1055.19995117188
1427.79741936488	1058.80004882813
1428.43928807403	1059.40002441406
1429.0810737054	1060
1429.72277626656	1056.40002441406
1430.36439576504	1063.59997558594
1431.00593220841	1058.59997558594
1431.64738560419	1057
1432.28875595995	1063.40002441406
1432.93004328324	1066.59997558594
1433.57124758159	1054.40002441406
1434.21236886255	1058.40002441406
1434.85340713368	1062.19995117188
1435.49436240252	1054.40002441406
1436.13523467661	1069.19995117188
1436.77602396349	1057.80004882813
1437.41673027073	1056.40002441406
1438.05735360585	1062.40002441406
1438.69789397641	1063.19995117188
1439.33835138994	1067
1439.978725854	1067.59997558594
1440.61901737612	1056
1441.25922596385	1066.80004882813
1441.89935162473	1067.40002441406
1442.53939436631	1066.59997558594
1443.17935419612	1056.40002441406
1443.81923112171	1064.40002441406
1444.45902515061	1064.40002441406
1445.09873629038	1065.59997558594
1445.73836454854	1060.19995117188
1446.37790993265	1054.40002441406
1447.01737245024	1052
1447.65675210885	1049.19995117188
1448.29604891602	1051.80004882813
1448.93526287928	1057.40002441406
1449.57439400618	1054.40002441406
1450.21344230426	1061
1450.85240778105	1065
1451.49129044409	1060
1452.13009030092	1059
1452.76880735907	1056.80004882813
1453.40744162608	1064.80004882813
1454.04599310949	1057.80004882813
1454.68446181683	1056.40002441406
1455.32284775564	1058.40002441406
1455.96115093345	1055.59997558594
1456.5993713578	1051.80004882813
1457.23750903623	1054.80004882813
1457.87556397626	1056
1458.51353618543	1051.80004882813
1459.15142567127	1050.19995117188
1459.78923244132	1052
1460.42695650311	1047.59997558594
1461.06459786417	1042.19995117188
1461.70215653203	1047.40002441406
1462.33963251423	1043.59997558594
1462.97702581829	1055.80004882813
1463.61433645175	1044.80004882813
1464.25156442214	1044.40002441406
1464.88870973699	1045.40002441406
1465.52577240382	1047.19995117188
1466.16275243017	1044.59997558594
1466.79964982356	1041
1467.43646459154	1041.19995117188
1468.07319674161	1048.80004882813
1468.70984628132	1048.19995117188
1469.34641321818	1060.59997558594
1469.98289755974	1058.40002441406
1470.6192993135	1053.80004882813
1471.25561848701	1052.59997558594
1471.89185508779	1055.40002441406
1472.52800912336	1052.80004882813
1473.16408060124	1050.59997558594
1473.80006952897	1048.80004882813
1474.43597591407	1053
1475.07179976406	1052.19995117188
1475.70754108647	1051.80004882813
1476.34319988883	1051.19995117188
1476.97877617865	1058.19995117188
1477.61426996345	1051
1478.24968125077	1057.80004882813
1478.88501004812	1053
1479.52025636303	1052
1480.15542020302	1053
1480.79050157561	1057
1481.42550048832	1049.59997558594
1482.06041694867	1050.19995117188
1482.69525096418	1045.80004882813
1483.33000254237	1050.19995117188
1483.96467169077	1049.59997558594
1484.59925841689	1045.40002441406
1485.23376272825	1053.59997558594
1485.86818463237	1053.80004882813
1486.50252413677	1054.40002441406
1487.13678124896	1053
1487.77095597646	1050
1488.4050483268	1048.80004882813
1489.03905830749	1054.80004882813
1489.67298592604	1054.40002441406
1490.30683118996	1057.59997558594
1490.9405941068	1055.80004882813
1491.57427468403	1055.59997558594
1492.2078729292	1053.59997558594
1492.84138884981	1055
1493.47482245338	1047.59997558594
1494.10817374742	1052.59997558594
1494.74144273944	1054.40002441406
1495.37462943696	1064.80004882813
1496.0077338475	1059
1496.64075597856	1053.40002441406
1497.27369583765	1054.59997558594
1497.9065534323	1059.19995117188
1498.53932877001	1057.59997558594
1499.17202185829	1055.80004882813
1499.80463270465	1051.19995117188
1500.43716131661	1064
1501.06960770167	1060.80004882813
1501.70197186735	1052.40002441406
1502.33425382116	1053.40002441406
1502.96645357059	1057.40002441406
1503.59857112317	1060
1504.23060648641	1055.59997558594
1504.8625596678	1067.19995117188
1505.49443067486	1063
1506.1262195151	1061.40002441406
1506.75792619602	1064.59997558594
1507.38955072513	1074.40002441406
1508.02109310993	1071.19995117188
1508.65255335794	1061.40002441406
1509.28393147666	1060
1509.91522747359	1056
1510.54644135624	1064.59997558594
1511.17757313212	1058.80004882813
1511.80862280872	1065.19995117188
1512.43959039356	1065.40002441406
1513.07047589413	1062.80004882813
1513.70127931795	1054.40002441406
1514.33200067251	1065.59997558594
1514.96263996531	1064.40002441406
1515.59319720386	1064.40002441406
1516.22367239567	1055.19995117188
1516.85406554822	1064
1517.48437666903	1052.80004882813
1518.1146057656	1052.80004882813
1518.74475284542	1049.80004882813
1519.374817916	1051.59997558594
1520.00480098483	1061
1520.63470205942	1058.19995117188
1521.26452114726	1049.59997558594
1521.89425825586	1052.19995117188
1522.52391339271	1043.19995117188
1523.15348656531	1049.19995117188
1523.78297778116	1048.80004882813
1524.41238704775	1048.40002441406
1525.04171437259	1057
1525.67095976317	1056.19995117188
1526.30012322699	1050.80004882813
1526.92920477154	1052.40002441406
1527.55820440432	1053
1528.18712213283	1046.40002441406
1528.81595796455	1047
1529.44471190699	1047.80004882813
1530.07338396764	1049.80004882813
1530.70197415399	1046.59997558594
1531.33048247353	1044
1531.95890893377	1039.80004882813
1532.58725354219	1041.40002441406
1533.21551630629	1044
1533.84369723356	1046.19995117188
1534.47179633148	1046.40002441406
1535.09981360757	1048.19995117188
1535.72774906929	1048.19995117188
1536.35560272415	1045.80004882813
1536.98337457963	1046
1537.61106464323	1047.40002441406
1538.23867292243	1044.80004882813
1538.86619942473	1046.40002441406
1539.49364415762	1047
1540.12100712857	1041.59997558594
1540.74828834509	1042.40002441406
1541.37548781466	1041.80004882813
1542.00260554478	1044.80004882813
1542.62964154291	1049.80004882813
1543.25659581655	1046.59997558594
1543.8834683732	1046.59997558594
1544.51025922034	1048.19995117188
1545.13696836544	1038.80004882813
1545.76359581601	1039
1546.39014157952	1041.59997558594
1547.01660566345	1040.80004882813
1547.64298807531	1034.40002441406
1548.26928882255	1037.19995117188
1548.89550791269	1037.80004882813
1549.52164535318	1038.80004882813
1550.14770115153	1042.59997558594
1550.77367531521	1044.19995117188
1551.39956785171	1043.19995117188
1552.0253787685	1043
1552.65110807307	1044
1553.2767557729	1041
1553.90232187548	1036.19995117188
1554.52780638828	1035.40002441406
1555.15320931879	1032.59997558594
1555.77853067447	1036.40002441406
1556.40377046282	1037
1557.02892869132	1033.40002441406
1557.65400536744	1034.59997558594
1558.27900049866	1039.19995117188
1558.90391409247	1039.80004882813
1559.52874615633	1039
1560.15349669773	1043.59997558594
1560.77816572414	1034.80004882813
1561.40275324305	1033.19995117188
1562.02725926192	1036.59997558594
1562.65168378824	1038.59997558594
1563.27602682948	1037
1563.90028839311	1034.80004882813
1564.52446848662	1038.59997558594
1565.14856711748	1042.80004882813
1565.77258429316	1033.80004882813
1566.39652002113	1037
1567.02037430887	1040.80004882813
1567.64414716387	1034
1568.26783859357	1039.80004882813
1568.89144860547	1035.19995117188
1569.51497720703	1041.80004882813
1570.13842440573	1039.59997558594
1570.76179020904	1044
1571.38507462442	1039
1572.00827765936	1041.19995117188
1572.63139932132	1043.59997558594
1573.25443961777	1047.59997558594
1573.87739855618	1047
1574.50027614402	1035.80004882813
1575.12307238877	1042.19995117188
1575.74578729789	1038.40002441406
1576.36842087885	1037.40002441406
1576.99097313912	1037.80004882813
1577.61344408616	1039.59997558594
1578.23583372745	1042.80004882813
1578.85814207046	1041.80004882813
1579.48036912264	1038.40002441406
1580.10251489147	1041.59997558594
1580.72457938441	1041
1581.34656260893	1040.59997558594
1581.9684645725	1043
1582.59028528258	1041.59997558594
1583.21202474663	1031.19995117188
1583.83368297212	1032.19995117188
1584.45525996652	1034.80004882813
1585.07675573728	1043.80004882813
1585.69817029188	1034
1586.31950363778	1024.80004882813
1586.94075578243	1020.59997558594
1587.5619267333	1029.80004882813
1588.18301649786	1021.59997558594
1588.80402508357	1022.40002441406
1589.42495249788	1029
1590.04579874826	1030.19995117188
1590.66656384217	1033.40002441406
1591.28724778707	1024.19995117188
1591.90785059042	1028.80004882813
1592.52837225968	1020.79998779297
1593.14881280232	1022.79998779297
1593.76917222578	1017.79998779297
1594.38945053753	1026.40002441406
1595.00964774502	1024
1595.62976385573	1029.40002441406
1596.24979887709	1035
1596.86975281657	1034.59997558594
1597.48962568164	1025
1598.10941747974	1027
1598.72912821832	1027.40002441406
1599.34875790486	1031.59997558594
1599.9683065468	1032.59997558594
1600.58777415159	1036.19995117188
1601.2071607267	1033.40002441406
1601.82646627958	1028.40002441406
1602.44569081769	1025.80004882813
1603.06483434846	1028
1603.68389687937	1023
1604.30287841786	1031.40002441406
1604.92177897139	1027.19995117188
1605.54059854741	1027.19995117188
1606.15933715337	1022
1606.77799479672	1024.40002441406
1607.39657148492	1021.79998779297
1608.01506722542	1022.79998779297
1608.63348202566	1025.80004882813
1609.2518158931	1021.79998779297
1609.87006883519	1016.40002441406
1610.48824085939	1022.20001220703
1611.10633197312	1018
1611.72434218386	1017.79998779297
1612.34227149904	1021.59997558594
1612.96011992612	1021.20001220703
1613.57788747254	1021.79998779297
1614.19557414575	1021
1614.8131799532	1021.20001220703
1615.43070490234	1022.40002441406
1616.04814900061	1026.40002441406
1616.66551225545	1024.40002441406
1617.28279467433	1022.79998779297
1617.89999626467	1017.20001220703
1618.51711703393	1021.40002441406
1619.13415698955	1016.79998779297
1619.75111613898	1015.79998779297
1620.36799448966	1020.79998779297
1620.98479204903	1023
1621.60150882455	1020.59997558594
1622.21814482364	1022.79998779297
1622.83470005376	1018.59997558594
1623.45117452235	1017
1624.06756823685	1023.59997558594
1624.6838812047	1027
1625.30011343335	1017.59997558594
1625.91626493022	1025.40002441406
1626.53233570278	1016.79998779297
1627.14832575845	1019.79998779297
1627.76423510468	1025
1628.38006374891	1022.20001220703
1628.99581169857	1015.79998779297
1629.61147896111	1015.20001220703
1630.22706554397	1011.40002441406
1630.84257145457	1016.40002441406
1631.45799670038	1009.59997558594
1632.07334128881	1015.79998779297
1632.6886052273	1013.40002441406
1633.3037885233	1005
1633.91889118425	1005.59997558594
1634.53391321757	1002.59997558594
1635.1488546307	1001.59997558594
1635.76371543108	1005.59997558594
1636.37849562616	1009
1636.99319522335	1003
1637.60781423009	1011.79998779297
1638.22235265383	1008.79998779297
1638.83681050198	1012.40002441406
1639.451187782	1014.40002441406
1640.0654845013	1013
1640.67970066734	1013.40002441406
1641.29383628752	1009
1641.9078913693	1016.20001220703
1642.5218659201	1016.20001220703
1643.13575994735	1019.20001220703
1643.74957345849	1020.20001220703
1644.36330646094	1019
1644.97695896213	1020.59997558594
1645.59053096951	1020
1646.20402249049	1016
1646.8174335325	1017.59997558594
1647.43076410298	1019.79998779297
1648.04401420935	1024.80004882813
1648.65718385905	1027.40002441406
1649.2702730595	1033.19995117188
1649.88328181812	1030.59997558594
1650.49621014236	1033
1651.10905803963	1029.59997558594
1651.72182551735	1036.40002441406
1652.33451258297	1034.59997558594
1652.9471192439	1031.59997558594
1653.55964550757	1028.40002441406
1654.1720913814	1020
1654.78445687283	1021.79998779297
1655.39674198926	1020.20001220703
1656.00894673814	1013.79998779297
1656.62107112688	1006.59997558594
1657.23311516291	1006.59997558594
1657.84507885365	1002.20001220703
1658.45696220652	996
1659.06876522895	991.599975585938
1659.68048792835	995.400024414063
1660.29213031217	993.599975585938
1660.90369238779	997.400024414063
1661.51517416267	997.599975585938
1662.12657564421	996.799987792969
1662.73789683984	1002.59997558594
1663.34913775697	999.799987792969
1663.96029840303	990.400024414063
1664.57137878544	991.400024414063
1665.18237891161	991.599975585938
1665.79329878897	994.799987792969
1666.40413842493	985
1667.01489782691	981.200012207031
1667.62557700233	986.400024414063
1668.2361759586	986.400024414063
1668.84669470315	981.599975585938
1669.4571332434	984.599975585938
1670.06749158675	983
1670.67776974062	981.400024414063
1671.28796771243	980
1671.8980855096	985.200012207031
1672.50812313954	987
1673.11808060967	985.599975585938
1673.72795792739	986.400024414063
1674.33775510013	981.599975585938
1674.9474721353	978.799987792969
1675.55710904031	978.200012207031
1676.16666582257	984
1676.7761424895	984.799987792969
1677.38553904851	985.200012207031
1677.99485550702	985
1678.60409187243	983.200012207031
1679.21324815215	985.599975585938
1679.8223243536	984.200012207031
1680.43132048419	981
1681.04023655132	974
1681.64907256241	979
1682.25782852487	976.599975585938
1682.86650444611	973
1683.47510033353	977.200012207031
1684.08361619455	976.400024414063
1684.69205203657	979.599975585938
1685.300407867	976.400024414063
1685.90868369325	978.599975585938
1686.51687952272	977.599975585938
1687.12499536283	978
1687.73303122098	976
1688.34098710457	977
1688.94886302101	982.200012207031
1689.55665897772	979.400024414063
1690.16437498208	976.400024414063
1690.77201104152	973.400024414063
1691.37956716342	977.599975585938
1691.9870433552	977.599975585938
1692.59443962426	978.799987792969
1693.20175597801	973.599975585938
1693.80899242384	971.400024414063
1694.41614896916	968.599975585938
1695.02322562138	974.400024414063
1695.63022238789	974.400024414063
1696.23713927609	977
1696.8439762934	971.200012207031
1697.4507334472	974
1698.05741074491	969.799987792969
1698.66400819391	971.599975585938
1699.27052580161	968.400024414063
1699.87696357542	969.599975585938
1700.48332152272	969
1701.08959965092	974.799987792969
1701.69579796742	969.599975585938
1702.30191647962	963.799987792969
1702.90795519491	967.400024414063
1703.51391412069	962.799987792969
1704.11979326437	966.799987792969
1704.72559263332	960.400024414063
1705.33131223496	963.200012207031
1705.93695207668	963.200012207031
1706.54251216588	962.599975585938
1707.14799250994	962.400024414063
1707.75339311628	961
1708.35871399227	962.400024414063
1708.96395514532	960.599975585938
1709.56911658282	957.400024414063
