634.948122577771	1055
635.690341530823	1060
636.43246851086	1053.19995117188
637.174503525845	1058.80004882813
637.916446583745	1062.59997558594
638.658297692538	1051.19995117188
639.400056860179	1055.19995117188
640.141724094637	1051.80004882813
640.883299403885	1058.59997558594
641.62478279588	1058.19995117188
642.366174278594	1057.59997558594
643.107473859989	1057
643.848681548029	1056.80004882813
644.589797350679	1062.40002441406
645.330821275901	1057.40002441406
646.071753331665	1048.19995117188
646.812593525922	1056.59997558594
647.553341866646	1056.59997558594
648.293998361798	1059.59997558594
649.03456301933	1051
649.775035847216	1055.80004882813
650.515416853409	1057
651.255706045874	1059.19995117188
651.995903432568	1059.40002441406
652.736009021453	1059.19995117188
653.476022820486	1069
654.215944837629	1067
654.955775080842	1072.80004882813
655.695513558081	1067.19995117188
656.435160277301	1073.40002441406
657.174715246465	1072
657.914178473527	1069.40002441406
658.653549966449	1070.19995117188
659.392829733176	1070.40002441406
660.132017781678	1065.59997558594
660.871114119901	1078
661.610118755803	1071.59997558594
662.349031697343	1068.19995117188
663.087852952468	1076.40002441406
663.826582529139	1062.40002441406
664.565220435305	1068
665.30376667892	1073
666.04222126794	1072.19995117188
666.780584210316	1066.40002441406
667.518855514	1068.40002441406
668.25703518694	1060.80004882813
668.995123237096	1065.59997558594
669.733119672413	1070
670.471024500842	1066.19995117188
671.208837730333	1068
671.946559368839	1059
672.684189424308	1066.19995117188
673.421727904689	1067.40002441406
674.159174817929	1067.80004882813
674.896530171977	1068.40002441406
675.633793974786	1058.19995117188
676.370966234295	1070.80004882813
677.108046958461	1071.80004882813
677.845036155219	1071.19995117188
678.581933832528	1075.80004882813
679.318739998323	1067.40002441406
680.055454660558	1070.80004882813
680.792077827172	1067.59997558594
681.528609506116	1078.40002441406
682.265049705331	1075.80004882813
683.001398432759	1077.19995117188
683.737655696349	1080.19995117188
684.47382150404	1084.59997558594
685.20989586378	1074.59997558594
685.945878783503	1069
686.68177027116	1069.19995117188
687.417570334688	1078.40002441406
688.153278982032	1076.59997558594
688.888896221129	1081.59997558594
689.624422059921	1083.40002441406
690.359856506349	1076.80004882813
691.095199568354	1074.19995117188
691.830451253874	1077
692.565611570844	1078
693.300680527212	1076.19995117188
694.03565813091	1075.40002441406
694.770544389877	1071.19995117188
695.505339312053	1071.19995117188
696.240042905372	1075
696.974655177772	1077.40002441406
697.70917613719	1082.19995117188
698.443605791561	1080.19995117188
699.177944148826	1073
699.912191216909	1065.19995117188
700.646347003755	1071.40002441406
701.380411517295	1063.40002441406
702.114384765465	1069.80004882813
702.848266756195	1070.40002441406
703.582057497421	1072.80004882813
704.315756997074	1076.59997558594
705.049365263089	1077.40002441406
705.782882303399	1075.40002441406
706.516308125936	1076.59997558594
707.249642738626	1070.59997558594
707.982886149403	1076.59997558594
708.716038366204	1077.59997558594
709.449099396949	1067.59997558594
710.182069249577	1064.40002441406
710.914947932009	1075.80004882813
711.647735452181	1077.40002441406
712.380431818022	1078.59997558594
713.113037037454	1077
713.845551118411	1079.40002441406
714.577974068818	1075.40002441406
715.310305896604	1078.80004882813
716.042546609694	1074.19995117188
716.774696216013	1081.59997558594
717.506754723493	1079.80004882813
718.238722140053	1079
718.970598473624	1075.80004882813
719.702383732127	1077.40002441406
720.43407792349	1077.80004882813
721.165681055634	1077.19995117188
721.897193136486	1085.40002441406
722.628614173966	1079
723.359944175997	1082.40002441406
724.091183150505	1079.19995117188
724.822331105412	1079.59997558594
725.553388048638	1083.19995117188
726.284353988106	1081.80004882813
727.015228931734	1087.19995117188
727.746012887449	1077.40002441406
728.476705863162	1077.40002441406
729.207307866803	1072
729.937818906289	1069
730.668238989535	1078
731.398568124459	1078.40002441406
732.128806318986	1084.19995117188
732.858953581034	1087.59997558594
733.589009918514	1076.80004882813
734.318975339348	1087.19995117188
735.048849851452	1089.40002441406
735.778633462744	1091.59997558594
736.508326181137	1092
737.237928014549	1089.80004882813
737.967438970897	1089.40002441406
738.696859058095	1087.40002441406
739.426188284054	1077.40002441406
740.155426656692	1084
740.884574183922	1066.80004882813
741.613630873659	1077.40002441406
742.342596733815	1070.80004882813
743.071471772302	1076.80004882813
743.800255997034	1082
744.528949415921	1078.59997558594
745.257552036877	1073
745.986063867811	1079
746.714484916638	1080.19995117188
747.442815191261	1072.59997558594
748.171054699597	1061.59997558594
748.899203449554	1076.59997558594
749.627261449039	1069
750.355228705966	1072.59997558594
751.083105228239	1081.59997558594
751.810891023765	1073.59997558594
752.538586100459	1075.80004882813
753.266190466218	1076.59997558594
753.99370412896	1073.59997558594
754.721127096582	1081.19995117188
755.448459377	1079.80004882813
756.175700978114	1078.59997558594
756.902851907828	1084.19995117188
757.629912174055	1083
758.356881784688	1090
759.083760747639	1088.59997558594
759.810549070817	1084.40002441406
760.537246762113	1084.80004882813
761.263853829442	1086
761.990370280698	1086.40002441406
762.716796123791	1089.80004882813
763.443131366618	1084.40002441406
764.169376017082	1084.80004882813
764.895530083085	1079.40002441406
765.621593572527	1087.19995117188
766.347566493312	1098.40002441406
767.073448853336	1106.19995117188
767.799240660502	1099
768.524941922707	1092.40002441406
769.250552647854	1098.19995117188
769.976072843836	1097.59997558594
770.701502518551	1101.19995117188
771.426841679905	1106.19995117188
772.152090335793	1116.40002441406
772.877248494107	1118
773.602316162747	1122
774.327293349609	1122.40002441406
775.052180062592	1116.80004882813
775.776976309589	1113.19995117188
776.501682098496	1101
777.226297437206	1102.59997558594
777.950822333616	1101
778.675256795621	1101
779.399600831111	1096.19995117188
780.123854447983	1103
780.84801765413	1095.80004882813
781.572090457441	1110
782.296072865811	1102.59997558594
783.019964887131	1093.40002441406
783.743766529297	1084.40002441406
784.467477800194	1092
785.191098707719	1090
785.914629259756	1083.19995117188
786.638069464194	1087.40002441406
787.361419328932	1082.80004882813
788.084678861852	1084.59997558594
788.807848070845	1084.40002441406
789.530926963798	1087.59997558594
790.253915548602	1088
790.976813833144	1083
791.699621825307	1079.59997558594
792.422339532986	1079.59997558594
793.144966964061	1083.59997558594
793.86750412642	1077
794.589951027946	1079.80004882813
795.312307676536	1079.80004882813
796.03457408006	1076.59997558594
796.756750246417	1078
797.478836183477	1082.59997558594
798.200831899137	1087
798.92273740127	1076
799.644552697769	1079.40002441406
800.36627779651	1083.80004882813
801.087912705374	1080
801.809457432251	1082
802.530911985017	1083.19995117188
803.252276371558	1088.40002441406
803.973550599748	1087
804.694734677472	1091.80004882813
805.415828612611	1084.19995117188
806.136832413045	1086
806.857746086646	1080
807.578569641305	1083.40002441406
808.299303084892	1090
809.019946425289	1079.59997558594
809.740499670372	1093.19995117188
810.460962828022	1087.59997558594
811.181335906114	1089
811.901618912524	1083.19995117188
812.621811855131	1093
813.341914741809	1087.59997558594
814.061927580433	1090.19995117188
814.781850378881	1082.59997558594
815.501683145025	1078.59997558594
816.221425886743	1084.59997558594
816.941078611903	1076
817.660641328387	1075
818.380114044065	1076.59997558594
819.099496766808	1090.40002441406
819.818789504492	1089.40002441406
820.53799226499	1088.59997558594
821.257105056168	1086.19995117188
821.976127885904	1082.80004882813
822.695060762064	1088.19995117188
823.413903692525	1081.80004882813
824.132656685151	1077.80004882813
824.851319747817	1077
825.569892888388	1077
826.288376114739	1081
827.006769434737	1087.80004882813
827.725072856249	1080.40002441406
828.443286387142	1084
829.161410035285	1083.80004882813
829.87944380855	1087.80004882813
830.597387714798	1078.19995117188
831.315241761898	1082
832.033005957715	1079.40002441406
832.750680310119	1084.59997558594
833.468264826969	1082.19995117188
834.18575951614	1077.80004882813
834.903164385486	1087
835.620479442878	1089.19995117188
836.337704696181	1081.59997558594
837.054840153255	1084
837.771885821962	1086.80004882813
838.488841710172	1095.80004882813
839.20570782574	1084.59997558594
839.922484176531	1084
840.639170770409	1083
841.355767615231	1074.59997558594
842.072274718864	1087.59997558594
842.788692089164	1076.19995117188
843.505019733993	1084.40002441406
844.221257661209	1081
844.937405878676	1081
845.65346439425	1080
846.369433215789	1079.19995117188
847.085312351156	1087.19995117188
847.801101808205	1080.40002441406
848.516801594793	1083.80004882813
849.232411718781	1088.59997558594
849.947932188021	1089
850.663363010376	1095.59997558594
851.378704193698	1090.80004882813
852.093955745842	1084.19995117188
852.809117674669	1074.59997558594
853.524189988028	1079
854.239172693778	1082.19995117188
854.954065799768	1079.80004882813
855.668869313857	1077
856.383583243899	1078
857.098207597743	1080.59997558594
857.812742383246	1080
858.527187608255	1073.19995117188
859.241543280628	1080.19995117188
859.955809408218	1079.40002441406
860.669985998868	1074.40002441406
861.384073060437	1074.40002441406
862.098070600772	1075.80004882813
862.811978627724	1078.40002441406
863.52579714914	1074.59997558594
864.239526172873	1071.59997558594
864.953165706776	1072
865.666715758687	1067.19995117188
866.380176336464	1070.59997558594
867.093547447951	1078.59997558594
867.806829100996	1072.80004882813
868.520021303444	1073.19995117188
869.233124063149	1069.59997558594
869.94613738795	1072
870.659061285693	1064.40002441406
871.37189576423	1072.80004882813
872.084640831403	1080
872.797296495057	1079.19995117188
873.509862763039	1085.80004882813
874.22233964319	1081.40002441406
874.934727143353	1082.80004882813
875.647025271374	1083.19995117188
876.359234035097	1080.19995117188
877.071353442361	1079
877.783383501015	1085.80004882813
878.495324218895	1075
879.207175603844	1072.19995117188
879.918937663705	1068.80004882813
880.630610406318	1077.40002441406
881.342193839524	1082.59997558594
882.053687971161	1073.40002441406
882.765092809069	1079.40002441406
883.476408361091	1078.80004882813
884.187634635066	1088
884.898771638828	1078.80004882813
885.609819380221	1085
886.320777867076	1080
887.031647107236	1082.80004882813
887.742427108536	1087
888.453117878816	1090.59997558594
889.16371942591	1100
889.874231757652	1084.19995117188
890.584654881883	1086.40002441406
891.294988806434	1089.19995117188
892.005233539141	1086.40002441406
892.715389087837	1083.19995117188
893.42545546036	1086
894.135432664543	1081.80004882813
894.845320708216	1075.59997558594
895.555119599216	1088.19995117188
896.264829345375	1080.59997558594
896.974449954526	1081.80004882813
897.683981434496	1087.80004882813
898.393423793125	1080.80004882813
899.102777038235	1077.19995117188
899.812041177664	1081.59997558594
900.521216219239	1079.59997558594
901.230302170793	1081
901.939299040155	1084.80004882813
902.64820683515	1083.59997558594
903.357025563612	1091.40002441406
904.065755233368	1082.40002441406
904.774395852247	1086
905.482947428076	1081.40002441406
906.191409968682	1076.59997558594
906.899783481897	1076.80004882813
907.608067975538	1074.80004882813
908.316263457443	1078.40002441406
909.02436993543	1077
909.732387417327	1080.40002441406
910.440315910959	1079.19995117188
911.148155424154	1081.19995117188
911.855905964731	1080.40002441406
912.563567540521	1076.40002441406
913.271140159339	1075.80004882813
913.978623829017	1080.19995117188
914.686018557374	1080.40002441406
915.393324352237	1077.80004882813
916.100541221421	1077
916.807669172752	1076.80004882813
917.514708214054	1076.40002441406
918.221658353142	1081.59997558594
918.928519597843	1092.40002441406
919.635291955976	1092.59997558594
920.341975435358	1096
921.048570043813	1082.59997558594
921.75507578916	1087.19995117188
922.461492679212	1084.19995117188
923.167820721795	1077.59997558594
923.874059924726	1086.40002441406
924.58021029582	1088.19995117188
925.286271842893	1089
925.992244573769	1080.19995117188
926.698128496262	1081.80004882813
927.403923618184	1072.59997558594
928.109629947355	1073.80004882813
928.815247491593	1071.59997558594
929.520776258708	1073.59997558594
930.226216256519	1075.40002441406
930.931567492841	1077
931.636829975482	1084
932.342003712263	1089.40002441406
933.047088710995	1082.40002441406
933.752084979491	1084.40002441406
934.456992525564	1080.80004882813
935.161811357024	1077.40002441406
935.866541481688	1086.19995117188
936.571182907363	1077.19995117188
937.275735641861	1079.19995117188
937.980199692995	1083
938.684575068572	1082.80004882813
939.388861776411	1075.80004882813
940.093059824311	1084
940.797169220085	1082
941.501189971544	1084.80004882813
942.205122086495	1081.80004882813
942.908965572751	1085.80004882813
943.612720438111	1084.59997558594
944.316386690391	1088
945.019964337391	1081
945.723453386924	1078.59997558594
946.426853846795	1078.19995117188
947.130165724808	1073.59997558594
947.83338902877	1067
948.536523766488	1068.59997558594
949.239569945764	1070.40002441406
949.942527574402	1068.80004882813
950.64539666021	1076.19995117188
951.348177210993	1074.59997558594
952.050869234548	1065
952.753472738683	1066.59997558594
953.455987731199	1068.40002441406
954.158414219898	1066.59997558594
954.860752212587	1069.19995117188
955.563001717061	1072
956.265162741124	1074.19995117188
956.967235292576	1073.40002441406
957.669219379224	1074.59997558594
958.371115008857	1065.59997558594
959.072922189283	1068.40002441406
959.774640928301	1074.40002441406
960.476271233708	1072.40002441406
961.177813113301	1064
961.879266574882	1068
962.580631626248	1073.40002441406
963.281908275194	1077.80004882813
963.98309652952	1080.59997558594
964.684196397022	1085.80004882813
965.3852078855	1076.59997558594
966.086131002745	1071.19995117188
966.786965756555	1074.80004882813
967.487712154726	1075.59997558594
968.188370205055	1072.80004882813
968.888939915331	1073.80004882813
969.589421293352	1070.80004882813
970.289814346909	1073.80004882813
970.990119083801	1072
971.690335511819	1076.19995117188
972.39046363875	1074.19995117188
973.090503472398	1074.80004882813
973.790455020545	1072.19995117188
974.490318290987	1076.80004882813
975.190093291516	1073
975.889780029923	1080
976.589378513998	1071.40002441406
977.288888751527	1072.40002441406
977.988310750308	1064
978.687644518122	1070.80004882813
979.386890062767	1070.80004882813
980.086047392025	1073.59997558594
980.785116513689	1069
981.484097435542	1072.80004882813
982.182990165377	1066.59997558594
982.88179471098	1072.40002441406
983.580511080137	1076
984.279139280632	1066.40002441406
984.977679320253	1073.40002441406
985.67613120679	1071.40002441406
986.374494948027	1071.59997558594
987.072770551745	1070.40002441406
987.770958025731	1073.59997558594
988.469057377772	1066
989.167068615649	1073.19995117188
989.864991747145	1071.59997558594
990.562826780047	1069.59997558594
991.260573722134	1069.59997558594
991.958232581195	1073.19995117188
992.655803365003	1072.19995117188
993.353286081346	1075.19995117188
994.050680738006	1070
994.74798734276	1072.80004882813
995.44520590339	1070.19995117188
996.142336427681	1067.40002441406
996.839378923407	1068.80004882813
997.536333398348	1069.59997558594
998.233199860289	1074.59997558594
998.929978317004	1081.80004882813
999.626668776274	1068.80004882813
1000.32327124587	1069.80004882813
1001.01978573359	1066
1001.71621224718	1071.80004882813
1002.41255079445	1067
1003.10880138315	1063.40002441406
1003.80496402107	1066.59997558594
1004.50103871599	1063.59997558594
1005.19702547567	1065.80004882813
1005.8929243079	1075.40002441406
1006.58873522045	1078.80004882813
1007.2844582211	1066.19995117188
1007.98009331761	1072.19995117188
1008.67564051776	1066.40002441406
1009.37109982933	1066.80004882813
1010.06647126009	1069
1010.7617548178	1071
1011.45695051026	1064
1012.15205834522	1067.40002441406
1012.84707833045	1077.40002441406
1013.54201047373	1064.19995117188
1014.23685478284	1069.19995117188
1014.93161126553	1082
1015.62627992959	1082
1016.32086078277	1075.40002441406
1017.01535383285	1071.80004882813
1017.70975908761	1075.40002441406
1018.40407655479	1072
1019.09830624219	1072.40002441406
1019.79244815755	1069.59997558594
1020.48650230866	1068.40002441406
1021.18046870328	1063.19995117188
1021.87434734917	1054.80004882813
1022.56813825411	1068
1023.26184142584	1067.59997558594
1023.95545687216	1073.59997558594
1024.64898460082	1064.80004882813
1025.34242461957	1068.59997558594
1026.0357769362	1074.40002441406
1026.72904155846	1073.80004882813
1027.42221849412	1080.19995117188
1028.11530775094	1071.40002441406
1028.80830933668	1075
1029.50122325911	1078.19995117188
1030.19404952599	1080.80004882813
1030.88678814508	1077.59997558594
1031.57943912414	1077.59997558594
1032.27200247093	1069.59997558594
1032.96447819323	1072.59997558594
1033.65686629878	1065.19995117188
1034.34916679534	1071.80004882813
1035.04137969068	1063.80004882813
1035.73350499256	1065.59997558594
1036.42554270874	1062
1037.11749284697	1059.19995117188
1037.80935541501	1068
1038.50113042062	1066
1039.19281787156	1068.19995117188
1039.88441777559	1067.19995117188
1040.57593014046	1068
1041.26735497393	1070.40002441406
1041.95869228376	1065.80004882813
1042.6499420777	1065.19995117188
1043.3411043635	1068
1044.03217914893	1059.59997558594
1044.72316644174	1060.59997558594
1045.41406624968	1064.59997558594
1046.1048785805	1057.40002441406
1046.79560344197	1062.19995117188
1047.48624084182	1064.19995117188
1048.17679078783	1056.59997558594
1048.86725328774	1048.80004882813
1049.55762834929	1059.19995117188
1050.24791598025	1066.19995117188
1050.93811618837	1066.19995117188
1051.62822898139	1058.19995117188
1052.31825436707	1067.40002441406
1053.00819235315	1072.19995117188
1053.6980429474	1066.19995117188
1054.38780615755	1053.59997558594
1055.07748199136	1061.19995117188
1055.76707045658	1058.19995117188
1056.45657156095	1069.59997558594
1057.14598531222	1068.59997558594
1057.83531171814	1071.19995117188
1058.52455078646	1071.40002441406
1059.21370252494	1070.19995117188
1059.90276694129	1066
1060.5917440433	1068.40002441406
1061.28063383868	1065.80004882813
1061.9694363352	1062.19995117188
1062.65815154059	1061.59997558594
1063.34677946261	1065.59997558594
1064.03532010899	1051
1064.72377348748	1062.80004882813
1065.41213960583	1058.80004882813
1066.10041847177	1060.59997558594
1066.78861009306	1063.40002441406
1067.47671447743	1063
1068.16473163263	1062.40002441406
1068.85266156639	1054.59997558594
1069.54050428647	1065.19995117188
1070.2282598006	1066.59997558594
1070.91592811652	1069.40002441406
1071.60350924198	1067.40002441406
1072.29100318471	1062.19995117188
1072.97840995245	1066.80004882813
1073.66572955295	1060.80004882813
1074.35296199394	1059.40002441406
1075.04010728316	1060.80004882813
1075.72716542836	1058.80004882813
1076.41413643726	1061.19995117188
1077.10102031761	1065.40002441406
1077.78781707715	1058.40002441406
1078.4745267236	1063.40002441406
1079.16114926471	1059.59997558594
1079.84768470822	1062
1080.53413306185	1061.80004882813
1081.22049433336	1054
1081.90676853046	1061.59997558594
1082.5929556609	1060
1083.27905573241	1060.59997558594
1083.96506875272	1066.80004882813
1084.65099472957	1070.19995117188
1085.3368336707	1067.19995117188
1086.02258558383	1068.19995117188
1086.70825047669	1068.40002441406
1087.39382835703	1067.80004882813
1088.07931923257	1061
1088.76472311104	1061
1089.45004000018	1056.59997558594
1090.13526990771	1061.80004882813
1090.82041284137	1060.19995117188
1091.50546880889	1054
1092.19043781799	1060.19995117188
1092.87531987642	1057.19995117188
1093.56011499188	1055
1094.24482317212	1062.59997558594
1094.92944442486	1060.19995117188
1095.61397875783	1068.19995117188
1096.29842617876	1061
1096.98278669537	1066.80004882813
1097.6670603154	1071.40002441406
1098.35124704656	1063
1099.03534689659	1067.19995117188
1099.71935987322	1060.80004882813
1100.40328598416	1063.80004882813
1101.08712523713	1065
1101.77087763988	1072.80004882813
1102.45454320012	1074
1103.13812192557	1064
1103.82161382396	1063.59997558594
1104.50501890301	1064.59997558594
1105.18833717045	1070.19995117188
1105.87156863399	1068
1106.55471330137	1072.59997558594
1107.2377711803	1073
1107.9207422785	1071.59997558594
1108.60362660369	1065
1109.2864241636	1066.59997558594
1109.96913496594	1066.80004882813
1110.65175901844	1062.19995117188
1111.33429632882	1068.59997558594
1112.01674690479	1069
1112.69911075408	1069
1113.38138788439	1059.80004882813
1114.06357830346	1070
1114.745682019	1063.59997558594
1115.42769903872	1062.59997558594
1116.10962937035	1066.19995117188
1116.7914730216	1071
1117.47323000018	1073.59997558594
1118.15490031382	1075
1118.83648397022	1073.40002441406
1119.51798097712	1067.40002441406
1120.1993913422	1061.40002441406
1120.88071507321	1063.40002441406
1121.56195217784	1062.40002441406
1122.24310266381	1065.40002441406
1122.92416653884	1064.19995117188
1123.60514381064	1065.80004882813
1124.28603448692	1068.40002441406
1124.9668385754	1074.19995117188
1125.64755608378	1066.19995117188
1126.32818701978	1071.19995117188
1127.00873139111	1065.59997558594
1127.68918920548	1068.80004882813
1128.3695604706	1071
1129.04984519419	1068.40002441406
1129.73004338394	1064
1130.41015504758	1070
1131.09018019281	1067.40002441406
1131.77011882734	1071.40002441406
1132.44997095888	1072.80004882813
1133.12973659514	1074.19995117188
1133.80941574381	1067.19995117188
1134.48900841263	1063.40002441406
1135.16851460927	1063.19995117188
1135.84793434147	1061.59997558594
1136.52726761692	1067.19995117188
1137.20651444333	1061.40002441406
1137.8856748284	1068.80004882813
1138.56474877984	1069.80004882813
1139.24373630536	1059
1139.92263741265	1057.40002441406
1140.60145210943	1064.80004882813
1141.28018040339	1059.80004882813
1141.95882230225	1060
1142.6373778137	1059
1143.31584694545	1056
1143.99422970519	1056.40002441406
1144.67252610064	1060.40002441406
1145.35073613949	1056.80004882813
1146.02885982944	1057
1146.7068971782	1054.80004882813
1147.38484819347	1066.80004882813
1148.06271288294	1068.40002441406
1148.74049125432	1069.19995117188
1149.41818331531	1068.80004882813
1150.0957890736	1061.40002441406
1150.77330853689	1058.59997558594
1151.45074171289	1058.59997558594
1152.12808860928	1060.59997558594
1152.80534923378	1056.40002441406
1153.48252359407	1061.80004882813
1154.15961169786	1061
1154.83661355283	1056.59997558594
1155.51352916669	1059.40002441406
1156.19035854713	1053.19995117188
1156.86710170185	1054.59997558594
1157.54375863855	1054
1158.22032936491	1047.40002441406
1158.89681388863	1049.80004882813
1159.57321221741	1055
1160.24952435894	1063.59997558594
1160.92575032092	1055.19995117188
1161.60189011103	1062.80004882813
1162.27794373697	1053.80004882813
1162.95391120644	1057.40002441406
1163.62979252712	1059
1164.3055877067	1058
1164.98129675288	1057
1165.65691967336	1054.19995117188
1166.33245647581	1056.40002441406
1167.00790716792	1050.59997558594
1167.6832717574	1049
1168.35855025193	1051.59997558594
1169.0337426592	1049
1169.70884898689	1058.59997558594
1170.3838692427	1058.59997558594
1171.05880343431	1057.80004882813
1171.73365156941	1056
1172.40841365569	1056.80004882813
1173.08308970083	1060.19995117188
1173.75767971253	1058.40002441406
1174.43218369847	1061.59997558594
1175.10660166633	1064
1175.7809336238	1064
1176.45517957857	1072
1177.12933953832	1070
1177.80341351073	1072.19995117188
1178.47740150349	1072.80004882813
1179.15130352429	1065
1179.8251195808	1075.19995117188
1180.49884968071	1069
1181.1724938317	1081.40002441406
1181.84605204145	1069.80004882813
1182.51952431766	1067.19995117188
1183.19291066799	1065.59997558594
1183.86621110013	1071.80004882813
1184.53942562176	1066.59997558594
1185.21255424057	1074.80004882813
1185.88559696422	1075
1186.55855380041	1077.19995117188
1187.2314247568	1071.59997558594
1187.90420984109	1074
1188.57690906095	1072.40002441406
1189.24952242405	1074.80004882813
1189.92204993808	1074.19995117188
1190.59449161071	1077.19995117188
1191.26684744962	1073.19995117188
1191.93911746249	1070.19995117188
1192.61130165699	1070.80004882813
1193.28340004081	1068.80004882813
1193.95541262161	1068.40002441406
1194.62733940707	1060.19995117188
1195.29918040487	1064.80004882813
1195.97093562269	1068.40002441406
1196.64260506819	1079.59997558594
1197.31418874905	1079.19995117188
1197.98568667295	1068
1198.65709884755	1064.59997558594
1199.32842528053	1058.19995117188
1199.99966597957	1056.80004882813
1200.67082095234	1057
1201.3418902065	1057.40002441406
1202.01287374974	1051.40002441406
1202.68377158971	1056.19995117188
1203.3545837341	1058
1204.02531019057	1053
1204.6959509668	1056
1205.36650607045	1057.80004882813
1206.03697550919	1062.19995117188
1206.70735929069	1055
1207.37765742263	1060.19995117188
1208.04786991266	1068.59997558594
1208.71799676846	1058.40002441406
1209.38803799769	1061.80004882813
1210.05799360803	1064
1210.72786360714	1062.80004882813
1211.39764800268	1061.80004882813
1212.06734680233	1068.40002441406
1212.73696001375	1060.19995117188
1213.4064876446	1067
1214.07592970255	1064.19995117188
1214.74528619526	1063
1215.4145571304	1056
1216.08374251564	1059.80004882813
1216.75284235863	1058.40002441406
1217.42185666704	1054.59997558594
1218.09078544854	1059.80004882813
1218.75962871078	1057.40002441406
1219.42838646143	1053.59997558594
1220.09705870816	1055
1220.76564545861	1054.40002441406
1221.43414672046	1058.19995117188
1222.10256250136	1059.40002441406
1222.77089280898	1051.80004882813
1223.43913765098	1055.19995117188
1224.107297035	1055
1224.77537096873	1053.40002441406
1225.44335945981	1058.40002441406
1226.1112625159	1056.80004882813
1226.77908014467	1056
1227.44681235376	1047.80004882813
1228.11445915085	1058
1228.78202054357	1051.59997558594
1229.44949653961	1055.80004882813
1230.11688714659	1044.59997558594
1230.7841923722	1056.59997558594
1231.45141222407	1054
1232.11854670988	1061.40002441406
1232.78559583726	1056.40002441406
1233.45255961388	1056.40002441406
1234.1194380474	1054.80004882813
1234.78623114546	1061.40002441406
1235.45293891572	1058.40002441406
1236.11956136583	1055
1236.78609850345	1051.19995117188
1237.45255033623	1044.40002441406
1238.11891687182	1047.59997558594
1238.78519811788	1043.40002441406
1239.45139408205	1046.80004882813
1240.11750477198	1049.40002441406
1240.78353019534	1046
1241.44947035976	1046.80004882813
1242.11532527291	1048.40002441406
1242.78109494242	1045.19995117188
1243.44677937595	1050
1244.11237858115	1045
1244.77789256567	1052
1245.44332133715	1051.80004882813
1246.10866490325	1051.59997558594
1246.7739232716	1060
1247.43909644987	1050.59997558594
1248.10418444569	1055
1248.76918726671	1052
1249.43410492059	1053.19995117188
1250.09893741496	1059.19995117188
1250.76368475747	1052.80004882813
1251.42834695576	1053.40002441406
1252.09292401749	1054
1252.75741595029	1053.80004882813
1253.42182276182	1051
1254.08614445971	1047
1254.75038105161	1052.19995117188
1255.41453254515	1049.80004882813
1256.07859894799	1046.40002441406
1256.74258026777	1052.19995117188
1257.40647651213	1050.59997558594
1258.0702876887	1051
1258.73401380514	1054.40002441406
1259.39765486908	1058.19995117188
1260.06121088817	1052.40002441406
1260.72468187004	1045.80004882813
1261.38806782233	1050.19995117188
1262.05136875269	1045.80004882813
1262.71458466875	1048
1263.37771557815	1051.59997558594
1264.04076148854	1048.40002441406
1264.70372240753	1042.40002441406
1265.3665983428	1043.80004882813
1266.02938930195	1045.19995117188
1266.69209529263	1043.40002441406
1267.35471632249	1045
1268.01725239914	1051.40002441406
1268.67970353024	1038.80004882813
1269.34206972342	1048.40002441406
1270.00435098631	1049
1270.66654732655	1044.40002441406
1271.32865875177	1058
1271.9906852696	1050.40002441406
1272.65262688768	1050.19995117188
1273.31448361365	1052.80004882813
1273.97625545514	1048.80004882813
1274.63794241978	1046.59997558594
1275.2995445152	1044.80004882813
1275.96106174903	1053.40002441406
1276.62249412892	1048.19995117188
1277.28384166248	1045.59997558594
1277.94510435735	1050.19995117188
1278.60628222116	1048.40002441406
1279.26737526155	1052.80004882813
1279.92838348613	1049.80004882813
1280.58930690255	1053.40002441406
1281.25014551842	1042.40002441406
1281.91089934139	1044.80004882813
1282.57156837907	1042.40002441406
1283.2321526391	1046.19995117188
1283.89265212911	1044.80004882813
1284.55306685671	1047.40002441406
1285.21339682955	1050.59997558594
1285.87364205525	1055.59997558594
1286.53380254142	1058.19995117188
1287.19387829571	1054.80004882813
1287.85386932573	1050.19995117188
1288.51377563911	1048
1289.17359724348	1047.19995117188
1289.83333414646	1046.59997558594
1290.49298635567	1047.59997558594
1291.15255387874	1050.80004882813
1291.8120367233	1050.59997558594
1292.47143489696	1048.80004882813
1293.13074840736	1046.59997558594
1293.7899772621	1052.19995117188
1294.44912146882	1053.80004882813
1295.10818103513	1049.19995117188
1295.76715596866	1055.80004882813
1296.42604627704	1055
1297.08485196787	1056
1297.74357304878	1049.40002441406
1298.4022095274	1049
1299.06076141134	1047.59997558594
1299.71922870821	1044.40002441406
1300.37761142565	1051
1301.03590957126	1047.40002441406
1301.69412315268	1047.80004882813
1302.3522521775	1047.19995117188
1303.01029665336	1049
1303.66825658787	1053.19995117188
1304.32613198865	1055.59997558594
1304.98392286332	1056
1305.64162921948	1057.80004882813
1306.29925106476	1052.19995117188
1306.95678840677	1054.19995117188
1307.61424125312	1056.80004882813
1308.27160961145	1058.80004882813
1308.92889348934	1061.19995117188
1309.58609289443	1047
1310.24320783432	1058.19995117188
1310.90023831664	1051
1311.55718434898	1055.59997558594
1312.21404593897	1056.40002441406
1312.87082309421	1062
1313.52751582233	1062.40002441406
1314.18412413092	1058
1314.84064802761	1059.40002441406
1315.49708752	1060.59997558594
1316.1534426157	1058.80004882813
1316.80971332233	1051
1317.46589964749	1053.19995117188
1318.1220015988	1056
1318.77801918386	1057.19995117188
1319.43395241028	1055.59997558594
1320.08980128567	1061.59997558594
1320.74556581764	1057.80004882813
1321.4012460138	1055
1322.05684188176	1053.80004882813
1322.71235342911	1049.59997558594
1323.36778066347	1056
1324.02312359245	1052.40002441406
1324.67838222365	1053.80004882813
1325.33355656468	1054.19995117188
1325.98864662314	1056.40002441406
1326.64365240663	1059
1327.29857392277	1052.59997558594
1327.95341117915	1064.80004882813
1328.60816418339	1054
1329.26283294308	1061.19995117188
1329.91741746582	1064.19995117188
1330.57191775923	1058
1331.2263338309	1063
1331.88066568843	1054.40002441406
1332.53491333943	1051
1333.1890767915	1056
1333.84315605224	1052.80004882813
1334.49715112925	1053.80004882813
1335.15106203013	1057.59997558594
1335.80488876249	1060.80004882813
1336.45863133391	1055.80004882813
1337.112289752	1062.59997558594
1337.76586402437	1059.40002441406
1338.4193541586	1060
1339.0727601623	1062.19995117188
1339.72608204306	1058.59997558594
1340.37931980849	1062.59997558594
1341.03247346617	1066
1341.68554302372	1057.19995117188
1342.33852848871	1061
1342.99142986876	1054.59997558594
1343.64424717145	1059.59997558594
1344.29698040438	1060.80004882813
1344.94962957515	1063
1345.60219469135	1057.19995117188
1346.25467576058	1067.59997558594
1346.90707279042	1066
1347.55938578848	1076
1348.21161476235	1065.80004882813
1348.86375971962	1068.40002441406
1349.51582066787	1068.40002441406
1350.16779761472	1062.40002441406
1350.81969056774	1069
1351.47149953453	1071.19995117188
1352.12322452269	1066.59997558594
1352.77486553979	1068
1353.42642259344	1065.59997558594
1354.07789569122	1076.19995117188
1354.72928484072	1075
1355.38059004953	1072.19995117188
1356.03181132525	1069
1356.68294867545	1065.19995117188
1357.33400210773	1067.80004882813
1357.98497162968	1070.19995117188
1358.63585724889	1068.80004882813
1359.28665897294	1074
1359.93737680942	1074.40002441406
1360.58801076591	1079.40002441406
1361.23856085001	1080.80004882813
1361.88902706929	1082.80004882813
1362.53940943135	1078.80004882813
1363.18970794377	1081.59997558594
1363.83992261413	1080.19995117188
1364.49005345003	1084
1365.14010045904	1073.80004882813
1365.79006364874	1064.40002441406
1366.43994302673	1073
1367.08973860058	1065
1367.73945037788	1076
1368.38907836621	1075.19995117188
1369.03862257315	1075
1369.68808300629	1071.19995117188
1370.3374596732	1072.80004882813
1370.98675258148	1064.80004882813
1371.63596173868	1063.59997558594
1372.28508715241	1064.59997558594
1372.93412883024	1057.40002441406
1373.58308677974	1055
1374.2319610085	1053.19995117188
1374.8807515241	1051.59997558594
1375.52945833412	1054
1376.17808144612	1053.40002441406
1376.82662086771	1048.40002441406
1377.47507660644	1048.59997558594
1378.12344866989	1043.59997558594
1378.77173706565	1048.19995117188
1379.41994180129	1047.80004882813
1380.06806288439	1051.19995117188
1380.71610032252	1052.40002441406
1381.36405412326	1055.59997558594
1382.01192429419	1049.19995117188
1382.65971084287	1048.40002441406
1383.30741377688	1053
1383.95503310381	1055.19995117188
1384.60256883121	1050
1385.25002096667	1047.80004882813
1385.89738951775	1049.80004882813
1386.54467449204	1045
1387.19187589709	1050.80004882813
1387.8389937405	1049
1388.48602802982	1046.59997558594
1389.13297877262	1046
1389.77984597649	1046.40002441406
1390.42662964899	1044
1391.07332979768	1046.40002441406
1391.71994643015	1041.59997558594
1392.36647955395	1051.59997558594
1393.01292917667	1048.80004882813
1393.65929530586	1054
1394.3055779491	1048.40002441406
1394.95177711395	1038.80004882813
1395.59789280799	1043
1396.24392503877	1039
1396.88987381387	1040.59997558594
1397.53573914086	1041
1398.1815210273	1045.80004882813
1398.82721948075	1037.40002441406
1399.47283450878	1042
1400.11836611897	1047.59997558594
1400.76381431886	1043
1401.40917911603	1042.59997558594
1402.05446051805	1040.40002441406
1402.69965853247	1043.80004882813
1403.34477316686	1038.40002441406
1403.98980442878	1043.80004882813
1404.6347523258	1036.59997558594
1405.27961686548	1038.59997558594
1405.92439805538	1035.80004882813
1406.56909590306	1051.19995117188
1407.21371041608	1046.40002441406
1407.85824160202	1048.40002441406
1408.50268946841	1042.59997558594
1409.14705402284	1049
1409.79133527285	1041.19995117188
1410.43553322601	1043.59997558594
1411.07964788987	1046.59997558594
1411.723679272	1045.59997558594
1412.36762737996	1043.59997558594
1413.01149222129	1042.19995117188
1413.65527380357	1045.40002441406
1414.29897213435	1046.40002441406
1414.94258722118	1045.59997558594
1415.58611907163	1043
1416.22956769325	1049.40002441406
1416.87293309359	1045
1417.51621528021	1044.80004882813
1418.15941426067	1045
1418.80253004253	1043.80004882813
1419.44556263333	1039.59997558594
1420.08851204063	1044.80004882813
1420.731378272	1043.59997558594
1421.37416133497	1039
1422.0168612371	1034
1422.65947798596	1038.19995117188
1423.30201158908	1046.19995117188
1423.94446205403	1052.19995117188
1424.58682938835	1052.59997558594
1425.2291135996	1053
1425.87131469532	1053.19995117188
1426.51343268308	1043.80004882813
1427.15546757042	1049.19995117188
1427.79741936488	1042.19995117188
1428.43928807403	1042.40002441406
1429.0810737054	1037.19995117188
1429.72277626656	1038.59997558594
1430.36439576504	1037.40002441406
1431.00593220841	1034
1431.64738560419	1030.80004882813
1432.28875595995	1035
1432.93004328324	1040
1433.57124758159	1046.80004882813
1434.21236886255	1045.80004882813
1434.85340713368	1039
1435.49436240252	1036.19995117188
1436.13523467661	1040
1436.77602396349	1039
1437.41673027073	1042.59997558594
1438.05735360585	1040.19995117188
1438.69789397641	1038.59997558594
1439.33835138994	1036.40002441406
1439.978725854	1031.40002441406
1440.61901737612	1038.59997558594
1441.25922596385	1043.40002441406
1441.89935162473	1036.40002441406
1442.53939436631	1038.59997558594
1443.17935419612	1034.80004882813
1443.81923112171	1043
1444.45902515061	1044.40002441406
1445.09873629038	1047.59997558594
1445.73836454854	1037.40002441406
1446.37790993265	1043.59997558594
1447.01737245024	1043.40002441406
1447.65675210885	1043
1448.29604891602	1044.80004882813
1448.93526287928	1047.59997558594
1449.57439400618	1044.19995117188
1450.21344230426	1048.59997558594
1450.85240778105	1037.80004882813
1451.49129044409	1040.59997558594
1452.13009030092	1043.40002441406
1452.76880735907	1045.19995117188
1453.40744162608	1046
1454.04599310949	1040
1454.68446181683	1043.19995117188
1455.32284775564	1047
1455.96115093345	1043.40002441406
1456.5993713578	1035
1457.23750903623	1037.59997558594
1457.87556397626	1032
1458.51353618543	1039.80004882813
1459.15142567127	1038.40002441406
1459.78923244132	1032
1460.42695650311	1034.80004882813
1461.06459786417	1036.80004882813
1461.70215653203	1035.59997558594
1462.33963251423	1031.40002441406
1462.97702581829	1033.59997558594
1463.61433645175	1037.40002441406
1464.25156442214	1035.19995117188
1464.88870973699	1033.80004882813
1465.52577240382	1036.40002441406
1466.16275243017	1039.80004882813
1466.79964982356	1036.40002441406
1467.43646459154	1036.19995117188
1468.07319674161	1041.59997558594
1468.70984628132	1037.80004882813
1469.34641321818	1035.19995117188
1469.98289755974	1038.40002441406
1470.6192993135	1042
1471.25561848701	1039.59997558594
1471.89185508779	1034.19995117188
1472.52800912336	1033.40002441406
1473.16408060124	1040
1473.80006952897	1038.19995117188
1474.43597591407	1035.59997558594
1475.07179976406	1037.59997558594
1475.70754108647	1040.40002441406
1476.34319988883	1046.19995117188
1476.97877617865	1036.19995117188
1477.61426996345	1041.19995117188
1478.24968125077	1039.40002441406
1478.88501004812	1040.80004882813
1479.52025636303	1039
1480.15542020302	1036.80004882813
1480.79050157561	1029.19995117188
1481.42550048832	1034.19995117188
1482.06041694867	1035.40002441406
1482.69525096418	1034.59997558594
1483.33000254237	1029.40002441406
1483.96467169077	1024.19995117188
1484.59925841689	1040.40002441406
1485.23376272825	1034.59997558594
1485.86818463237	1036.40002441406
1486.50252413677	1036.59997558594
1487.13678124896	1037.40002441406
1487.77095597646	1034
1488.4050483268	1032.80004882813
1489.03905830749	1037.59997558594
1489.67298592604	1038.80004882813
1490.30683118996	1039.59997558594
1490.9405941068	1042.80004882813
1491.57427468403	1039
1492.2078729292	1041.40002441406
1492.84138884981	1039.19995117188
1493.47482245338	1041
1494.10817374742	1033.19995117188
1494.74144273944	1036.80004882813
1495.37462943696	1036.80004882813
1496.0077338475	1039.19995117188
1496.64075597856	1041.59997558594
1497.27369583765	1048
1497.9065534323	1041.59997558594
1498.53932877001	1044.80004882813
1499.17202185829	1036.19995117188
1499.80463270465	1038.40002441406
1500.43716131661	1038.59997558594
1501.06960770167	1039.80004882813
1501.70197186735	1043.80004882813
1502.33425382116	1045
1502.96645357059	1044.19995117188
1503.59857112317	1050
1504.23060648641	1048.59997558594
1504.8625596678	1051.80004882813
1505.49443067486	1046.80004882813
1506.1262195151	1048
1506.75792619602	1042.59997558594
1507.38955072513	1050.59997558594
1508.02109310993	1048
1508.65255335794	1045.19995117188
1509.28393147666	1050
1509.91522747359	1052
1510.54644135624	1046.59997558594
1511.17757313212	1046
1511.80862280872	1043.59997558594
1512.43959039356	1049.40002441406
1513.07047589413	1045
1513.70127931795	1046.40002441406
1514.33200067251	1046.59997558594
1514.96263996531	1044
1515.59319720386	1042.80004882813
1516.22367239567	1044.19995117188
1516.85406554822	1045.19995117188
1517.48437666903	1043.59997558594
1518.1146057656	1035.59997558594
1518.74475284542	1038.19995117188
1519.374817916	1035.59997558594
1520.00480098483	1037.40002441406
1520.63470205942	1038.59997558594
1521.26452114726	1032.59997558594
1521.89425825586	1031
1522.52391339271	1035.59997558594
1523.15348656531	1030.40002441406
1523.78297778116	1030.80004882813
1524.41238704775	1039.59997558594
1525.04171437259	1039.59997558594
1525.67095976317	1036
1526.30012322699	1031.19995117188
1526.92920477154	1034.19995117188
1527.55820440432	1039.59997558594
1528.18712213283	1038.59997558594
1528.81595796455	1029.59997558594
1529.44471190699	1036.19995117188
1530.07338396764	1033.80004882813
1530.70197415399	1034.40002441406
1531.33048247353	1034.59997558594
1531.95890893377	1041
1532.58725354219	1029.59997558594
1533.21551630629	1032
1533.84369723356	1032.19995117188
1534.47179633148	1029.19995117188
1535.09981360757	1029.19995117188
1535.72774906929	1034
1536.35560272415	1033.59997558594
1536.98337457963	1039
1537.61106464323	1042.80004882813
1538.23867292243	1045.80004882813
1538.86619942473	1034
1539.49364415762	1035.80004882813
1540.12100712857	1038.19995117188
1540.74828834509	1037
1541.37548781466	1036.40002441406
1542.00260554478	1035.40002441406
1542.62964154291	1032
1543.25659581655	1033.40002441406
1543.8834683732	1034.80004882813
1544.51025922034	1029.40002441406
1545.13696836544	1032.40002441406
1545.76359581601	1023.20001220703
1546.39014157952	1021.40002441406
1547.01660566345	1025.40002441406
1547.64298807531	1025.59997558594
1548.26928882255	1033.19995117188
1548.89550791269	1027
1549.52164535318	1029.59997558594
1550.14770115153	1031.80004882813
1550.77367531521	1024.59997558594
1551.39956785171	1020.79998779297
1552.0253787685	1017
1552.65110807307	1018.79998779297
1553.2767557729	1011.59997558594
1553.90232187548	1016
1554.52780638828	1014.40002441406
1555.15320931879	1024.59997558594
1555.77853067447	1023.79998779297
1556.40377046282	1021.59997558594
1557.02892869132	1024.59997558594
1557.65400536744	1023.79998779297
1558.27900049866	1022.40002441406
1558.90391409247	1022.59997558594
1559.52874615633	1023
1560.15349669773	1025
1560.77816572414	1023.79998779297
1561.40275324305	1019
1562.02725926192	1019.20001220703
1562.65168378824	1025.40002441406
1563.27602682948	1024.59997558594
1563.90028839311	1023.20001220703
1564.52446848662	1020.79998779297
1565.14856711748	1021
1565.77258429316	1022
1566.39652002113	1021
1567.02037430887	1020.79998779297
1567.64414716387	1025
1568.26783859357	1028
1568.89144860547	1026.19995117188
1569.51497720703	1025.80004882813
1570.13842440573	1031.59997558594
1570.76179020904	1039.19995117188
1571.38507462442	1036
1572.00827765936	1031.59997558594
1572.63139932132	1032
1573.25443961777	1041
1573.87739855618	1033.19995117188
1574.50027614402	1037.19995117188
1575.12307238877	1044
1575.74578729789	1032.40002441406
1576.36842087885	1028.40002441406
1576.99097313912	1035
1577.61344408616	1030.80004882813
1578.23583372745	1028.59997558594
1578.85814207046	1024
1579.48036912264	1029
1580.10251489147	1028
1580.72457938441	1026.40002441406
1581.34656260893	1018.59997558594
1581.9684645725	1016.40002441406
1582.59028528258	1017.40002441406
1583.21202474663	1014.20001220703
1583.83368297212	1015.40002441406
1584.45525996652	1012.59997558594
1585.07675573728	1013.79998779297
1585.69817029188	1020.20001220703
1586.31950363778	1014.79998779297
1586.94075578243	1017
1587.5619267333	1015.59997558594
1588.18301649786	1015.59997558594
1588.80402508357	1019.40002441406
1589.42495249788	1018.59997558594
1590.04579874826	1014.40002441406
1590.66656384217	1015.20001220703
1591.28724778707	1012.40002441406
1591.90785059042	1008.79998779297
1592.52837225968	1013
1593.14881280232	1006.40002441406
1593.76917222578	1007.40002441406
1594.38945053753	1012.40002441406
1595.00964774502	1015.20001220703
1595.62976385573	1023.40002441406
1596.24979887709	1028
1596.86975281657	1019.79998779297
1597.48962568164	1014.59997558594
1598.10941747974	1017.40002441406
1598.72912821832	1020
1599.34875790486	1014.59997558594
1599.9683065468	1014.79998779297
1600.58777415159	1013.40002441406
1601.2071607267	1013.59997558594
1601.82646627958	1014
1602.44569081769	1008.40002441406
1603.06483434846	1007
1603.68389687937	1009.79998779297
1604.30287841786	1010.59997558594
1604.92177897139	1004.40002441406
1605.54059854741	1011.20001220703
1606.15933715337	1011.59997558594
1606.77799479672	1010.40002441406
1607.39657148492	1011.59997558594
1608.01506722542	1012.79998779297
1608.63348202566	1010.40002441406
1609.2518158931	1007.59997558594
1609.87006883519	1010.59997558594
1610.48824085939	1006.59997558594
1611.10633197312	1004.20001220703
1611.72434218386	1011.79998779297
1612.34227149904	1009
1612.96011992612	1004.40002441406
1613.57788747254	1007.20001220703
1614.19557414575	1007.79998779297
1614.8131799532	1009.20001220703
1615.43070490234	1014.79998779297
1616.04814900061	1009.79998779297
1616.66551225545	1013
1617.28279467433	1003.79998779297
1617.89999626467	1003.59997558594
1618.51711703393	1007
1619.13415698955	1006.59997558594
1619.75111613898	1004.79998779297
1620.36799448966	1011.59997558594
1620.98479204903	1007.40002441406
1621.60150882455	1014
1622.21814482364	1011.20001220703
1622.83470005376	1012
1623.45117452235	1009
1624.06756823685	1004.79998779297
1624.6838812047	1009.40002441406
1625.30011343335	1016.40002441406
1625.91626493022	1004.79998779297
1626.53233570278	1010.79998779297
1627.14832575845	1008.20001220703
1627.76423510468	1002.79998779297
1628.38006374891	1007.20001220703
1628.99581169857	1002.59997558594
1629.61147896111	1008
1630.22706554397	1009.59997558594
1630.84257145457	1003.40002441406
1631.45799670038	1001.59997558594
1632.07334128881	995.599975585938
1632.6886052273	1000.20001220703
1633.3037885233	996.200012207031
1633.91889118425	994.200012207031
1634.53391321757	1006.79998779297
1635.1488546307	996.799987792969
1635.76371543108	998.400024414063
1636.37849562616	1001.79998779297
1636.99319522335	1000.59997558594
1637.60781423009	1000.79998779297
1638.22235265383	992.400024414063
1638.83681050198	998.400024414063
1639.451187782	1000
1640.0654845013	1005
1640.67970066734	1000
1641.29383628752	1004.40002441406
1641.9078913693	1001.59997558594
1642.5218659201	1002.59997558594
1643.13575994735	1013
1643.74957345849	1005
1644.36330646094	1008.79998779297
1644.97695896213	1009
1645.59053096951	1008.20001220703
1646.20402249049	1008.59997558594
1646.8174335325	1010.20001220703
1647.43076410298	1010.79998779297
1648.04401420935	1019.79998779297
1648.65718385905	1018.79998779297
1649.2702730595	1017.20001220703
1649.88328181812	1017.20001220703
1650.49621014236	1011.59997558594
1651.10905803963	1020.79998779297
1651.72182551735	1018
1652.33451258297	1013.40002441406
1652.9471192439	1012.20001220703
1653.55964550757	1013.40002441406
1654.1720913814	1004.40002441406
1654.78445687283	1003.59997558594
1655.39674198926	1000.20001220703
1656.00894673814	997.400024414063
1656.62107112688	998.799987792969
1657.23311516291	996
1657.84507885365	997.799987792969
1658.45696220652	993.799987792969
1659.06876522895	995.200012207031
1659.68048792835	1000
1660.29213031217	1005
1660.90369238779	996.799987792969
1661.51517416267	991.400024414063
1662.12657564421	987.799987792969
1662.73789683984	983.200012207031
1663.34913775697	984.599975585938
1663.96029840303	983.599975585938
1664.57137878544	984.799987792969
1665.18237891161	982
1665.79329878897	986
1666.40413842493	988.599975585938
1667.01489782691	985.400024414063
1667.62557700233	984.400024414063
1668.2361759586	982.599975585938
1668.84669470315	982
1669.4571332434	984.799987792969
1670.06749158675	982.200012207031
1670.67776974062	983.599975585938
1671.28796771243	979.400024414063
1671.8980855096	980.599975585938
1672.50812313954	982.799987792969
1673.11808060967	979.400024414063
1673.72795792739	979.200012207031
1674.33775510013	977.400024414063
1674.9474721353	973.799987792969
1675.55710904031	978
1676.16666582257	977.200012207031
1676.7761424895	974.200012207031
1677.38553904851	974.799987792969
1677.99485550702	982.599975585938
1678.60409187243	972
1679.21324815215	978.599975585938
1679.8223243536	970
1680.43132048419	972
1681.04023655132	972.400024414063
1681.64907256241	975.799987792969
1682.25782852487	972.400024414063
1682.86650444611	972
1683.47510033353	974.599975585938
1684.08361619455	974.599975585938
1684.69205203657	977
1685.300407867	975.799987792969
1685.90868369325	973.599975585938
1686.51687952272	972.799987792969
1687.12499536283	974.200012207031
1687.73303122098	975
1688.34098710457	969.599975585938
1688.94886302101	969.599975585938
1689.55665897772	968.799987792969
1690.16437498208	969.799987792969
1690.77201104152	966.400024414063
1691.37956716342	967.200012207031
1691.9870433552	964.200012207031
1692.59443962426	965.400024414063
1693.20175597801	962.799987792969
1693.80899242384	957.799987792969
1694.41614896916	965.799987792969
1695.02322562138	963.400024414063
1695.63022238789	967.200012207031
1696.23713927609	966.200012207031
1696.8439762934	968
1697.4507334472	966.400024414063
1698.05741074491	964
1698.66400819391	959.799987792969
1699.27052580161	961.599975585938
1699.87696357542	958.200012207031
1700.48332152272	959
1701.08959965092	956
1701.69579796742	956.599975585938
1702.30191647962	961.400024414063
1702.90795519491	958
1703.51391412069	958.200012207031
1704.11979326437	963.599975585938
1704.72559263332	963.599975585938
1705.33131223496	967.200012207031
1705.93695207668	968.400024414063
1706.54251216588	960
1707.14799250994	963.599975585938
1707.75339311628	959.599975585938
1708.35871399227	960.799987792969
1708.96395514532	960.799987792969
1709.56911658282	963
