634.948122577771	1232.59997558594
635.690341530823	1227
636.43246851086	1228.80004882813
637.174503525845	1218.40002441406
637.916446583745	1223.59997558594
638.658297692538	1220
639.400056860179	1232.59997558594
640.141724094637	1225.80004882813
640.883299403885	1237.40002441406
641.62478279588	1226.80004882813
642.366174278594	1245
643.107473859989	1239.80004882813
643.848681548029	1234.40002441406
644.589797350679	1240
645.330821275901	1240.59997558594
646.071753331665	1224.19995117188
646.812593525922	1216.40002441406
647.553341866646	1203.59997558594
648.293998361798	1225.59997558594
649.03456301933	1228.80004882813
649.775035847216	1227.40002441406
650.515416853409	1225.40002441406
651.255706045874	1225.19995117188
651.995903432568	1223.40002441406
652.736009021453	1226.40002441406
653.476022820486	1226.40002441406
654.215944837629	1208.40002441406
654.955775080842	1217.40002441406
655.695513558081	1212
656.435160277301	1224.80004882813
657.174715246465	1226.40002441406
657.914178473527	1229
658.653549966449	1238.19995117188
659.392829733176	1242
660.132017781678	1240.59997558594
660.871114119901	1251
661.610118755803	1242.80004882813
662.349031697343	1246
663.087852952468	1245.19995117188
663.826582529139	1241.80004882813
664.565220435305	1240.80004882813
665.30376667892	1238
666.04222126794	1248.19995117188
666.780584210316	1243.19995117188
667.518855514	1246
668.25703518694	1248.59997558594
668.995123237096	1247.40002441406
669.733119672413	1255.80004882813
670.471024500842	1252
671.208837730333	1260.80004882813
671.946559368839	1254.80004882813
672.684189424308	1250.40002441406
673.421727904689	1241.19995117188
674.159174817929	1252.40002441406
674.896530171977	1242.80004882813
675.633793974786	1241
676.370966234295	1248.19995117188
677.108046958461	1248
677.845036155219	1257
678.581933832528	1252.19995117188
679.318739998323	1250
680.055454660558	1242.19995117188
680.792077827172	1249.80004882813
681.528609506116	1254
682.265049705331	1261.19995117188
683.001398432759	1256.59997558594
683.737655696349	1245.80004882813
684.47382150404	1250
685.20989586378	1250.80004882813
685.945878783503	1249.59997558594
686.68177027116	1257.40002441406
687.417570334688	1250.59997558594
688.153278982032	1254.40002441406
688.888896221129	1237.19995117188
689.624422059921	1238.80004882813
690.359856506349	1230.59997558594
691.095199568354	1248.59997558594
691.830451253874	1240.40002441406
692.565611570844	1257.19995117188
693.300680527212	1255.40002441406
694.03565813091	1249
694.770544389877	1246.40002441406
695.505339312053	1248.80004882813
696.240042905372	1246.80004882813
696.974655177772	1254.40002441406
697.70917613719	1247.40002441406
698.443605791561	1246.40002441406
699.177944148826	1233.59997558594
699.912191216909	1241.40002441406
700.646347003755	1240.19995117188
701.380411517295	1240.59997558594
702.114384765465	1244.40002441406
702.848266756195	1247.59997558594
703.582057497421	1249.40002441406
704.315756997074	1252.80004882813
705.049365263089	1252.19995117188
705.782882303399	1249.19995117188
706.516308125936	1262.40002441406
707.249642738626	1266.40002441406
707.982886149403	1260.40002441406
708.716038366204	1270.40002441406
709.449099396949	1264.59997558594
710.182069249577	1265
710.914947932009	1270.59997558594
711.647735452181	1274.80004882813
712.380431818022	1253.59997558594
713.113037037454	1257
713.845551118411	1251.19995117188
714.577974068818	1260.40002441406
715.310305896604	1254.80004882813
716.042546609694	1258
716.774696216013	1257
717.506754723493	1241.40002441406
718.238722140053	1241.59997558594
718.970598473624	1251.80004882813
719.702383732127	1264
720.43407792349	1262
721.165681055634	1269.80004882813
721.897193136486	1274.80004882813
722.628614173966	1277.40002441406
723.359944175997	1271.19995117188
724.091183150505	1267.40002441406
724.822331105412	1269
725.553388048638	1276.19995117188
726.284353988106	1275
727.015228931734	1273
727.746012887449	1258.40002441406
728.476705863162	1251.40002441406
729.207307866803	1252
729.937818906289	1260.40002441406
730.668238989535	1263.59997558594
731.398568124459	1260.59997558594
732.128806318986	1244.59997558594
732.858953581034	1247.59997558594
733.589009918514	1247.59997558594
734.318975339348	1247.80004882813
735.048849851452	1242
735.778633462744	1259.40002441406
736.508326181137	1258
737.237928014549	1258.80004882813
737.967438970897	1255.40002441406
738.696859058095	1260
739.426188284054	1251
740.155426656692	1262.59997558594
740.884574183922	1270.40002441406
741.613630873659	1278
742.342596733815	1267.40002441406
743.071471772302	1265.40002441406
743.800255997034	1262.80004882813
744.528949415921	1278.40002441406
745.257552036877	1272.80004882813
745.986063867811	1267.80004882813
746.714484916638	1263
747.442815191261	1257.19995117188
748.171054699597	1249.59997558594
748.899203449554	1251.40002441406
749.627261449039	1255.19995117188
750.355228705966	1267.59997558594
751.083105228239	1249.40002441406
751.810891023765	1250
752.538586100459	1261
753.266190466218	1253.19995117188
753.99370412896	1259
754.721127096582	1259
755.448459377	1264.80004882813
756.175700978114	1260
756.902851907828	1249.19995117188
757.629912174055	1257.80004882813
758.356881784688	1266.80004882813
759.083760747639	1271.80004882813
759.810549070817	1260.40002441406
760.537246762113	1271.19995117188
761.263853829442	1282.59997558594
761.990370280698	1285.80004882813
762.716796123791	1291.19995117188
763.443131366618	1290.19995117188
764.169376017082	1295.59997558594
764.895530083085	1298.19995117188
765.621593572527	1298.80004882813
766.347566493312	1290.19995117188
767.073448853336	1286.40002441406
767.799240660502	1307.40002441406
768.524941922707	1298
769.250552647854	1315.19995117188
769.976072843836	1316.19995117188
770.701502518551	1313.59997558594
771.426841679905	1321.19995117188
772.152090335793	1319.40002441406
772.877248494107	1332.40002441406
773.602316162747	1337.59997558594
774.327293349609	1334
775.052180062592	1318.59997558594
775.776976309589	1321.80004882813
776.501682098496	1305.40002441406
777.226297437206	1314.80004882813
777.950822333616	1294.40002441406
778.675256795621	1293.59997558594
779.399600831111	1293.40002441406
780.123854447983	1301.19995117188
780.84801765413	1290.19995117188
781.572090457441	1297.19995117188
782.296072865811	1300.19995117188
783.019964887131	1297.80004882813
783.743766529297	1288.19995117188
784.467477800194	1284
785.191098707719	1280.40002441406
785.914629259756	1266.59997558594
786.638069464194	1271
787.361419328932	1261.40002441406
788.084678861852	1262.59997558594
788.807848070845	1259.40002441406
789.530926963798	1260.40002441406
790.253915548602	1264.80004882813
790.976813833144	1278.40002441406
791.699621825307	1274.80004882813
792.422339532986	1284.19995117188
793.144966964061	1270.19995117188
793.86750412642	1271
794.589951027946	1279.40002441406
795.312307676536	1268.19995117188
796.03457408006	1267
796.756750246417	1272.59997558594
797.478836183477	1267.59997558594
798.200831899137	1266.19995117188
798.92273740127	1266.59997558594
799.644552697769	1267
800.36627779651	1261.59997558594
801.087912705374	1258
801.809457432251	1272
802.530911985017	1276
803.252276371558	1277
803.973550599748	1269.40002441406
804.694734677472	1268.40002441406
805.415828612611	1263.59997558594
806.136832413045	1268.80004882813
806.857746086646	1275.19995117188
807.578569641305	1275.19995117188
808.299303084892	1278.40002441406
809.019946425289	1276.19995117188
809.740499670372	1267.80004882813
810.460962828022	1274.19995117188
811.181335906114	1271.80004882813
811.901618912524	1283.40002441406
812.621811855131	1283.19995117188
813.341914741809	1282
814.061927580433	1276.80004882813
814.781850378881	1281
815.501683145025	1266
816.221425886743	1276
816.941078611903	1279.19995117188
817.660641328387	1280
818.380114044065	1276.59997558594
819.099496766808	1276
819.818789504492	1271.19995117188
820.53799226499	1271.59997558594
821.257105056168	1273.19995117188
821.976127885904	1279.19995117188
822.695060762064	1280
823.413903692525	1274.40002441406
824.132656685151	1274
824.851319747817	1280.40002441406
825.569892888388	1267.19995117188
826.288376114739	1259.59997558594
827.006769434737	1262.19995117188
827.725072856249	1274
828.443286387142	1273.80004882813
829.161410035285	1266.59997558594
829.87944380855	1261.59997558594
830.597387714798	1258.40002441406
831.315241761898	1265.59997558594
832.033005957715	1268.19995117188
832.750680310119	1261.59997558594
833.468264826969	1263.19995117188
834.18575951614	1253.40002441406
834.903164385486	1257
835.620479442878	1244.59997558594
836.337704696181	1252.80004882813
837.054840153255	1245
837.771885821962	1249.19995117188
838.488841710172	1248
839.20570782574	1258.40002441406
839.922484176531	1265
840.639170770409	1264.59997558594
841.355767615231	1262.80004882813
842.072274718864	1273.40002441406
842.788692089164	1273.40002441406
843.505019733993	1266
844.221257661209	1266.80004882813
844.937405878676	1260.19995117188
845.65346439425	1260.80004882813
846.369433215789	1257
847.085312351156	1266.19995117188
847.801101808205	1263.80004882813
848.516801594793	1268.19995117188
849.232411718781	1269.40002441406
849.947932188021	1270.40002441406
850.663363010376	1267.80004882813
851.378704193698	1264
852.093955745842	1253.19995117188
852.809117674669	1257.40002441406
853.524189988028	1270.40002441406
854.239172693778	1259.80004882813
854.954065799768	1264.40002441406
855.668869313857	1263.80004882813
856.383583243899	1263.19995117188
857.098207597743	1261.59997558594
857.812742383246	1255.80004882813
858.527187608255	1248.40002441406
859.241543280628	1258.59997558594
859.955809408218	1261.40002441406
860.669985998868	1272
861.384073060437	1255.59997558594
862.098070600772	1252.19995117188
862.811978627724	1249.19995117188
863.52579714914	1247.40002441406
864.239526172873	1248
864.953165706776	1244.59997558594
865.666715758687	1247
866.380176336464	1241.19995117188
867.093547447951	1250
867.806829100996	1260
868.520021303444	1259.59997558594
869.233124063149	1252.19995117188
869.94613738795	1258.40002441406
870.659061285693	1268.19995117188
871.37189576423	1273.80004882813
872.084640831403	1262.59997558594
872.797296495057	1262
873.509862763039	1246.40002441406
874.22233964319	1259.59997558594
874.934727143353	1252.80004882813
875.647025271374	1271.80004882813
876.359234035097	1254.59997558594
877.071353442361	1255
877.783383501015	1261.80004882813
878.495324218895	1253.19995117188
879.207175603844	1266.19995117188
879.918937663705	1265.40002441406
880.630610406318	1270.40002441406
881.342193839524	1277.59997558594
882.053687971161	1273.59997558594
882.765092809069	1276.80004882813
883.476408361091	1281.40002441406
884.187634635066	1271.19995117188
884.898771638828	1263.19995117188
885.609819380221	1269.19995117188
886.320777867076	1264
887.031647107236	1259
887.742427108536	1251.19995117188
888.453117878816	1254.59997558594
889.16371942591	1249.19995117188
889.874231757652	1255.80004882813
890.584654881883	1265.59997558594
891.294988806434	1271.80004882813
892.005233539141	1272.59997558594
892.715389087837	1266.19995117188
893.42545546036	1270
894.135432664543	1266.80004882813
894.845320708216	1259.19995117188
895.555119599216	1256.59997558594
896.264829345375	1261
896.974449954526	1257.80004882813
897.683981434496	1261
898.393423793125	1262.59997558594
899.102777038235	1258.19995117188
899.812041177664	1267.80004882813
900.521216219239	1272.59997558594
901.230302170793	1266.59997558594
901.939299040155	1256.40002441406
902.64820683515	1252.19995117188
903.357025563612	1258
904.065755233368	1269.80004882813
904.774395852247	1265.19995117188
905.482947428076	1276
906.191409968682	1267.19995117188
906.899783481897	1264.19995117188
907.608067975538	1258.19995117188
908.316263457443	1267.59997558594
909.02436993543	1259.19995117188
909.732387417327	1267.59997558594
910.440315910959	1260.59997558594
911.148155424154	1263
911.855905964731	1259.19995117188
912.563567540521	1278.59997558594
913.271140159339	1262.80004882813
913.978623829017	1252.19995117188
914.686018557374	1249.59997558594
915.393324352237	1239.59997558594
916.100541221421	1237.40002441406
916.807669172752	1245.40002441406
917.514708214054	1247
918.221658353142	1250.80004882813
918.928519597843	1257.80004882813
919.635291955976	1248
920.341975435358	1251.59997558594
921.048570043813	1258
921.75507578916	1257.40002441406
922.461492679212	1249.80004882813
923.167820721795	1246.80004882813
923.874059924726	1245
924.58021029582	1251.19995117188
925.286271842893	1264.19995117188
925.992244573769	1268.40002441406
926.698128496262	1270.19995117188
927.403923618184	1262.19995117188
928.109629947355	1258.40002441406
928.815247491593	1258.59997558594
929.520776258708	1251.40002441406
930.226216256519	1260.19995117188
930.931567492841	1260.40002441406
931.636829975482	1266.59997558594
932.342003712263	1259.80004882813
933.047088710995	1246.19995117188
933.752084979491	1255.19995117188
934.456992525564	1249.19995117188
935.161811357024	1260.40002441406
935.866541481688	1254.80004882813
936.571182907363	1265.40002441406
937.275735641861	1274.40002441406
937.980199692995	1260.40002441406
938.684575068572	1255
939.388861776411	1255.19995117188
940.093059824311	1252
940.797169220085	1251.80004882813
941.501189971544	1255.19995117188
942.205122086495	1246
942.908965572751	1250.59997558594
943.612720438111	1253
944.316386690391	1253.59997558594
945.019964337391	1257
945.723453386924	1256.40002441406
946.426853846795	1252.40002441406
947.130165724808	1248.40002441406
947.83338902877	1250.80004882813
948.536523766488	1250.19995117188
949.239569945764	1247.40002441406
949.942527574402	1254.80004882813
950.64539666021	1258.59997558594
951.348177210993	1253
952.050869234548	1255.40002441406
952.753472738683	1256.59997558594
953.455987731199	1255.80004882813
954.158414219898	1256.19995117188
954.860752212587	1253.80004882813
955.563001717061	1250.19995117188
956.265162741124	1247
956.967235292576	1249.40002441406
957.669219379224	1248.40002441406
958.371115008857	1244.40002441406
959.072922189283	1243.19995117188
959.774640928301	1236.40002441406
960.476271233708	1248.59997558594
961.177813113301	1248.59997558594
961.879266574882	1252.19995117188
962.580631626248	1249.80004882813
963.281908275194	1256
963.98309652952	1260
964.684196397022	1257.80004882813
965.3852078855	1248.80004882813
966.086131002745	1260.59997558594
966.786965756555	1241
967.487712154726	1242.40002441406
968.188370205055	1228.40002441406
968.888939915331	1237.59997558594
969.589421293352	1252
970.289814346909	1246.59997558594
970.990119083801	1245.59997558594
971.690335511819	1245.59997558594
972.39046363875	1238
973.090503472398	1235.59997558594
973.790455020545	1232.40002441406
974.490318290987	1233.40002441406
975.190093291516	1247
975.889780029923	1259.59997558594
976.589378513998	1254.19995117188
977.288888751527	1257.59997558594
977.988310750308	1255.59997558594
978.687644518122	1256.19995117188
979.386890062767	1260.19995117188
980.086047392025	1250
980.785116513689	1245.59997558594
981.484097435542	1247.40002441406
982.182990165377	1233.40002441406
982.88179471098	1240.40002441406
983.580511080137	1241.19995117188
984.279139280632	1238.80004882813
984.977679320253	1234
985.67613120679	1235.40002441406
986.374494948027	1233.59997558594
987.072770551745	1236
987.770958025731	1236.80004882813
988.469057377772	1234.80004882813
989.167068615649	1242.59997558594
989.864991747145	1239.59997558594
990.562826780047	1245
991.260573722134	1245.59997558594
991.958232581195	1234.80004882813
992.655803365003	1240.19995117188
993.353286081346	1244.59997558594
994.050680738006	1243.40002441406
994.74798734276	1245
995.44520590339	1235.40002441406
996.142336427681	1240.40002441406
996.839378923407	1237.80004882813
997.536333398348	1236.59997558594
998.233199860289	1236
998.929978317004	1235.80004882813
999.626668776274	1232.40002441406
1000.32327124587	1243.59997558594
1001.01978573359	1237.80004882813
1001.71621224718	1239.80004882813
1002.41255079445	1233.59997558594
1003.10880138315	1238.59997558594
1003.80496402107	1233.59997558594
1004.50103871599	1235.80004882813
1005.19702547567	1229.19995117188
1005.8929243079	1231
1006.58873522045	1233.59997558594
1007.2844582211	1240.59997558594
1007.98009331761	1237.19995117188
1008.67564051776	1235.59997558594
1009.37109982933	1242.19995117188
1010.06647126009	1246
1010.7617548178	1240
1011.45695051026	1252.59997558594
1012.15205834522	1247.40002441406
1012.84707833045	1248
1013.54201047373	1228.59997558594
1014.23685478284	1244.40002441406
1014.93161126553	1238.59997558594
1015.62627992959	1234.19995117188
1016.32086078277	1234
1017.01535383285	1237
1017.70975908761	1250
1018.40407655479	1250
1019.09830624219	1257.59997558594
1019.79244815755	1249.80004882813
1020.48650230866	1240
1021.18046870328	1246.80004882813
1021.87434734917	1249.80004882813
1022.56813825411	1237.80004882813
1023.26184142584	1228.40002441406
1023.95545687216	1231.19995117188
1024.64898460082	1233.59997558594
1025.34242461957	1238.80004882813
1026.0357769362	1253.19995117188
1026.72904155846	1242
1027.42221849412	1235
1028.11530775094	1241.19995117188
1028.80830933668	1246
1029.50122325911	1253
1030.19404952599	1247.59997558594
1030.88678814508	1254.19995117188
1031.57943912414	1246.40002441406
1032.27200247093	1246.40002441406
1032.96447819323	1252.40002441406
1033.65686629878	1238.59997558594
1034.34916679534	1243
1035.04137969068	1236.40002441406
1035.73350499256	1223.80004882813
1036.42554270874	1234.40002441406
1037.11749284697	1234.59997558594
1037.80935541501	1226.40002441406
1038.50113042062	1233.40002441406
1039.19281787156	1241.80004882813
1039.88441777559	1233.19995117188
1040.57593014046	1249.59997558594
1041.26735497393	1244
1041.95869228376	1236.80004882813
1042.6499420777	1240.40002441406
1043.3411043635	1239.19995117188
1044.03217914893	1238
1044.72316644174	1238.59997558594
1045.41406624968	1227.80004882813
1046.1048785805	1234.40002441406
1046.79560344197	1240.59997558594
1047.48624084182	1232.80004882813
1048.17679078783	1234.19995117188
1048.86725328774	1230.19995117188
1049.55762834929	1225.19995117188
1050.24791598025	1222
1050.93811618837	1225.19995117188
1051.62822898139	1227.59997558594
1052.31825436707	1222
1053.00819235315	1219.40002441406
1053.6980429474	1230
1054.38780615755	1217.19995117188
1055.07748199136	1226.40002441406
1055.76707045658	1218.59997558594
1056.45657156095	1223.59997558594
1057.14598531222	1222.59997558594
1057.83531171814	1219.40002441406
1058.52455078646	1221.40002441406
1059.21370252494	1212.80004882813
1059.90276694129	1222.59997558594
1060.5917440433	1220.40002441406
1061.28063383868	1222.19995117188
1061.9694363352	1218.80004882813
1062.65815154059	1219
1063.34677946261	1220.40002441406
1064.03532010899	1222
1064.72377348748	1226.19995117188
1065.41213960583	1231.19995117188
1066.10041847177	1229.19995117188
1066.78861009306	1226.40002441406
1067.47671447743	1216.59997558594
1068.16473163263	1228.19995117188
1068.85266156639	1230
1069.54050428647	1226
1070.2282598006	1224.19995117188
1070.91592811652	1234.59997558594
1071.60350924198	1227.59997558594
1072.29100318471	1226.40002441406
1072.97840995245	1229.59997558594
1073.66572955295	1220.19995117188
1074.35296199394	1229.59997558594
1075.04010728316	1214.80004882813
1075.72716542836	1221.80004882813
1076.41413643726	1216.80004882813
1077.10102031761	1214.40002441406
1077.78781707715	1227
1078.4745267236	1218.80004882813
1079.16114926471	1223
1079.84768470822	1227
1080.53413306185	1225.80004882813
1081.22049433336	1228.19995117188
1081.90676853046	1241
1082.5929556609	1223.19995117188
1083.27905573241	1238.40002441406
1083.96506875272	1230.80004882813
1084.65099472957	1234.59997558594
1085.3368336707	1226
1086.02258558383	1223.40002441406
1086.70825047669	1217.19995117188
1087.39382835703	1227.19995117188
1088.07931923257	1228.59997558594
1088.76472311104	1228.40002441406
1089.45004000018	1220.19995117188
1090.13526990771	1226
1090.82041284137	1226
1091.50546880889	1223.80004882813
1092.19043781799	1220.80004882813
1092.87531987642	1223.40002441406
1093.56011499188	1224.80004882813
1094.24482317212	1223.59997558594
1094.92944442486	1210.19995117188
1095.61397875783	1213.19995117188
1096.29842617876	1217.40002441406
1096.98278669537	1210.80004882813
1097.6670603154	1210.40002441406
1098.35124704656	1222.19995117188
1099.03534689659	1224.40002441406
1099.71935987322	1216.80004882813
1100.40328598416	1225.80004882813
1101.08712523713	1222.59997558594
1101.77087763988	1220.40002441406
1102.45454320012	1218.19995117188
1103.13812192557	1216.59997558594
1103.82161382396	1227.19995117188
1104.50501890301	1228.40002441406
1105.18833717045	1232
1105.87156863399	1228
1106.55471330137	1233.80004882813
1107.2377711803	1227.19995117188
1107.9207422785	1228.19995117188
1108.60362660369	1237.19995117188
1109.2864241636	1231.80004882813
1109.96913496594	1225
1110.65175901844	1206
1111.33429632882	1210.80004882813
1112.01674690479	1209.80004882813
1112.69911075408	1210.19995117188
1113.38138788439	1212.80004882813
1114.06357830346	1205.19995117188
1114.745682019	1203.40002441406
1115.42769903872	1202.80004882813
1116.10962937035	1206.40002441406
1116.7914730216	1204.19995117188
1117.47323000018	1210.80004882813
1118.15490031382	1211.59997558594
1118.83648397022	1209.80004882813
1119.51798097712	1208.40002441406
1120.1993913422	1214
1120.88071507321	1218.40002441406
1121.56195217784	1216.19995117188
1122.24310266381	1214
1122.92416653884	1221
1123.60514381064	1217
1124.28603448692	1213.40002441406
1124.9668385754	1217.19995117188
1125.64755608378	1216.19995117188
1126.32818701978	1202.80004882813
1127.00873139111	1214.19995117188
1127.68918920548	1216.40002441406
1128.3695604706	1221.59997558594
1129.04984519419	1222.80004882813
1129.73004338394	1217.19995117188
1130.41015504758	1219
1131.09018019281	1224.40002441406
1131.77011882734	1222
1132.44997095888	1204.40002441406
1133.12973659514	1217.19995117188
1133.80941574381	1220.19995117188
1134.48900841263	1225.19995117188
1135.16851460927	1235.19995117188
1135.84793434147	1215.19995117188
1136.52726761692	1210
1137.20651444333	1210.80004882813
1137.8856748284	1212.80004882813
1138.56474877984	1215.19995117188
1139.24373630536	1214.59997558594
1139.92263741265	1222
1140.60145210943	1238.59997558594
1141.28018040339	1228.19995117188
1141.95882230225	1221.59997558594
1142.6373778137	1226
1143.31584694545	1230.59997558594
1143.99422970519	1231
1144.67252610064	1226.19995117188
1145.35073613949	1208.59997558594
1146.02885982944	1215.80004882813
1146.7068971782	1213.59997558594
1147.38484819347	1204.80004882813
1148.06271288294	1198.19995117188
1148.74049125432	1209
1149.41818331531	1210.80004882813
1150.0957890736	1203.59997558594
1150.77330853689	1215.40002441406
1151.45074171289	1215
1152.12808860928	1202.40002441406
1152.80534923378	1226.19995117188
1153.48252359407	1222.80004882813
1154.15961169786	1213.59997558594
1154.83661355283	1211.19995117188
1155.51352916669	1224
1156.19035854713	1214.40002441406
1156.86710170185	1220.19995117188
1157.54375863855	1220.40002441406
1158.22032936491	1220.59997558594
1158.89681388863	1218.59997558594
1159.57321221741	1207.40002441406
1160.24952435894	1205
1160.92575032092	1206.80004882813
1161.60189011103	1211
1162.27794373697	1213.80004882813
1162.95391120644	1208.80004882813
1163.62979252712	1208
1164.3055877067	1213
1164.98129675288	1209.40002441406
1165.65691967336	1212.59997558594
1166.33245647581	1207.19995117188
1167.00790716792	1211.40002441406
1167.6832717574	1220
1168.35855025193	1212.19995117188
1169.0337426592	1205
1169.70884898689	1209.19995117188
1170.3838692427	1204
1171.05880343431	1210.19995117188
1171.73365156941	1204.80004882813
1172.40841365569	1204.80004882813
1173.08308970083	1212.40002441406
1173.75767971253	1205
1174.43218369847	1210
1175.10660166633	1218.19995117188
1175.7809336238	1223.59997558594
1176.45517957857	1223.80004882813
1177.12933953832	1233.40002441406
1177.80341351073	1222.19995117188
1178.47740150349	1221.19995117188
1179.15130352429	1232
1179.8251195808	1229.40002441406
1180.49884968071	1225.19995117188
1181.1724938317	1241.19995117188
1181.84605204145	1226.59997558594
1182.51952431766	1223.19995117188
1183.19291066799	1227.80004882813
1183.86621110013	1230.40002441406
1184.53942562176	1223.59997558594
1185.21255424057	1235.19995117188
1185.88559696422	1237.19995117188
1186.55855380041	1231.59997558594
1187.2314247568	1232.40002441406
1187.90420984109	1231.40002441406
1188.57690906095	1231.59997558594
1189.24952242405	1226.80004882813
1189.92204993808	1237.59997558594
1190.59449161071	1239.40002441406
1191.26684744962	1239.40002441406
1191.93911746249	1238.19995117188
1192.61130165699	1229.80004882813
1193.28340004081	1228.19995117188
1193.95541262161	1215
1194.62733940707	1216.19995117188
1195.29918040487	1213
1195.97093562269	1204.19995117188
1196.64260506819	1205.59997558594
1197.31418874905	1200.19995117188
1197.98568667295	1211.59997558594
1198.65709884755	1212.59997558594
1199.32842528053	1212
1199.99966597957	1211.40002441406
1200.67082095234	1216.59997558594
1201.3418902065	1214
1202.01287374974	1208.80004882813
1202.68377158971	1210.80004882813
1203.3545837341	1219.80004882813
1204.02531019057	1223
1204.6959509668	1222.40002441406
1205.36650607045	1219.19995117188
1206.03697550919	1219.59997558594
1206.70735929069	1221.40002441406
1207.37765742263	1222.40002441406
1208.04786991266	1221
1208.71799676846	1211.19995117188
1209.38803799769	1209.59997558594
1210.05799360803	1221.19995117188
1210.72786360714	1213.19995117188
1211.39764800268	1215.19995117188
1212.06734680233	1216.59997558594
1212.73696001375	1201.80004882813
1213.4064876446	1198
1214.07592970255	1201.59997558594
1214.74528619526	1206.40002441406
1215.4145571304	1194
1216.08374251564	1208.19995117188
1216.75284235863	1208.40002441406
1217.42185666704	1214.59997558594
1218.09078544854	1216.40002441406
1218.75962871078	1203
1219.42838646143	1203.80004882813
1220.09705870816	1212.40002441406
1220.76564545861	1201
1221.43414672046	1204
1222.10256250136	1207.59997558594
1222.77089280898	1202.40002441406
1223.43913765098	1199.40002441406
1224.107297035	1196
1224.77537096873	1190.59997558594
1225.44335945981	1188.40002441406
1226.1112625159	1180.59997558594
1226.77908014467	1183.19995117188
1227.44681235376	1194
1228.11445915085	1188.19995117188
1228.78202054357	1197.40002441406
1229.44949653961	1200.40002441406
1230.11688714659	1197.19995117188
1230.7841923722	1197.19995117188
1231.45141222407	1193.80004882813
1232.11854670988	1201.19995117188
1232.78559583726	1202.19995117188
1233.45255961388	1195.80004882813
1234.1194380474	1189.40002441406
1234.78623114546	1192.19995117188
1235.45293891572	1191.59997558594
1236.11956136583	1187.80004882813
1236.78609850345	1200
1237.45255033623	1213.80004882813
1238.11891687182	1205.59997558594
1238.78519811788	1203.59997558594
1239.45139408205	1205.59997558594
1240.11750477198	1194.19995117188
1240.78353019534	1198.19995117188
1241.44947035976	1197.59997558594
1242.11532527291	1203
1242.78109494242	1194.40002441406
1243.44677937595	1197.40002441406
1244.11237858115	1197.40002441406
1244.77789256567	1185.59997558594
1245.44332133715	1185.59997558594
1246.10866490325	1192.59997558594
1246.7739232716	1189.59997558594
1247.43909644987	1192.80004882813
1248.10418444569	1187.19995117188
1248.76918726671	1195
1249.43410492059	1186.40002441406
1250.09893741496	1201.80004882813
1250.76368475747	1204.19995117188
1251.42834695576	1204
1252.09292401749	1196.80004882813
1252.75741595029	1203.59997558594
1253.42182276182	1204.59997558594
1254.08614445971	1205.80004882813
1254.75038105161	1196.59997558594
1255.41453254515	1193.19995117188
1256.07859894799	1207.80004882813
1256.74258026777	1194.59997558594
1257.40647651213	1199.40002441406
1258.0702876887	1202.19995117188
1258.73401380514	1191.59997558594
1259.39765486908	1196
1260.06121088817	1203
1260.72468187004	1191.40002441406
1261.38806782233	1191.59997558594
1262.05136875269	1202.59997558594
1262.71458466875	1193.40002441406
1263.37771557815	1202.59997558594
1264.04076148854	1198
1264.70372240753	1193
1265.3665983428	1185.19995117188
1266.02938930195	1195
1266.69209529263	1181
1267.35471632249	1195
1268.01725239914	1198
1268.67970353024	1193.59997558594
1269.34206972342	1195.80004882813
1270.00435098631	1194.19995117188
1270.66654732655	1198
1271.32865875177	1201.59997558594
1271.9906852696	1199
1272.65262688768	1197
1273.31448361365	1195.59997558594
1273.97625545514	1196
1274.63794241978	1199
1275.2995445152	1202.59997558594
1275.96106174903	1201.59997558594
1276.62249412892	1201.59997558594
1277.28384166248	1185.19995117188
1277.94510435735	1187
1278.60628222116	1191.59997558594
1279.26737526155	1184.40002441406
1279.92838348613	1192.80004882813
1280.58930690255	1205.19995117188
1281.25014551842	1204.19995117188
1281.91089934139	1202.59997558594
1282.57156837907	1197.19995117188
1283.2321526391	1191
1283.89265212911	1187
1284.55306685671	1188.40002441406
1285.21339682955	1188
1285.87364205525	1188.80004882813
1286.53380254142	1182.80004882813
1287.19387829571	1187.19995117188
1287.85386932573	1196.59997558594
1288.51377563911	1188.80004882813
1289.17359724348	1204.19995117188
1289.83333414646	1200
1290.49298635567	1196
1291.15255387874	1179.19995117188
1291.8120367233	1179.40002441406
1292.47143489696	1187.59997558594
1293.13074840736	1186
1293.7899772621	1193.59997558594
1294.44912146882	1194.59997558594
1295.10818103513	1201.59997558594
1295.76715596866	1197.19995117188
1296.42604627704	1196.40002441406
1297.08485196787	1191.19995117188
1297.74357304878	1183.19995117188
1298.4022095274	1185.19995117188
1299.06076141134	1187.59997558594
1299.71922870821	1182.40002441406
1300.37761142565	1193
1301.03590957126	1193.19995117188
1301.69412315268	1195.80004882813
1302.3522521775	1202.40002441406
1303.01029665336	1198.40002441406
1303.66825658787	1199.19995117188
1304.32613198865	1197.80004882813
1304.98392286332	1205.19995117188
1305.64162921948	1210
1306.29925106476	1199.59997558594
1306.95678840677	1202.59997558594
1307.61424125312	1204.59997558594
1308.27160961145	1198
1308.92889348934	1198
1309.58609289443	1194
1310.24320783432	1196.80004882813
1310.90023831664	1207.19995117188
1311.55718434898	1206.19995117188
1312.21404593897	1191
1312.87082309421	1198.19995117188
1313.52751582233	1204.19995117188
1314.18412413092	1209.80004882813
1314.84064802761	1212.80004882813
1315.49708752	1207
1316.1534426157	1206.40002441406
1316.80971332233	1214
1317.46589964749	1202.59997558594
1318.1220015988	1205
1318.77801918386	1210.59997558594
1319.43395241028	1203.40002441406
1320.08980128567	1188
1320.74556581764	1201.59997558594
1321.4012460138	1194
1322.05684188176	1194.19995117188
1322.71235342911	1183.80004882813
1323.36778066347	1193.59997558594
1324.02312359245	1191.59997558594
1324.67838222365	1194.80004882813
1325.33355656468	1199.40002441406
1325.98864662314	1206.80004882813
1326.64365240663	1209.59997558594
1327.29857392277	1197
1327.95341117915	1188.59997558594
1328.60816418339	1191
1329.26283294308	1194.59997558594
1329.91741746582	1202
1330.57191775923	1199.19995117188
1331.2263338309	1196
1331.88066568843	1198.80004882813
1332.53491333943	1193.40002441406
1333.1890767915	1193.59997558594
1333.84315605224	1193.59997558594
1334.49715112925	1181.40002441406
1335.15106203013	1185.40002441406
1335.80488876249	1178.59997558594
1336.45863133391	1184.59997558594
1337.112289752	1191.40002441406
1337.76586402437	1197.40002441406
1338.4193541586	1192
1339.0727601623	1189.80004882813
1339.72608204306	1188.40002441406
1340.37931980849	1198.19995117188
1341.03247346617	1196.59997558594
1341.68554302372	1191
1342.33852848871	1196.40002441406
1342.99142986876	1200.19995117188
1343.64424717145	1194.19995117188
1344.29698040438	1198.19995117188
1344.94962957515	1215.40002441406
1345.60219469135	1216
1346.25467576058	1221
1346.90707279042	1209.80004882813
1347.55938578848	1214.59997558594
1348.21161476235	1219.40002441406
1348.86375971962	1216.59997558594
1349.51582066787	1216.19995117188
1350.16779761472	1199.40002441406
1350.81969056774	1212.40002441406
1351.47149953453	1213
1352.12322452269	1211.80004882813
1352.77486553979	1211.19995117188
1353.42642259344	1208
1354.07789569122	1217
1354.72928484072	1210
1355.38059004953	1217.19995117188
1356.03181132525	1223.80004882813
1356.68294867545	1218
1357.33400210773	1220.40002441406
1357.98497162968	1220.19995117188
1358.63585724889	1212
1359.28665897294	1216.40002441406
1359.93737680942	1210
1360.58801076591	1217.19995117188
1361.23856085001	1215.59997558594
1361.88902706929	1219.59997558594
1362.53940943135	1219.80004882813
1363.18970794377	1223
1363.83992261413	1228.19995117188
1364.49005345003	1229
1365.14010045904	1230
1365.79006364874	1236.59997558594
1366.43994302673	1236
1367.08973860058	1226.40002441406
1367.73945037788	1228.80004882813
1368.38907836621	1230.59997558594
1369.03862257315	1234.80004882813
1369.68808300629	1217.40002441406
1370.3374596732	1223.40002441406
1370.98675258148	1216.80004882813
1371.63596173868	1222.59997558594
1372.28508715241	1198.59997558594
1372.93412883024	1197
1373.58308677974	1188.80004882813
1374.2319610085	1191.40002441406
1374.8807515241	1193.19995117188
1375.52945833412	1183.59997558594
1376.17808144612	1205
1376.82662086771	1198.40002441406
1377.47507660644	1185.19995117188
1378.12344866989	1183
1378.77173706565	1180.40002441406
1379.41994180129	1167.40002441406
1380.06806288439	1171.59997558594
1380.71610032252	1170.40002441406
1381.36405412326	1173.59997558594
1382.01192429419	1174.40002441406
1382.65971084287	1177.80004882813
1383.30741377688	1172.40002441406
1383.95503310381	1183.19995117188
1384.60256883121	1181.19995117188
1385.25002096667	1179.40002441406
1385.89738951775	1162.80004882813
1386.54467449204	1173.19995117188
1387.19187589709	1176.59997558594
1387.8389937405	1176
1388.48602802982	1172.19995117188
1389.13297877262	1177.80004882813
1389.77984597649	1170
1390.42662964899	1159
1391.07332979768	1163.40002441406
1391.71994643015	1151.59997558594
1392.36647955395	1156.40002441406
1393.01292917667	1164.59997558594
1393.65929530586	1162.59997558594
1394.3055779491	1164.59997558594
1394.95177711395	1175.80004882813
1395.59789280799	1180
1396.24392503877	1173
1396.88987381387	1179
1397.53573914086	1178
1398.1815210273	1166.59997558594
1398.82721948075	1166
1399.47283450878	1168
1400.11836611897	1169.19995117188
1400.76381431886	1160.59997558594
1401.40917911603	1168
1402.05446051805	1160.40002441406
1402.69965853247	1166
1403.34477316686	1162.40002441406
1403.98980442878	1163.80004882813
1404.6347523258	1160.80004882813
1405.27961686548	1171.40002441406
1405.92439805538	1171.40002441406
1406.56909590306	1167.40002441406
1407.21371041608	1163.19995117188
1407.85824160202	1165.40002441406
1408.50268946841	1165.80004882813
1409.14705402284	1166
1409.79133527285	1163.80004882813
1410.43553322601	1161
1411.07964788987	1156.19995117188
1411.723679272	1160
1412.36762737996	1165.19995117188
1413.01149222129	1170.19995117188
1413.65527380357	1167.40002441406
1414.29897213435	1169.59997558594
1414.94258722118	1164.80004882813
1415.58611907163	1174.40002441406
1416.22956769325	1175.19995117188
1416.87293309359	1165.59997558594
1417.51621528021	1173
1418.15941426067	1174.80004882813
1418.80253004253	1176
1419.44556263333	1167.40002441406
1420.08851204063	1170.80004882813
1420.731378272	1172
1421.37416133497	1173.19995117188
1422.0168612371	1160
1422.65947798596	1166.19995117188
1423.30201158908	1169.80004882813
1423.94446205403	1169
1424.58682938835	1173.80004882813
1425.2291135996	1175
1425.87131469532	1182.40002441406
1426.51343268308	1174.19995117188
1427.15546757042	1165.59997558594
1427.79741936488	1177.80004882813
1428.43928807403	1171.80004882813
1429.0810737054	1184.40002441406
1429.72277626656	1176.40002441406
1430.36439576504	1179.59997558594
1431.00593220841	1161.80004882813
1431.64738560419	1162.59997558594
1432.28875595995	1171.80004882813
1432.93004328324	1166.59997558594
1433.57124758159	1165.80004882813
1434.21236886255	1156.80004882813
1434.85340713368	1159.40002441406
1435.49436240252	1154
1436.13523467661	1160.40002441406
1436.77602396349	1177.80004882813
1437.41673027073	1171.80004882813
1438.05735360585	1174.59997558594
1438.69789397641	1168.59997558594
1439.33835138994	1159.40002441406
1439.978725854	1165.40002441406
1440.61901737612	1157.40002441406
1441.25922596385	1168
1441.89935162473	1158.40002441406
1442.53939436631	1172.19995117188
1443.17935419612	1160.59997558594
1443.81923112171	1155.40002441406
1444.45902515061	1166.19995117188
1445.09873629038	1161
1445.73836454854	1164.40002441406
1446.37790993265	1153.19995117188
1447.01737245024	1157.80004882813
1447.65675210885	1155
1448.29604891602	1158.59997558594
1448.93526287928	1160.40002441406
1449.57439400618	1166.80004882813
1450.21344230426	1171.40002441406
1450.85240778105	1167.80004882813
1451.49129044409	1165.59997558594
1452.13009030092	1160.19995117188
1452.76880735907	1164
1453.40744162608	1163.59997558594
1454.04599310949	1162
1454.68446181683	1166.19995117188
1455.32284775564	1168.40002441406
1455.96115093345	1167.59997558594
1456.5993713578	1167.59997558594
1457.23750903623	1163.80004882813
1457.87556397626	1166.59997558594
1458.51353618543	1164.40002441406
1459.15142567127	1164.40002441406
1459.78923244132	1163.80004882813
1460.42695650311	1162.19995117188
1461.06459786417	1167.40002441406
1461.70215653203	1157.59997558594
1462.33963251423	1160.80004882813
1462.97702581829	1161.80004882813
1463.61433645175	1159.19995117188
1464.25156442214	1161
1464.88870973699	1157.80004882813
1465.52577240382	1155.80004882813
1466.16275243017	1159.19995117188
1466.79964982356	1153.40002441406
1467.43646459154	1156
1468.07319674161	1164.80004882813
1468.70984628132	1165.59997558594
1469.34641321818	1166.80004882813
1469.98289755974	1162.59997558594
1470.6192993135	1164.59997558594
1471.25561848701	1152.80004882813
1471.89185508779	1156.80004882813
1472.52800912336	1160.80004882813
1473.16408060124	1150.59997558594
1473.80006952897	1149.59997558594
1474.43597591407	1148.40002441406
1475.07179976406	1152.80004882813
1475.70754108647	1152.80004882813
1476.34319988883	1159.19995117188
1476.97877617865	1163
1477.61426996345	1154.19995117188
1478.24968125077	1159.40002441406
1478.88501004812	1157.80004882813
1479.52025636303	1154.80004882813
1480.15542020302	1152.40002441406
1480.79050157561	1159.19995117188
1481.42550048832	1158.80004882813
1482.06041694867	1163.19995117188
1482.69525096418	1154.40002441406
1483.33000254237	1155
1483.96467169077	1152.59997558594
1484.59925841689	1154
1485.23376272825	1145.19995117188
1485.86818463237	1150.19995117188
1486.50252413677	1141.59997558594
1487.13678124896	1154.80004882813
1487.77095597646	1149.80004882813
1488.4050483268	1160
1489.03905830749	1157.19995117188
1489.67298592604	1149.19995117188
1490.30683118996	1161.59997558594
1490.9405941068	1144.80004882813
1491.57427468403	1149
1492.2078729292	1149.59997558594
1492.84138884981	1145.19995117188
1493.47482245338	1148.19995117188
1494.10817374742	1139.80004882813
1494.74144273944	1144.80004882813
1495.37462943696	1150.40002441406
1496.0077338475	1149.19995117188
1496.64075597856	1151
1497.27369583765	1146.19995117188
1497.9065534323	1156
1498.53932877001	1154
1499.17202185829	1165.80004882813
1499.80463270465	1160.19995117188
1500.43716131661	1168.59997558594
1501.06960770167	1168
1501.70197186735	1172.80004882813
1502.33425382116	1163.80004882813
1502.96645357059	1172
1503.59857112317	1165.19995117188
1504.23060648641	1159.19995117188
1504.8625596678	1165
1505.49443067486	1168.19995117188
1506.1262195151	1164.80004882813
1506.75792619602	1172.19995117188
1507.38955072513	1176.19995117188
1508.02109310993	1170
1508.65255335794	1175.59997558594
1509.28393147666	1168.80004882813
1509.91522747359	1171.59997558594
1510.54644135624	1174
1511.17757313212	1175.19995117188
1511.80862280872	1179.40002441406
1512.43959039356	1174.19995117188
1513.07047589413	1169.59997558594
1513.70127931795	1165.80004882813
1514.33200067251	1162.19995117188
1514.96263996531	1163
1515.59319720386	1152.40002441406
1516.22367239567	1154
1516.85406554822	1159.40002441406
1517.48437666903	1148.19995117188
1518.1146057656	1154
1518.74475284542	1144.59997558594
1519.374817916	1144.40002441406
1520.00480098483	1140.59997558594
1520.63470205942	1146.80004882813
1521.26452114726	1142.19995117188
1521.89425825586	1136.80004882813
1522.52391339271	1136
1523.15348656531	1139.40002441406
1523.78297778116	1128.80004882813
1524.41238704775	1135.40002441406
1525.04171437259	1133.19995117188
1525.67095976317	1123
1526.30012322699	1131.80004882813
1526.92920477154	1132
1527.55820440432	1131
1528.18712213283	1139.19995117188
1528.81595796455	1136
1529.44471190699	1142
1530.07338396764	1141.59997558594
1530.70197415399	1145
1531.33048247353	1138.19995117188
1531.95890893377	1138.59997558594
1532.58725354219	1138.40002441406
1533.21551630629	1145
1533.84369723356	1142.80004882813
1534.47179633148	1145.19995117188
1535.09981360757	1151.59997558594
1535.72774906929	1153.80004882813
1536.35560272415	1147.80004882813
1536.98337457963	1140
1537.61106464323	1145.80004882813
1538.23867292243	1147
1538.86619942473	1141.80004882813
1539.49364415762	1145.40002441406
1540.12100712857	1146.80004882813
1540.74828834509	1149.59997558594
1541.37548781466	1139.80004882813
1542.00260554478	1134.40002441406
1542.62964154291	1133.40002441406
1543.25659581655	1140.40002441406
1543.8834683732	1142.80004882813
1544.51025922034	1134.59997558594
1545.13696836544	1137.80004882813
1545.76359581601	1134
1546.39014157952	1142
1547.01660566345	1133.40002441406
1547.64298807531	1137.59997558594
1548.26928882255	1131.40002441406
1548.89550791269	1125.19995117188
1549.52164535318	1119.59997558594
1550.14770115153	1121.19995117188
1550.77367531521	1126.59997558594
1551.39956785171	1124.59997558594
1552.0253787685	1127.19995117188
1552.65110807307	1120.19995117188
1553.2767557729	1110.59997558594
1553.90232187548	1118.59997558594
1554.52780638828	1128.80004882813
1555.15320931879	1132.40002441406
1555.77853067447	1128.80004882813
1556.40377046282	1129.40002441406
1557.02892869132	1127.40002441406
1557.65400536744	1123.80004882813
1558.27900049866	1125.40002441406
1558.90391409247	1130.40002441406
1559.52874615633	1126.19995117188
1560.15349669773	1117.19995117188
1560.77816572414	1120
1561.40275324305	1111.40002441406
1562.02725926192	1117.19995117188
1562.65168378824	1121.40002441406
1563.27602682948	1127
1563.90028839311	1128
1564.52446848662	1126.19995117188
1565.14856711748	1138.19995117188
1565.77258429316	1128.19995117188
1566.39652002113	1129
1567.02037430887	1137
1567.64414716387	1141.40002441406
1568.26783859357	1142.59997558594
1568.89144860547	1141
1569.51497720703	1145
1570.13842440573	1144.19995117188
1570.76179020904	1141.80004882813
1571.38507462442	1137.19995117188
1572.00827765936	1142.59997558594
1572.63139932132	1149.80004882813
1573.25443961777	1139
1573.87739855618	1150
1574.50027614402	1155
1575.12307238877	1145.40002441406
1575.74578729789	1135.59997558594
1576.36842087885	1151.19995117188
1576.99097313912	1135.40002441406
1577.61344408616	1143.19995117188
1578.23583372745	1149.80004882813
1578.85814207046	1133.59997558594
1579.48036912264	1133.40002441406
1580.10251489147	1134.19995117188
1580.72457938441	1118.40002441406
1581.34656260893	1136.59997558594
1581.9684645725	1138
1582.59028528258	1127.59997558594
1583.21202474663	1120.19995117188
1583.83368297212	1130
1584.45525996652	1124.19995117188
1585.07675573728	1117.19995117188
1585.69817029188	1114.59997558594
1586.31950363778	1111
1586.94075578243	1123.59997558594
1587.5619267333	1120
1588.18301649786	1117
1588.80402508357	1117.40002441406
1589.42495249788	1125
1590.04579874826	1124.80004882813
1590.66656384217	1126
1591.28724778707	1123.40002441406
1591.90785059042	1116
1592.52837225968	1117
1593.14881280232	1111.80004882813
1593.76917222578	1116.40002441406
1594.38945053753	1111.59997558594
1595.00964774502	1119.40002441406
1595.62976385573	1115.40002441406
1596.24979887709	1105
1596.86975281657	1107.40002441406
1597.48962568164	1110.40002441406
1598.10941747974	1114.40002441406
1598.72912821832	1114
1599.34875790486	1119.80004882813
1599.9683065468	1111
1600.58777415159	1109.59997558594
1601.2071607267	1107.80004882813
1601.82646627958	1109.80004882813
1602.44569081769	1116.59997558594
1603.06483434846	1109.40002441406
1603.68389687937	1103.59997558594
1604.30287841786	1108.59997558594
1604.92177897139	1099.80004882813
1605.54059854741	1096.59997558594
1606.15933715337	1096
1606.77799479672	1097.19995117188
1607.39657148492	1105
1608.01506722542	1094.19995117188
1608.63348202566	1098.19995117188
1609.2518158931	1105
1609.87006883519	1100.40002441406
1610.48824085939	1093.19995117188
1611.10633197312	1102.40002441406
1611.72434218386	1096.19995117188
1612.34227149904	1094.59997558594
1612.96011992612	1097.40002441406
1613.57788747254	1092.80004882813
1614.19557414575	1098.19995117188
1614.8131799532	1090
1615.43070490234	1092.19995117188
1616.04814900061	1094.19995117188
1616.66551225545	1086.59997558594
1617.28279467433	1089.40002441406
1617.89999626467	1082.59997558594
1618.51711703393	1097
1619.13415698955	1145.40002441406
1619.75111613898	1090.59997558594
1620.36799448966	1090
1620.98479204903	1095.59997558594
1621.60150882455	1093.40002441406
1622.21814482364	1095.19995117188
1622.83470005376	1088.19995117188
1623.45117452235	1091.19995117188
1624.06756823685	1093.19995117188
1624.6838812047	1095.59997558594
1625.30011343335	1084.59997558594
1625.91626493022	1085
1626.53233570278	1085.80004882813
1627.14832575845	1085.59997558594
1627.76423510468	1088.40002441406
1628.38006374891	1083.59997558594
1628.99581169857	1095
1629.61147896111	1095
1630.22706554397	1092.80004882813
1630.84257145457	1085
1631.45799670038	1093.59997558594
1632.07334128881	1083
1632.6886052273	1089
1633.3037885233	1087.19995117188
1633.91889118425	1092.19995117188
1634.53391321757	1091.40002441406
1635.1488546307	1079.59997558594
1635.76371543108	1085
1636.37849562616	1078.19995117188
1636.99319522335	1078
1637.60781423009	1071.59997558594
1638.22235265383	1076.19995117188
1638.83681050198	1076.19995117188
1639.451187782	1074.80004882813
1640.0654845013	1079.40002441406
1640.67970066734	1079.59997558594
1641.29383628752	1081
1641.9078913693	1084.80004882813
1642.5218659201	1078.40002441406
1643.13575994735	1077.19995117188
1643.74957345849	1076.40002441406
1644.36330646094	1074.80004882813
1644.97695896213	1085
1645.59053096951	1095.19995117188
1646.20402249049	1096.40002441406
1646.8174335325	1092
1647.43076410298	1091.40002441406
1648.04401420935	1100.40002441406
1648.65718385905	1094.59997558594
1649.2702730595	1095.40002441406
1649.88328181812	1090.19995117188
1650.49621014236	1099
1651.10905803963	1100.40002441406
1651.72182551735	1091.80004882813
1652.33451258297	1094
1652.9471192439	1097.59997558594
1653.55964550757	1092.59997558594
1654.1720913814	1085.59997558594
1654.78445687283	1085
1655.39674198926	1080.80004882813
1656.00894673814	1071.40002441406
1656.62107112688	1075.80004882813
1657.23311516291	1068.80004882813
1657.84507885365	1068.59997558594
1658.45696220652	1068.80004882813
1659.06876522895	1070.19995117188
1659.68048792835	1066.40002441406
1660.29213031217	1067
1660.90369238779	1062.40002441406
1661.51517416267	1063.40002441406
1662.12657564421	1061.59997558594
1662.73789683984	1063
1663.34913775697	1056.59997558594
1663.96029840303	1058
1664.57137878544	1049.80004882813
1665.18237891161	1051.59997558594
1665.79329878897	1043.59997558594
1666.40413842493	1042.40002441406
1667.01489782691	1047
1667.62557700233	1048
1668.2361759586	1049.40002441406
1668.84669470315	1051.80004882813
1669.4571332434	1045
1670.06749158675	1044.80004882813
1670.67776974062	1034.40002441406
1671.28796771243	1036.80004882813
1671.8980855096	1033.40002441406
1672.50812313954	1033.59997558594
1673.11808060967	1036.40002441406
1673.72795792739	1037.80004882813
1674.33775510013	1047.80004882813
1674.9474721353	1044.59997558594
1675.55710904031	1045.40002441406
1676.16666582257	1044.80004882813
1676.7761424895	1047.80004882813
1677.38553904851	1042.40002441406
1677.99485550702	1043.19995117188
1678.60409187243	1040.19995117188
1679.21324815215	1044.80004882813
1679.8223243536	1043.80004882813
1680.43132048419	1039
1681.04023655132	1043.19995117188
1681.64907256241	1046
1682.25782852487	1047.19995117188
1682.86650444611	1038.40002441406
1683.47510033353	1037
1684.08361619455	1030.80004882813
1684.69205203657	1030.59997558594
1685.300407867	1030.59997558594
1685.90868369325	1024.19995117188
1686.51687952272	1024.59997558594
1687.12499536283	1031.40002441406
1687.73303122098	1030.40002441406
1688.34098710457	1027
1688.94886302101	1039.59997558594
1689.55665897772	1040
1690.16437498208	1043.80004882813
1690.77201104152	1031.19995117188
1691.37956716342	1028.80004882813
1691.9870433552	1031.80004882813
1692.59443962426	1037.40002441406
1693.20175597801	1030.80004882813
1693.80899242384	1033
1694.41614896916	1037
1695.02322562138	1035
1695.63022238789	1041.19995117188
1696.23713927609	1035.80004882813
1696.8439762934	1036
1697.4507334472	1032.80004882813
1698.05741074491	1028
1698.66400819391	1020
1699.27052580161	1027.19995117188
1699.87696357542	1025.80004882813
1700.48332152272	1025.19995117188
1701.08959965092	1019.20001220703
1701.69579796742	1020.59997558594
1702.30191647962	1023.40002441406
1702.90795519491	1022.40002441406
1703.51391412069	1019
1704.11979326437	1022.59997558594
1704.72559263332	1021.59997558594
1705.33131223496	1018.59997558594
1705.93695207668	1018.40002441406
1706.54251216588	1020.79998779297
1707.14799250994	1020.59997558594
1707.75339311628	1020.20001220703
1708.35871399227	1021.20001220703
1708.96395514532	1026.19995117188
1709.56911658282	1017.79998779297
