634.948122577771	1145.40002441406
635.690341530823	1139.80004882813
636.43246851086	1147
637.174503525845	1149
637.916446583745	1148
638.658297692538	1140.80004882813
639.400056860179	1140.59997558594
640.141724094637	1133.59997558594
640.883299403885	1130.40002441406
641.62478279588	1128
642.366174278594	1127.59997558594
643.107473859989	1132.59997558594
643.848681548029	1123.80004882813
644.589797350679	1127.59997558594
645.330821275901	1137
646.071753331665	1137
646.812593525922	1131.19995117188
647.553341866646	1144.80004882813
648.293998361798	1139.40002441406
649.03456301933	1139.40002441406
649.775035847216	1145.80004882813
650.515416853409	1150.40002441406
651.255706045874	1151.59997558594
651.995903432568	1146.40002441406
652.736009021453	1147
653.476022820486	1143.80004882813
654.215944837629	1148.59997558594
654.955775080842	1139
655.695513558081	1148.40002441406
656.435160277301	1144
657.174715246465	1140.19995117188
657.914178473527	1140
658.653549966449	1140.19995117188
659.392829733176	1148.80004882813
660.132017781678	1144
660.871114119901	1145.59997558594
661.610118755803	1153.80004882813
662.349031697343	1152.59997558594
663.087852952468	1147.59997558594
663.826582529139	1154.19995117188
664.565220435305	1160.40002441406
665.30376667892	1163.40002441406
666.04222126794	1156.40002441406
666.780584210316	1152.19995117188
667.518855514	1152.40002441406
668.25703518694	1155.40002441406
668.995123237096	1145.19995117188
669.733119672413	1149.59997558594
670.471024500842	1143.40002441406
671.208837730333	1151.40002441406
671.946559368839	1149.19995117188
672.684189424308	1152.40002441406
673.421727904689	1150.19995117188
674.159174817929	1138.59997558594
674.896530171977	1152.80004882813
675.633793974786	1152.40002441406
676.370966234295	1152.59997558594
677.108046958461	1160.59997558594
677.845036155219	1157.59997558594
678.581933832528	1156.59997558594
679.318739998323	1156.40002441406
680.055454660558	1166.19995117188
680.792077827172	1159.40002441406
681.528609506116	1163
682.265049705331	1161.80004882813
683.001398432759	1159.19995117188
683.737655696349	1165.80004882813
684.47382150404	1154.40002441406
685.20989586378	1164.59997558594
685.945878783503	1159.40002441406
686.68177027116	1147.80004882813
687.417570334688	1156.40002441406
688.153278982032	1142.19995117188
688.888896221129	1152.59997558594
689.624422059921	1150.40002441406
690.359856506349	1156
691.095199568354	1158
691.830451253874	1153.59997558594
692.565611570844	1154.59997558594
693.300680527212	1147.19995117188
694.03565813091	1150.80004882813
694.770544389877	1157.19995117188
695.505339312053	1157.80004882813
696.240042905372	1166.80004882813
696.974655177772	1166.19995117188
697.70917613719	1160.80004882813
698.443605791561	1169.59997558594
699.177944148826	1173.19995117188
699.912191216909	1166
700.646347003755	1168.80004882813
701.380411517295	1165.40002441406
702.114384765465	1165
702.848266756195	1168.59997558594
703.582057497421	1168
704.315756997074	1169.19995117188
705.049365263089	1166.40002441406
705.782882303399	1157.80004882813
706.516308125936	1153.40002441406
707.249642738626	1158.59997558594
707.982886149403	1156.19995117188
708.716038366204	1154.59997558594
709.449099396949	1154.59997558594
710.182069249577	1147.80004882813
710.914947932009	1149.19995117188
711.647735452181	1148
712.380431818022	1150
713.113037037454	1139.40002441406
713.845551118411	1146.40002441406
714.577974068818	1149.80004882813
715.310305896604	1149.80004882813
716.042546609694	1163.80004882813
716.774696216013	1147.19995117188
717.506754723493	1144
718.238722140053	1153.19995117188
718.970598473624	1154
719.702383732127	1144
720.43407792349	1146.80004882813
721.165681055634	1151
721.897193136486	1147
722.628614173966	1160.59997558594
723.359944175997	1164.19995117188
724.091183150505	1155.19995117188
724.822331105412	1162.40002441406
725.553388048638	1149.40002441406
726.284353988106	1151.80004882813
727.015228931734	1153.19995117188
727.746012887449	1164.80004882813
728.476705863162	1167
729.207307866803	1161
729.937818906289	1166.40002441406
730.668238989535	1164.59997558594
731.398568124459	1172.59997558594
732.128806318986	1163.80004882813
732.858953581034	1173.19995117188
733.589009918514	1168
734.318975339348	1160.80004882813
735.048849851452	1165.40002441406
735.778633462744	1157.19995117188
736.508326181137	1156.19995117188
737.237928014549	1169.19995117188
737.967438970897	1169.80004882813
738.696859058095	1175
739.426188284054	1164.80004882813
740.155426656692	1164
740.884574183922	1170.59997558594
741.613630873659	1163.59997558594
742.342596733815	1166.59997558594
743.071471772302	1163.59997558594
743.800255997034	1159.19995117188
744.528949415921	1162.40002441406
745.257552036877	1161
745.986063867811	1160.59997558594
746.714484916638	1160.80004882813
747.442815191261	1164.40002441406
748.171054699597	1158.59997558594
748.899203449554	1155
749.627261449039	1162
750.355228705966	1165.80004882813
751.083105228239	1165
751.810891023765	1159
752.538586100459	1159
753.266190466218	1166.80004882813
753.99370412896	1163
754.721127096582	1170.80004882813
755.448459377	1169
756.175700978114	1163.59997558594
756.902851907828	1163.19995117188
757.629912174055	1165.80004882813
758.356881784688	1161.40002441406
759.083760747639	1169.19995117188
759.810549070817	1168.19995117188
760.537246762113	1170.19995117188
761.263853829442	1172
761.990370280698	1167.19995117188
762.716796123791	1167.40002441406
763.443131366618	1168.19995117188
764.169376017082	1167.40002441406
764.895530083085	1173.80004882813
765.621593572527	1175.19995117188
766.347566493312	1182.40002441406
767.073448853336	1186
767.799240660502	1188.59997558594
768.524941922707	1182.19995117188
769.250552647854	1188
769.976072843836	1197.80004882813
770.701502518551	1207.59997558594
771.426841679905	1198.80004882813
772.152090335793	1206
772.877248494107	1207
773.602316162747	1207.40002441406
774.327293349609	1212.80004882813
775.052180062592	1220
775.776976309589	1217
776.501682098496	1197.19995117188
777.226297437206	1195.19995117188
777.950822333616	1187.19995117188
778.675256795621	1186.40002441406
779.399600831111	1189.80004882813
780.123854447983	1182.59997558594
780.84801765413	1189
781.572090457441	1186.80004882813
782.296072865811	1194
783.019964887131	1190
783.743766529297	1177
784.467477800194	1178.59997558594
785.191098707719	1173
785.914629259756	1175.80004882813
786.638069464194	1170.59997558594
787.361419328932	1165
788.084678861852	1168.59997558594
788.807848070845	1166.40002441406
789.530926963798	1166.19995117188
790.253915548602	1169.40002441406
790.976813833144	1175
791.699621825307	1180.80004882813
792.422339532986	1171.40002441406
793.144966964061	1166.19995117188
793.86750412642	1168.59997558594
794.589951027946	1165.40002441406
795.312307676536	1157.59997558594
796.03457408006	1157.19995117188
796.756750246417	1153.19995117188
797.478836183477	1154
798.200831899137	1168.40002441406
798.92273740127	1169
799.644552697769	1163.59997558594
800.36627779651	1169.40002441406
801.087912705374	1175.40002441406
801.809457432251	1168
802.530911985017	1173.19995117188
803.252276371558	1175.19995117188
803.973550599748	1164.40002441406
804.694734677472	1155
805.415828612611	1165.80004882813
806.136832413045	1170.40002441406
806.857746086646	1161.59997558594
807.578569641305	1158.40002441406
808.299303084892	1160.19995117188
809.019946425289	1157
809.740499670372	1161
810.460962828022	1165.19995117188
811.181335906114	1165
811.901618912524	1161.19995117188
812.621811855131	1162
813.341914741809	1157.40002441406
814.061927580433	1171.40002441406
814.781850378881	1164.19995117188
815.501683145025	1162.40002441406
816.221425886743	1156.40002441406
816.941078611903	1168.80004882813
817.660641328387	1165.80004882813
818.380114044065	1164.19995117188
819.099496766808	1166.40002441406
819.818789504492	1173.40002441406
820.53799226499	1176.40002441406
821.257105056168	1170.80004882813
821.976127885904	1162.80004882813
822.695060762064	1171
823.413903692525	1174.40002441406
824.132656685151	1159.19995117188
824.851319747817	1163
825.569892888388	1172.80004882813
826.288376114739	1175.59997558594
827.006769434737	1166.40002441406
827.725072856249	1165
828.443286387142	1154.40002441406
829.161410035285	1159.80004882813
829.87944380855	1169.40002441406
830.597387714798	1169.80004882813
831.315241761898	1167.59997558594
832.033005957715	1176
832.750680310119	1175.59997558594
833.468264826969	1179.19995117188
834.18575951614	1169
834.903164385486	1157.59997558594
835.620479442878	1163.80004882813
836.337704696181	1157
837.054840153255	1158.80004882813
837.771885821962	1168.19995117188
838.488841710172	1162.59997558594
839.20570782574	1158.40002441406
839.922484176531	1160.80004882813
840.639170770409	1162.59997558594
841.355767615231	1164.80004882813
842.072274718864	1163.80004882813
842.788692089164	1159.80004882813
843.505019733993	1167
844.221257661209	1164
844.937405878676	1169.80004882813
845.65346439425	1170.40002441406
846.369433215789	1166
847.085312351156	1161.40002441406
847.801101808205	1172.40002441406
848.516801594793	1170.40002441406
849.232411718781	1182
849.947932188021	1169.40002441406
850.663363010376	1170.59997558594
851.378704193698	1169.80004882813
852.093955745842	1166.19995117188
852.809117674669	1163.40002441406
853.524189988028	1164.80004882813
854.239172693778	1162.59997558594
854.954065799768	1157.19995117188
855.668869313857	1159.80004882813
856.383583243899	1164.19995117188
857.098207597743	1162.40002441406
857.812742383246	1161.40002441406
858.527187608255	1175.40002441406
859.241543280628	1173.19995117188
859.955809408218	1172.59997558594
860.669985998868	1164.40002441406
861.384073060437	1167
862.098070600772	1168.80004882813
862.811978627724	1165.40002441406
863.52579714914	1174
864.239526172873	1164.40002441406
864.953165706776	1156.80004882813
865.666715758687	1157.19995117188
866.380176336464	1159
867.093547447951	1164.59997558594
867.806829100996	1159.59997558594
868.520021303444	1161.59997558594
869.233124063149	1160.80004882813
869.94613738795	1164.40002441406
870.659061285693	1171.59997558594
871.37189576423	1165.40002441406
872.084640831403	1167.40002441406
872.797296495057	1160
873.509862763039	1160.59997558594
874.22233964319	1154.19995117188
874.934727143353	1164.40002441406
875.647025271374	1152.80004882813
876.359234035097	1155.80004882813
877.071353442361	1160
877.783383501015	1167.80004882813
878.495324218895	1173.59997558594
879.207175603844	1172.19995117188
879.918937663705	1162.59997558594
880.630610406318	1155
881.342193839524	1157.59997558594
882.053687971161	1156.59997558594
882.765092809069	1150.19995117188
883.476408361091	1149.19995117188
884.187634635066	1149.80004882813
884.898771638828	1150.40002441406
885.609819380221	1153
886.320777867076	1155.19995117188
887.031647107236	1161.40002441406
887.742427108536	1156.19995117188
888.453117878816	1155.80004882813
889.16371942591	1154.59997558594
889.874231757652	1158.19995117188
890.584654881883	1146.19995117188
891.294988806434	1147.80004882813
892.005233539141	1154
892.715389087837	1160.59997558594
893.42545546036	1149.40002441406
894.135432664543	1156.19995117188
894.845320708216	1156.80004882813
895.555119599216	1161.80004882813
896.264829345375	1163.40002441406
896.974449954526	1162.80004882813
897.683981434496	1154
898.393423793125	1162.40002441406
899.102777038235	1160
899.812041177664	1153
900.521216219239	1154.19995117188
901.230302170793	1158.40002441406
901.939299040155	1163.19995117188
902.64820683515	1150.40002441406
903.357025563612	1161.80004882813
904.065755233368	1157
904.774395852247	1164.19995117188
905.482947428076	1153.59997558594
906.191409968682	1150.19995117188
906.899783481897	1162.59997558594
907.608067975538	1163.59997558594
908.316263457443	1164.40002441406
909.02436993543	1165.80004882813
909.732387417327	1164.19995117188
910.440315910959	1167.59997558594
911.148155424154	1162.59997558594
911.855905964731	1167.19995117188
912.563567540521	1168.19995117188
913.271140159339	1161.59997558594
913.978623829017	1152.59997558594
914.686018557374	1159.19995117188
915.393324352237	1146.40002441406
916.100541221421	1150.40002441406
916.807669172752	1145.80004882813
917.514708214054	1151.19995117188
918.221658353142	1153
918.928519597843	1161.19995117188
919.635291955976	1160.59997558594
920.341975435358	1158.40002441406
921.048570043813	1166.59997558594
921.75507578916	1169.19995117188
922.461492679212	1163.40002441406
923.167820721795	1169.40002441406
923.874059924726	1158.80004882813
924.58021029582	1166
925.286271842893	1160.59997558594
925.992244573769	1153
926.698128496262	1162.59997558594
927.403923618184	1159.80004882813
928.109629947355	1158.40002441406
928.815247491593	1163.59997558594
929.520776258708	1165.80004882813
930.226216256519	1160.40002441406
930.931567492841	1159.19995117188
931.636829975482	1161.40002441406
932.342003712263	1159
933.047088710995	1153.40002441406
933.752084979491	1156
934.456992525564	1152
935.161811357024	1144.40002441406
935.866541481688	1146.80004882813
936.571182907363	1146
937.275735641861	1150
937.980199692995	1153
938.684575068572	1147.59997558594
939.388861776411	1149.59997558594
940.093059824311	1150.19995117188
940.797169220085	1154.19995117188
941.501189971544	1146.40002441406
942.205122086495	1144.59997558594
942.908965572751	1150
943.612720438111	1154.40002441406
944.316386690391	1159.59997558594
945.019964337391	1164.80004882813
945.723453386924	1145.80004882813
946.426853846795	1147.19995117188
947.130165724808	1160.80004882813
947.83338902877	1150
948.536523766488	1160.40002441406
949.239569945764	1158.59997558594
949.942527574402	1153
950.64539666021	1147.59997558594
951.348177210993	1153.59997558594
952.050869234548	1147
952.753472738683	1144.80004882813
953.455987731199	1142.59997558594
954.158414219898	1147
954.860752212587	1141
955.563001717061	1144.59997558594
956.265162741124	1139.19995117188
956.967235292576	1145
957.669219379224	1146.19995117188
958.371115008857	1150.59997558594
959.072922189283	1156.59997558594
959.774640928301	1142.40002441406
960.476271233708	1149.19995117188
961.177813113301	1136.19995117188
961.879266574882	1141
962.580631626248	1142.19995117188
963.281908275194	1137
963.98309652952	1140.19995117188
964.684196397022	1136
965.3852078855	1140
966.086131002745	1136
966.786965756555	1138.80004882813
967.487712154726	1152.80004882813
968.188370205055	1156.19995117188
968.888939915331	1158.59997558594
969.589421293352	1153
970.289814346909	1151.59997558594
970.990119083801	1147
971.690335511819	1143.19995117188
972.39046363875	1140.19995117188
973.090503472398	1149.80004882813
973.790455020545	1149.40002441406
974.490318290987	1142.19995117188
975.190093291516	1131.40002441406
975.889780029923	1143
976.589378513998	1137
977.288888751527	1135
977.988310750308	1149
978.687644518122	1148
979.386890062767	1139.80004882813
980.086047392025	1140
980.785116513689	1133.80004882813
981.484097435542	1129
982.182990165377	1132.59997558594
982.88179471098	1138.19995117188
983.580511080137	1135.40002441406
984.279139280632	1141.59997558594
984.977679320253	1137.40002441406
985.67613120679	1145.40002441406
986.374494948027	1148.19995117188
987.072770551745	1145
987.770958025731	1149.40002441406
988.469057377772	1144.19995117188
989.167068615649	1146
989.864991747145	1131
990.562826780047	1145.19995117188
991.260573722134	1133.59997558594
991.958232581195	1135.19995117188
992.655803365003	1139.80004882813
993.353286081346	1131.19995117188
994.050680738006	1141.80004882813
994.74798734276	1141.80004882813
995.44520590339	1149
996.142336427681	1147.80004882813
996.839378923407	1149.59997558594
997.536333398348	1139.19995117188
998.233199860289	1140.19995117188
998.929978317004	1137
999.626668776274	1130
1000.32327124587	1131.40002441406
1001.01978573359	1136.80004882813
1001.71621224718	1142.59997558594
1002.41255079445	1134.59997558594
1003.10880138315	1146.40002441406
1003.80496402107	1149.59997558594
1004.50103871599	1141.80004882813
1005.19702547567	1150
1005.8929243079	1144.80004882813
1006.58873522045	1143.40002441406
1007.2844582211	1145.59997558594
1007.98009331761	1147.19995117188
1008.67564051776	1139.80004882813
1009.37109982933	1143.19995117188
1010.06647126009	1134
1010.7617548178	1144.19995117188
1011.45695051026	1152.80004882813
1012.15205834522	1145
1012.84707833045	1153.80004882813
1013.54201047373	1142.40002441406
1014.23685478284	1154.19995117188
1014.93161126553	1139
1015.62627992959	1142.19995117188
1016.32086078277	1140.19995117188
1017.01535383285	1147.59997558594
1017.70975908761	1132.80004882813
1018.40407655479	1134.80004882813
1019.09830624219	1136.59997558594
1019.79244815755	1128.59997558594
1020.48650230866	1132
1021.18046870328	1125.19995117188
1021.87434734917	1142.19995117188
1022.56813825411	1143
1023.26184142584	1142.19995117188
1023.95545687216	1140.40002441406
1024.64898460082	1146
1025.34242461957	1147.59997558594
1026.0357769362	1147.59997558594
1026.72904155846	1153
1027.42221849412	1149.19995117188
1028.11530775094	1142
1028.80830933668	1145
1029.50122325911	1143.80004882813
1030.19404952599	1139.80004882813
1030.88678814508	1151.80004882813
1031.57943912414	1144
1032.27200247093	1148
1032.96447819323	1152.59997558594
1033.65686629878	1155.80004882813
1034.34916679534	1148.80004882813
1035.04137969068	1148
1035.73350499256	1147.59997558594
1036.42554270874	1143.80004882813
1037.11749284697	1148.40002441406
1037.80935541501	1137.80004882813
1038.50113042062	1136.59997558594
1039.19281787156	1131.40002441406
1039.88441777559	1132.19995117188
1040.57593014046	1127.40002441406
1041.26735497393	1130.19995117188
1041.95869228376	1132.19995117188
1042.6499420777	1129
1043.3411043635	1130
1044.03217914893	1127
1044.72316644174	1131.40002441406
1045.41406624968	1141.19995117188
1046.1048785805	1129.80004882813
1046.79560344197	1140.80004882813
1047.48624084182	1139
1048.17679078783	1134.19995117188
1048.86725328774	1136.80004882813
1049.55762834929	1133.19995117188
1050.24791598025	1119.19995117188
1050.93811618837	1118.80004882813
1051.62822898139	1126.59997558594
1052.31825436707	1134.40002441406
1053.00819235315	1129.19995117188
1053.6980429474	1133.19995117188
1054.38780615755	1135.40002441406
1055.07748199136	1135.80004882813
1055.76707045658	1136.59997558594
1056.45657156095	1134
1057.14598531222	1125.59997558594
1057.83531171814	1124.40002441406
1058.52455078646	1131.40002441406
1059.21370252494	1125.59997558594
1059.90276694129	1127
1060.5917440433	1126.59997558594
1061.28063383868	1123.80004882813
1061.9694363352	1134.80004882813
1062.65815154059	1130
1063.34677946261	1134.19995117188
1064.03532010899	1134.59997558594
1064.72377348748	1124.59997558594
1065.41213960583	1131.80004882813
1066.10041847177	1134.19995117188
1066.78861009306	1139
1067.47671447743	1133.59997558594
1068.16473163263	1134.59997558594
1068.85266156639	1133.80004882813
1069.54050428647	1126
1070.2282598006	1138.40002441406
1070.91592811652	1129.19995117188
1071.60350924198	1124
1072.29100318471	1125.59997558594
1072.97840995245	1126.80004882813
1073.66572955295	1130
1074.35296199394	1134.59997558594
1075.04010728316	1135.59997558594
1075.72716542836	1121.80004882813
1076.41413643726	1121
1077.10102031761	1127.40002441406
1077.78781707715	1125.19995117188
1078.4745267236	1123.40002441406
1079.16114926471	1119
1079.84768470822	1126.59997558594
1080.53413306185	1123
1081.22049433336	1129.40002441406
1081.90676853046	1123.59997558594
1082.5929556609	1131.59997558594
1083.27905573241	1128.59997558594
1083.96506875272	1130.59997558594
1084.65099472957	1128
1085.3368336707	1129
1086.02258558383	1133.80004882813
1086.70825047669	1128.19995117188
1087.39382835703	1129.59997558594
1088.07931923257	1120.19995117188
1088.76472311104	1119.80004882813
1089.45004000018	1131.59997558594
1090.13526990771	1128
1090.82041284137	1127.40002441406
1091.50546880889	1128
1092.19043781799	1127.59997558594
1092.87531987642	1133
1093.56011499188	1132.40002441406
1094.24482317212	1124.40002441406
1094.92944442486	1133.40002441406
1095.61397875783	1126.59997558594
1096.29842617876	1129.19995117188
1096.98278669537	1125.40002441406
1097.6670603154	1131.19995117188
1098.35124704656	1131.80004882813
1099.03534689659	1133
1099.71935987322	1126.40002441406
1100.40328598416	1133.40002441406
1101.08712523713	1127.59997558594
1101.77087763988	1125.80004882813
1102.45454320012	1128.19995117188
1103.13812192557	1124.80004882813
1103.82161382396	1125.59997558594
1104.50501890301	1119.59997558594
1105.18833717045	1127
1105.87156863399	1129.19995117188
1106.55471330137	1123.80004882813
1107.2377711803	1124
1107.9207422785	1131
1108.60362660369	1130.19995117188
1109.2864241636	1130.80004882813
1109.96913496594	1132
1110.65175901844	1129.80004882813
1111.33429632882	1128.19995117188
1112.01674690479	1128.80004882813
1112.69911075408	1127.59997558594
1113.38138788439	1119.80004882813
1114.06357830346	1122
1114.745682019	1127.40002441406
1115.42769903872	1117.80004882813
1116.10962937035	1120.40002441406
1116.7914730216	1114.59997558594
1117.47323000018	1122.19995117188
1118.15490031382	1128.19995117188
1118.83648397022	1132.59997558594
1119.51798097712	1131.59997558594
1120.1993913422	1130.40002441406
1120.88071507321	1134.19995117188
1121.56195217784	1116.59997558594
1122.24310266381	1131.59997558594
1122.92416653884	1141.40002441406
1123.60514381064	1144.40002441406
1124.28603448692	1136.40002441406
1124.9668385754	1146.59997558594
1125.64755608378	1136.19995117188
1126.32818701978	1137.19995117188
1127.00873139111	1139.80004882813
1127.68918920548	1136.40002441406
1128.3695604706	1138
1129.04984519419	1137
1129.73004338394	1133.40002441406
1130.41015504758	1139
1131.09018019281	1125.59997558594
1131.77011882734	1124.80004882813
1132.44997095888	1115
1133.12973659514	1125.80004882813
1133.80941574381	1121.40002441406
1134.48900841263	1130.40002441406
1135.16851460927	1122
1135.84793434147	1130
1136.52726761692	1125
1137.20651444333	1120.59997558594
1137.8856748284	1120.80004882813
1138.56474877984	1124.59997558594
1139.24373630536	1117
1139.92263741265	1118
1140.60145210943	1117.19995117188
1141.28018040339	1126.19995117188
1141.95882230225	1122
1142.6373778137	1126.40002441406
1143.31584694545	1123.19995117188
1143.99422970519	1124.59997558594
1144.67252610064	1117.59997558594
1145.35073613949	1117.59997558594
1146.02885982944	1116.59997558594
1146.7068971782	1117
1147.38484819347	1105.19995117188
1148.06271288294	1106.59997558594
1148.74049125432	1115
1149.41818331531	1122.40002441406
1150.0957890736	1116.40002441406
1150.77330853689	1122.80004882813
1151.45074171289	1116.19995117188
1152.12808860928	1112
1152.80534923378	1108
1153.48252359407	1113.40002441406
1154.15961169786	1123
1154.83661355283	1125.19995117188
1155.51352916669	1122.40002441406
1156.19035854713	1120.40002441406
1156.86710170185	1111.19995117188
1157.54375863855	1125.59997558594
1158.22032936491	1122.19995117188
1158.89681388863	1115
1159.57321221741	1109.59997558594
1160.24952435894	1115.19995117188
1160.92575032092	1125.59997558594
1161.60189011103	1121.80004882813
1162.27794373697	1124.80004882813
1162.95391120644	1120.40002441406
1163.62979252712	1117.80004882813
1164.3055877067	1120.80004882813
1164.98129675288	1120
1165.65691967336	1121.59997558594
1166.33245647581	1124.19995117188
1167.00790716792	1114.80004882813
1167.6832717574	1119.80004882813
1168.35855025193	1128
1169.0337426592	1121.59997558594
1169.70884898689	1116.40002441406
1170.3838692427	1128.19995117188
1171.05880343431	1119.40002441406
1171.73365156941	1112.19995117188
1172.40841365569	1109.80004882813
1173.08308970083	1114.80004882813
1173.75767971253	1110
1174.43218369847	1119
1175.10660166633	1118.80004882813
1175.7809336238	1119
1176.45517957857	1116.19995117188
1177.12933953832	1121.59997558594
1177.80341351073	1121
1178.47740150349	1118.80004882813
1179.15130352429	1130.40002441406
1179.8251195808	1131.59997558594
1180.49884968071	1127
1181.1724938317	1131.40002441406
1181.84605204145	1137.59997558594
1182.51952431766	1135
1183.19291066799	1133.80004882813
1183.86621110013	1140.59997558594
1184.53942562176	1138.80004882813
1185.21255424057	1135
1185.88559696422	1135.19995117188
1186.55855380041	1128
1187.2314247568	1118.80004882813
1187.90420984109	1123
1188.57690906095	1125.59997558594
1189.24952242405	1122.59997558594
1189.92204993808	1119.80004882813
1190.59449161071	1127.59997558594
1191.26684744962	1116.40002441406
1191.93911746249	1112.40002441406
1192.61130165699	1117
1193.28340004081	1120.40002441406
1193.95541262161	1123.40002441406
1194.62733940707	1123
1195.29918040487	1119.40002441406
1195.97093562269	1117
1196.64260506819	1114.59997558594
1197.31418874905	1117.80004882813
1197.98568667295	1127
1198.65709884755	1119
1199.32842528053	1120.80004882813
1199.99966597957	1121.40002441406
1200.67082095234	1120.80004882813
1201.3418902065	1125.59997558594
1202.01287374974	1126.19995117188
1202.68377158971	1129.80004882813
1203.3545837341	1120.40002441406
1204.02531019057	1130.59997558594
1204.6959509668	1126
1205.36650607045	1122.40002441406
1206.03697550919	1121
1206.70735929069	1116.59997558594
1207.37765742263	1114.40002441406
1208.04786991266	1113.40002441406
1208.71799676846	1111.80004882813
1209.38803799769	1115.59997558594
1210.05799360803	1107.40002441406
1210.72786360714	1111.59997558594
1211.39764800268	1115
1212.06734680233	1114.19995117188
1212.73696001375	1112.19995117188
1213.4064876446	1111.19995117188
1214.07592970255	1107.59997558594
1214.74528619526	1107.80004882813
1215.4145571304	1105.59997558594
1216.08374251564	1112.59997558594
1216.75284235863	1112.19995117188
1217.42185666704	1110.59997558594
1218.09078544854	1116.19995117188
1218.75962871078	1110
1219.42838646143	1106.80004882813
1220.09705870816	1098.19995117188
1220.76564545861	1103
1221.43414672046	1099.59997558594
1222.10256250136	1107.19995117188
1222.77089280898	1107
1223.43913765098	1102
1224.107297035	1102.59997558594
1224.77537096873	1105.19995117188
1225.44335945981	1101.40002441406
1226.1112625159	1097.19995117188
1226.77908014467	1101
1227.44681235376	1094.59997558594
1228.11445915085	1096.80004882813
1228.78202054357	1099.40002441406
1229.44949653961	1096.40002441406
1230.11688714659	1108.19995117188
1230.7841923722	1100.80004882813
1231.45141222407	1099.40002441406
1232.11854670988	1096.80004882813
1232.78559583726	1105.19995117188
1233.45255961388	1106.80004882813
1234.1194380474	1106
1234.78623114546	1099.80004882813
1235.45293891572	1101.19995117188
1236.11956136583	1101
1236.78609850345	1110.80004882813
1237.45255033623	1095.59997558594
1238.11891687182	1100.59997558594
1238.78519811788	1105.40002441406
1239.45139408205	1104.40002441406
1240.11750477198	1103.80004882813
1240.78353019534	1105.80004882813
1241.44947035976	1101.80004882813
1242.11532527291	1101.40002441406
1242.78109494242	1116.80004882813
1243.44677937595	1113.40002441406
1244.11237858115	1103.19995117188
1244.77789256567	1097.80004882813
1245.44332133715	1096.80004882813
1246.10866490325	1099.59997558594
1246.7739232716	1104.40002441406
1247.43909644987	1102.40002441406
1248.10418444569	1106.80004882813
1248.76918726671	1102.80004882813
1249.43410492059	1106
1250.09893741496	1104.59997558594
1250.76368475747	1104.59997558594
1251.42834695576	1098.19995117188
1252.09292401749	1116.59997558594
1252.75741595029	1101.59997558594
1253.42182276182	1106
1254.08614445971	1106.19995117188
1254.75038105161	1111.19995117188
1255.41453254515	1112.19995117188
1256.07859894799	1103.40002441406
1256.74258026777	1100.19995117188
1257.40647651213	1106.80004882813
1258.0702876887	1106.19995117188
1258.73401380514	1099
1259.39765486908	1099.19995117188
1260.06121088817	1099.59997558594
1260.72468187004	1098.80004882813
1261.38806782233	1102.19995117188
1262.05136875269	1094.80004882813
1262.71458466875	1093.59997558594
1263.37771557815	1104.80004882813
1264.04076148854	1100
1264.70372240753	1109.40002441406
1265.3665983428	1094.40002441406
1266.02938930195	1094.80004882813
1266.69209529263	1091.40002441406
1267.35471632249	1098.59997558594
1268.01725239914	1093.59997558594
1268.67970353024	1099.59997558594
1269.34206972342	1098.40002441406
1270.00435098631	1103.59997558594
1270.66654732655	1097.40002441406
1271.32865875177	1097.40002441406
1271.9906852696	1104.40002441406
1272.65262688768	1100
1273.31448361365	1112.40002441406
1273.97625545514	1107
1274.63794241978	1103.59997558594
1275.2995445152	1100.59997558594
1275.96106174903	1097.19995117188
1276.62249412892	1092.59997558594
1277.28384166248	1094
1277.94510435735	1086.80004882813
1278.60628222116	1093
1279.26737526155	1092.19995117188
1279.92838348613	1094.19995117188
1280.58930690255	1096.19995117188
1281.25014551842	1087.40002441406
1281.91089934139	1091.40002441406
1282.57156837907	1089.80004882813
1283.2321526391	1094.40002441406
1283.89265212911	1083.80004882813
1284.55306685671	1079.80004882813
1285.21339682955	1087.19995117188
1285.87364205525	1090
1286.53380254142	1091
1287.19387829571	1091.80004882813
1287.85386932573	1090.40002441406
1288.51377563911	1089.80004882813
1289.17359724348	1096.40002441406
1289.83333414646	1095.59997558594
1290.49298635567	1083.80004882813
1291.15255387874	1092.19995117188
1291.8120367233	1096.19995117188
1292.47143489696	1104
1293.13074840736	1092.80004882813
1293.7899772621	1098.40002441406
1294.44912146882	1110
1295.10818103513	1101.59997558594
1295.76715596866	1106.19995117188
1296.42604627704	1105.40002441406
1297.08485196787	1103
1297.74357304878	1103
1298.4022095274	1102.59997558594
1299.06076141134	1106.40002441406
1299.71922870821	1105
1300.37761142565	1097.59997558594
1301.03590957126	1098.19995117188
1301.69412315268	1099
1302.3522521775	1099.59997558594
1303.01029665336	1098.80004882813
1303.66825658787	1093.40002441406
1304.32613198865	1093.59997558594
1304.98392286332	1111.19995117188
1305.64162921948	1106
1306.29925106476	1096.19995117188
1306.95678840677	1100
1307.61424125312	1110
1308.27160961145	1110.40002441406
1308.92889348934	1104.80004882813
1309.58609289443	1106.59997558594
1310.24320783432	1110
1310.90023831664	1112.19995117188
1311.55718434898	1110
1312.21404593897	1117.40002441406
1312.87082309421	1102.40002441406
1313.52751582233	1107.59997558594
1314.18412413092	1114.80004882813
1314.84064802761	1115.59997558594
1315.49708752	1115
1316.1534426157	1114
1316.80971332233	1102
1317.46589964749	1102
1318.1220015988	1107.59997558594
1318.77801918386	1104.19995117188
1319.43395241028	1097.80004882813
1320.08980128567	1095.80004882813
1320.74556581764	1098.40002441406
1321.4012460138	1099
1322.05684188176	1097.59997558594
1322.71235342911	1097
1323.36778066347	1103.19995117188
1324.02312359245	1092.19995117188
1324.67838222365	1093.40002441406
1325.33355656468	1089
1325.98864662314	1102
1326.64365240663	1101.80004882813
1327.29857392277	1096
1327.95341117915	1099.40002441406
1328.60816418339	1097.59997558594
1329.26283294308	1092.80004882813
1329.91741746582	1105.59997558594
1330.57191775923	1106.59997558594
1331.2263338309	1107.19995117188
1331.88066568843	1100.40002441406
1332.53491333943	1099.19995117188
1333.1890767915	1093.80004882813
1333.84315605224	1100.19995117188
1334.49715112925	1100.59997558594
1335.15106203013	1105.19995117188
1335.80488876249	1096.59997558594
1336.45863133391	1115.40002441406
1337.112289752	1106.59997558594
1337.76586402437	1102.40002441406
1338.4193541586	1100.19995117188
1339.0727601623	1097.40002441406
1339.72608204306	1094.80004882813
1340.37931980849	1099.80004882813
1341.03247346617	1094
1341.68554302372	1098.59997558594
1342.33852848871	1094.59997558594
1342.99142986876	1095
1343.64424717145	1092.59997558594
1344.29698040438	1095.59997558594
1344.94962957515	1102.80004882813
1345.60219469135	1097.40002441406
1346.25467576058	1100
1346.90707279042	1092.19995117188
1347.55938578848	1096.40002441406
1348.21161476235	1098.40002441406
1348.86375971962	1100.19995117188
1349.51582066787	1102
1350.16779761472	1101.19995117188
1350.81969056774	1102.19995117188
1351.47149953453	1104.40002441406
1352.12322452269	1101.80004882813
1352.77486553979	1104.40002441406
1353.42642259344	1102.59997558594
1354.07789569122	1104.40002441406
1354.72928484072	1107.80004882813
1355.38059004953	1111.59997558594
1356.03181132525	1110.19995117188
1356.68294867545	1107
1357.33400210773	1117.80004882813
1357.98497162968	1114.59997558594
1358.63585724889	1124.19995117188
1359.28665897294	1131.40002441406
1359.93737680942	1123.40002441406
1360.58801076591	1129.40002441406
1361.23856085001	1128.59997558594
1361.88902706929	1130.40002441406
1362.53940943135	1124.40002441406
1363.18970794377	1131
1363.83992261413	1138.59997558594
1364.49005345003	1128.40002441406
1365.14010045904	1135.80004882813
1365.79006364874	1127
1366.43994302673	1132.19995117188
1367.08973860058	1124.40002441406
1367.73945037788	1124.59997558594
1368.38907836621	1119
1369.03862257315	1114.40002441406
1369.68808300629	1114.80004882813
1370.3374596732	1109.40002441406
1370.98675258148	1113.59997558594
1371.63596173868	1095.59997558594
1372.28508715241	1098.19995117188
1372.93412883024	1099.40002441406
1373.58308677974	1104.80004882813
1374.2319610085	1105
1374.8807515241	1104.80004882813
1375.52945833412	1099.40002441406
1376.17808144612	1097.80004882813
1376.82662086771	1096.19995117188
1377.47507660644	1095.80004882813
1378.12344866989	1096.80004882813
1378.77173706565	1094.80004882813
1379.41994180129	1086.59997558594
1380.06806288439	1088.59997558594
1380.71610032252	1090.40002441406
1381.36405412326	1089.59997558594
1382.01192429419	1085.59997558594
1382.65971084287	1087.80004882813
1383.30741377688	1086.19995117188
1383.95503310381	1086
1384.60256883121	1085.19995117188
1385.25002096667	1084
1385.89738951775	1088.19995117188
1386.54467449204	1089.40002441406
1387.19187589709	1091.59997558594
1387.8389937405	1086.59997558594
1388.48602802982	1088.19995117188
1389.13297877262	1084
1389.77984597649	1090
1390.42662964899	1087.80004882813
1391.07332979768	1090.40002441406
1391.71994643015	1087
1392.36647955395	1077
1393.01292917667	1083.40002441406
1393.65929530586	1069.40002441406
1394.3055779491	1074.59997558594
1394.95177711395	1069.80004882813
1395.59789280799	1073.40002441406
1396.24392503877	1077.80004882813
1396.88987381387	1070.19995117188
1397.53573914086	1083.19995117188
1398.1815210273	1086.59997558594
1398.82721948075	1087.19995117188
1399.47283450878	1081.80004882813
1400.11836611897	1065.19995117188
1400.76381431886	1071.19995117188
1401.40917911603	1074.80004882813
1402.05446051805	1077.19995117188
1402.69965853247	1078.40002441406
1403.34477316686	1078.59997558594
1403.98980442878	1075.59997558594
1404.6347523258	1076
1405.27961686548	1071.19995117188
1405.92439805538	1084
1406.56909590306	1075.19995117188
1407.21371041608	1080.40002441406
1407.85824160202	1084.59997558594
1408.50268946841	1080
1409.14705402284	1077
1409.79133527285	1073
1410.43553322601	1075.59997558594
1411.07964788987	1075
1411.723679272	1076.80004882813
1412.36762737996	1074
1413.01149222129	1076.80004882813
1413.65527380357	1076.40002441406
1414.29897213435	1080
1414.94258722118	1081
1415.58611907163	1074.40002441406
1416.22956769325	1071.40002441406
1416.87293309359	1077.59997558594
1417.51621528021	1074.80004882813
1418.15941426067	1078.80004882813
1418.80253004253	1083.80004882813
1419.44556263333	1077.59997558594
1420.08851204063	1081.80004882813
1420.731378272	1082.80004882813
1421.37416133497	1089
1422.0168612371	1087.40002441406
1422.65947798596	1087.19995117188
1423.30201158908	1081
1423.94446205403	1087.80004882813
1424.58682938835	1085.40002441406
1425.2291135996	1081
1425.87131469532	1080.59997558594
1426.51343268308	1086
1427.15546757042	1080
1427.79741936488	1079.80004882813
1428.43928807403	1084
1429.0810737054	1076.40002441406
1429.72277626656	1082.40002441406
1430.36439576504	1082.40002441406
1431.00593220841	1085.40002441406
1431.64738560419	1086.19995117188
1432.28875595995	1080.80004882813
1432.93004328324	1080.59997558594
1433.57124758159	1078.80004882813
1434.21236886255	1081.40002441406
1434.85340713368	1086
1435.49436240252	1089
1436.13523467661	1088.80004882813
1436.77602396349	1090.59997558594
1437.41673027073	1086.59997558594
1438.05735360585	1084.80004882813
1438.69789397641	1085.19995117188
1439.33835138994	1088
1439.978725854	1083
1440.61901737612	1085.19995117188
1441.25922596385	1081.19995117188
1441.89935162473	1077.40002441406
1442.53939436631	1075.19995117188
1443.17935419612	1074.59997558594
1443.81923112171	1075.59997558594
1444.45902515061	1073.80004882813
1445.09873629038	1072.19995117188
1445.73836454854	1072.80004882813
1446.37790993265	1064
1447.01737245024	1065
1447.65675210885	1068.40002441406
1448.29604891602	1066.40002441406
1448.93526287928	1070.40002441406
1449.57439400618	1074
1450.21344230426	1073.40002441406
1450.85240778105	1077.80004882813
1451.49129044409	1073.80004882813
1452.13009030092	1079.59997558594
1452.76880735907	1074.80004882813
1453.40744162608	1077.19995117188
1454.04599310949	1072.19995117188
1454.68446181683	1077.80004882813
1455.32284775564	1073.40002441406
1455.96115093345	1077.80004882813
1456.5993713578	1070.19995117188
1457.23750903623	1072.40002441406
1457.87556397626	1069
1458.51353618543	1067
1459.15142567127	1070.59997558594
1459.78923244132	1075.19995117188
1460.42695650311	1075.40002441406
1461.06459786417	1075.80004882813
1461.70215653203	1078.40002441406
1462.33963251423	1083
1462.97702581829	1080.40002441406
1463.61433645175	1078.59997558594
1464.25156442214	1075
1464.88870973699	1085.40002441406
1465.52577240382	1075.40002441406
1466.16275243017	1077
1466.79964982356	1067.59997558594
1467.43646459154	1068.80004882813
1468.07319674161	1061
1468.70984628132	1068.80004882813
1469.34641321818	1068
1469.98289755974	1066
1470.6192993135	1076.40002441406
1471.25561848701	1074.80004882813
1471.89185508779	1067
1472.52800912336	1061.80004882813
1473.16408060124	1068.80004882813
1473.80006952897	1070.80004882813
1474.43597591407	1062.40002441406
1475.07179976406	1064.80004882813
1475.70754108647	1070
1476.34319988883	1079.19995117188
1476.97877617865	1070
1477.61426996345	1067
1478.24968125077	1066.80004882813
1478.88501004812	1070.40002441406
1479.52025636303	1069.19995117188
1480.15542020302	1067.59997558594
1480.79050157561	1066.40002441406
1481.42550048832	1072
1482.06041694867	1072.80004882813
1482.69525096418	1077.19995117188
1483.33000254237	1071.19995117188
1483.96467169077	1070.19995117188
1484.59925841689	1063.59997558594
1485.23376272825	1062.80004882813
1485.86818463237	1066.80004882813
1486.50252413677	1070
1487.13678124896	1062
1487.77095597646	1071.40002441406
1488.4050483268	1071.80004882813
1489.03905830749	1075.80004882813
1489.67298592604	1070.59997558594
1490.30683118996	1066.59997558594
1490.9405941068	1061.19995117188
1491.57427468403	1063.59997558594
1492.2078729292	1067.59997558594
1492.84138884981	1073.40002441406
1493.47482245338	1065.19995117188
1494.10817374742	1067.59997558594
1494.74144273944	1067.59997558594
1495.37462943696	1070.40002441406
1496.0077338475	1064.59997558594
1496.64075597856	1070.59997558594
1497.27369583765	1069.80004882813
1497.9065534323	1071.19995117188
1498.53932877001	1073.19995117188
1499.17202185829	1070.59997558594
1499.80463270465	1074.59997558594
1500.43716131661	1074.59997558594
1501.06960770167	1078.80004882813
1501.70197186735	1078
1502.33425382116	1071.40002441406
1502.96645357059	1080
1503.59857112317	1080.59997558594
1504.23060648641	1079.59997558594
1504.8625596678	1076.40002441406
1505.49443067486	1083.59997558594
1506.1262195151	1082.40002441406
1506.75792619602	1079.80004882813
1507.38955072513	1080.40002441406
1508.02109310993	1076.80004882813
1508.65255335794	1081.80004882813
1509.28393147666	1077.40002441406
1509.91522747359	1076.80004882813
1510.54644135624	1079
1511.17757313212	1074
1511.80862280872	1075.59997558594
1512.43959039356	1072.19995117188
1513.07047589413	1072.59997558594
1513.70127931795	1079.80004882813
1514.33200067251	1084.59997558594
1514.96263996531	1079
1515.59319720386	1076.40002441406
1516.22367239567	1081.59997558594
1516.85406554822	1076.40002441406
1517.48437666903	1071.59997558594
1518.1146057656	1071
1518.74475284542	1077.19995117188
1519.374817916	1063.59997558594
1520.00480098483	1059.80004882813
1520.63470205942	1060.59997558594
1521.26452114726	1058.80004882813
1521.89425825586	1064.59997558594
1522.52391339271	1060.19995117188
1523.15348656531	1061.59997558594
1523.78297778116	1060
1524.41238704775	1063.19995117188
1525.04171437259	1059.59997558594
1525.67095976317	1065.59997558594
1526.30012322699	1067.80004882813
1526.92920477154	1070.59997558594
1527.55820440432	1059.40002441406
1528.18712213283	1062
1528.81595796455	1056
1529.44471190699	1065.80004882813
1530.07338396764	1062.80004882813
1530.70197415399	1057.59997558594
1531.33048247353	1065.59997558594
1531.95890893377	1065.59997558594
1532.58725354219	1057.80004882813
1533.21551630629	1062.80004882813
1533.84369723356	1062.80004882813
1534.47179633148	1066.19995117188
1535.09981360757	1056.40002441406
1535.72774906929	1056.80004882813
1536.35560272415	1067.59997558594
1536.98337457963	1064.19995117188
1537.61106464323	1069.40002441406
1538.23867292243	1064.80004882813
1538.86619942473	1068.80004882813
1539.49364415762	1062.80004882813
1540.12100712857	1064.19995117188
1540.74828834509	1070.19995117188
1541.37548781466	1067.40002441406
1542.00260554478	1070.19995117188
1542.62964154291	1064.40002441406
1543.25659581655	1061.40002441406
1543.8834683732	1059.80004882813
1544.51025922034	1052
1545.13696836544	1059.80004882813
1545.76359581601	1056.80004882813
1546.39014157952	1051.80004882813
1547.01660566345	1053.19995117188
1547.64298807531	1057
1548.26928882255	1055.59997558594
1548.89550791269	1050
1549.52164535318	1047.80004882813
1550.14770115153	1046.19995117188
1550.77367531521	1046.19995117188
1551.39956785171	1049
1552.0253787685	1050.80004882813
1552.65110807307	1048.80004882813
1553.2767557729	1053
1553.90232187548	1045.19995117188
1554.52780638828	1047
1555.15320931879	1040
1555.77853067447	1042.59997558594
1556.40377046282	1045.59997558594
1557.02892869132	1049
1557.65400536744	1042.19995117188
1558.27900049866	1045.80004882813
1558.90391409247	1049.80004882813
1559.52874615633	1049.19995117188
1560.15349669773	1055
1560.77816572414	1046.80004882813
1561.40275324305	1046.80004882813
1562.02725926192	1049.19995117188
1562.65168378824	1048.40002441406
1563.27602682948	1052.40002441406
1563.90028839311	1054
1564.52446848662	1052
1565.14856711748	1045.40002441406
1565.77258429316	1057.80004882813
1566.39652002113	1048.40002441406
1567.02037430887	1046.59997558594
1567.64414716387	1047.80004882813
1568.26783859357	1051.40002441406
1568.89144860547	1045.40002441406
1569.51497720703	1051.59997558594
1570.13842440573	1060
1570.76179020904	1055
1571.38507462442	1057.19995117188
1572.00827765936	1054.80004882813
1572.63139932132	1057.19995117188
1573.25443961777	1055.59997558594
1573.87739855618	1064
1574.50027614402	1059.19995117188
1575.12307238877	1055.59997558594
1575.74578729789	1066.80004882813
1576.36842087885	1056
1576.99097313912	1056.80004882813
1577.61344408616	1057.19995117188
1578.23583372745	1050.59997558594
1578.85814207046	1047.19995117188
1579.48036912264	1050.19995117188
1580.10251489147	1051.80004882813
1580.72457938441	1045.59997558594
1581.34656260893	1048
1581.9684645725	1047
1582.59028528258	1047.59997558594
1583.21202474663	1038.59997558594
1583.83368297212	1042
1584.45525996652	1042
1585.07675573728	1039.19995117188
1585.69817029188	1037.40002441406
1586.31950363778	1047.40002441406
1586.94075578243	1036
1587.5619267333	1033.80004882813
1588.18301649786	1037.80004882813
1588.80402508357	1032.19995117188
1589.42495249788	1034.40002441406
1590.04579874826	1040.19995117188
1590.66656384217	1043
1591.28724778707	1047.19995117188
1591.90785059042	1041.80004882813
1592.52837225968	1032.59997558594
1593.14881280232	1036.40002441406
1593.76917222578	1041.19995117188
1594.38945053753	1040
1595.00964774502	1043.40002441406
1595.62976385573	1047
1596.24979887709	1045.19995117188
1596.86975281657	1038.59997558594
1597.48962568164	1039
1598.10941747974	1042.80004882813
1598.72912821832	1037
1599.34875790486	1037.59997558594
1599.9683065468	1036.59997558594
1600.58777415159	1033
1601.2071607267	1032.80004882813
1601.82646627958	1035.19995117188
1602.44569081769	1031.19995117188
1603.06483434846	1035
1603.68389687937	1031.40002441406
1604.30287841786	1033
1604.92177897139	1035.40002441406
1605.54059854741	1030
1606.15933715337	1031.19995117188
1606.77799479672	1024.80004882813
1607.39657148492	1030.40002441406
1608.01506722542	1034
1608.63348202566	1031.40002441406
1609.2518158931	1032.59997558594
1609.87006883519	1026.59997558594
1610.48824085939	1024
1611.10633197312	1023.79998779297
1611.72434218386	1031.59997558594
1612.34227149904	1031.59997558594
1612.96011992612	1031.19995117188
1613.57788747254	1032.59997558594
1614.19557414575	1026.19995117188
1614.8131799532	1029.59997558594
1615.43070490234	1031
1616.04814900061	1026.19995117188
1616.66551225545	1032.80004882813
1617.28279467433	1027.59997558594
1617.89999626467	1021.20001220703
1618.51711703393	1032
1619.13415698955	1031.59997558594
1619.75111613898	1028.59997558594
1620.36799448966	1033.80004882813
1620.98479204903	1032
1621.60150882455	1033.40002441406
1622.21814482364	1027.19995117188
1622.83470005376	1028.40002441406
1623.45117452235	1028
1624.06756823685	1020.40002441406
1624.6838812047	1026
1625.30011343335	1021.79998779297
1625.91626493022	1020.40002441406
1626.53233570278	1016
1627.14832575845	1023.20001220703
1627.76423510468	1025.80004882813
1628.38006374891	1010.79998779297
1628.99581169857	1015.59997558594
1629.61147896111	1020
1630.22706554397	1018.20001220703
1630.84257145457	1021.59997558594
1631.45799670038	1015.59997558594
1632.07334128881	1022.40002441406
1632.6886052273	1022.20001220703
1633.3037885233	1022.59997558594
1633.91889118425	1023
1634.53391321757	1018.20001220703
1635.1488546307	1014.20001220703
1635.76371543108	1018.40002441406
1636.37849562616	1015.59997558594
1636.99319522335	1013.20001220703
1637.60781423009	1014
1638.22235265383	1013.79998779297
1638.83681050198	1025.19995117188
1639.451187782	1021
1640.0654845013	1021.79998779297
1640.67970066734	1022
1641.29383628752	1022.40002441406
1641.9078913693	1027.19995117188
1642.5218659201	1032.19995117188
1643.13575994735	1022.20001220703
1643.74957345849	1025.19995117188
1644.36330646094	1033.19995117188
1644.97695896213	1032.40002441406
1645.59053096951	1037
1646.20402249049	1037.40002441406
1646.8174335325	1031
1647.43076410298	1027.59997558594
1648.04401420935	1027.59997558594
1648.65718385905	1028.40002441406
1649.2702730595	1029.80004882813
1649.88328181812	1028
1650.49621014236	1033.80004882813
1651.10905803963	1034.40002441406
1651.72182551735	1033.59997558594
1652.33451258297	1033
1652.9471192439	1026
1653.55964550757	1028.80004882813
1654.1720913814	1026.40002441406
1654.78445687283	1027.40002441406
1655.39674198926	1016.79998779297
1656.00894673814	1016.59997558594
1656.62107112688	1019
1657.23311516291	1015.59997558594
1657.84507885365	1008.79998779297
1658.45696220652	1011.59997558594
1659.06876522895	1012
1659.68048792835	1009.20001220703
1660.29213031217	1009.40002441406
1660.90369238779	1003.40002441406
1661.51517416267	1007.40002441406
1662.12657564421	1006
1662.73789683984	1001.79998779297
1663.34913775697	1004.40002441406
1663.96029840303	1002
1664.57137878544	1001.40002441406
1665.18237891161	1005.79998779297
1665.79329878897	1005.79998779297
1666.40413842493	1004
1667.01489782691	998.200012207031
1667.62557700233	999.400024414063
1668.2361759586	992.799987792969
1668.84669470315	989.599975585938
1669.4571332434	992.799987792969
1670.06749158675	993.400024414063
1670.67776974062	989
1671.28796771243	993.400024414063
1671.8980855096	994.799987792969
1672.50812313954	987.400024414063
1673.11808060967	987.599975585938
1673.72795792739	987.599975585938
1674.33775510013	982.200012207031
1674.9474721353	980
1675.55710904031	978
1676.16666582257	981.799987792969
1676.7761424895	983.599975585938
1677.38553904851	987.799987792969
1677.99485550702	987
1678.60409187243	987.400024414063
1679.21324815215	983.200012207031
1679.8223243536	981.599975585938
1680.43132048419	983.400024414063
1681.04023655132	980.400024414063
1681.64907256241	986.200012207031
1682.25782852487	982.599975585938
1682.86650444611	987.799987792969
1683.47510033353	985
1684.08361619455	978.599975585938
1684.69205203657	985.799987792969
1685.300407867	988.200012207031
1685.90868369325	986
1686.51687952272	981.200012207031
1687.12499536283	978.799987792969
1687.73303122098	978.799987792969
1688.34098710457	974.200012207031
1688.94886302101	979
1689.55665897772	979.200012207031
1690.16437498208	977.400024414063
1690.77201104152	981.400024414063
1691.37956716342	977.799987792969
1691.9870433552	979.799987792969
1692.59443962426	980.599975585938
1693.20175597801	977.599975585938
1693.80899242384	974.799987792969
1694.41614896916	977.599975585938
1695.02322562138	979.599975585938
1695.63022238789	980.799987792969
1696.23713927609	982.200012207031
1696.8439762934	985
1697.4507334472	980
1698.05741074491	979.400024414063
1698.66400819391	978.400024414063
1699.27052580161	978.799987792969
1699.87696357542	982.400024414063
1700.48332152272	980.400024414063
1701.08959965092	974
1701.69579796742	977.200012207031
1702.30191647962	974
1702.90795519491	972.799987792969
1703.51391412069	977.799987792969
1704.11979326437	971.200012207031
1704.72559263332	971.200012207031
1705.33131223496	980.799987792969
1705.93695207668	968
1706.54251216588	971.400024414063
1707.14799250994	971.400024414063
1707.75339311628	966.200012207031
1708.35871399227	968.400024414063
1708.96395514532	970.200012207031
1709.56911658282	976.400024414063
