634.948122577771	1345.40002441406
635.690341530823	1342.19995117188
636.43246851086	1346.40002441406
637.174503525845	1344.80004882813
637.916446583745	1343.40002441406
638.658297692538	1342.59997558594
639.400056860179	1342.80004882813
640.141724094637	1346.80004882813
640.883299403885	1338.40002441406
641.62478279588	1339.59997558594
642.366174278594	1341.40002441406
643.107473859989	1325.59997558594
643.848681548029	1334.40002441406
644.589797350679	1337.59997558594
645.330821275901	1342.80004882813
646.071753331665	1353
646.812593525922	1354
647.553341866646	1352.80004882813
648.293998361798	1363.80004882813
649.03456301933	1364.59997558594
649.775035847216	1358
650.515416853409	1377.59997558594
651.255706045874	1371.19995117188
651.995903432568	1364.40002441406
652.736009021453	1370.59997558594
653.476022820486	1364
654.215944837629	1368.19995117188
654.955775080842	1370.59997558594
655.695513558081	1360.40002441406
656.435160277301	1365.40002441406
657.174715246465	1358.19995117188
657.914178473527	1369.59997558594
658.653549966449	1383.80004882813
659.392829733176	1389.40002441406
660.132017781678	1387.59997558594
660.871114119901	1389.80004882813
661.610118755803	1380.59997558594
662.349031697343	1381
663.087852952468	1395.59997558594
663.826582529139	1387
664.565220435305	1392.40002441406
665.30376667892	1382.59997558594
666.04222126794	1379.40002441406
666.780584210316	1369.19995117188
667.518855514	1356.19995117188
668.25703518694	1358.19995117188
668.995123237096	1368.40002441406
669.733119672413	1379.40002441406
670.471024500842	1374.19995117188
671.208837730333	1373
671.946559368839	1380.19995117188
672.684189424308	1386.19995117188
673.421727904689	1379
674.159174817929	1386.59997558594
674.896530171977	1371.59997558594
675.633793974786	1374.59997558594
676.370966234295	1371.80004882813
677.108046958461	1366.19995117188
677.845036155219	1362.80004882813
678.581933832528	1372.59997558594
679.318739998323	1382.59997558594
680.055454660558	1379.59997558594
680.792077827172	1381.80004882813
681.528609506116	1395.59997558594
682.265049705331	1379.40002441406
683.001398432759	1385
683.737655696349	1386.19995117188
684.47382150404	1367.59997558594
685.20989586378	1367.19995117188
685.945878783503	1378
686.68177027116	1378
687.417570334688	1377.40002441406
688.153278982032	1380.40002441406
688.888896221129	1383.40002441406
689.624422059921	1389.40002441406
690.359856506349	1390
691.095199568354	1385.40002441406
691.830451253874	1396.40002441406
692.565611570844	1396.19995117188
693.300680527212	1395.80004882813
694.03565813091	1391
694.770544389877	1389.40002441406
695.505339312053	1384.80004882813
696.240042905372	1392.19995117188
696.974655177772	1402.40002441406
697.70917613719	1397.40002441406
698.443605791561	1394
699.177944148826	1384.59997558594
699.912191216909	1401.80004882813
700.646347003755	1395.80004882813
701.380411517295	1394.80004882813
702.114384765465	1397.80004882813
702.848266756195	1406.80004882813
703.582057497421	1402.80004882813
704.315756997074	1404.80004882813
705.049365263089	1404.19995117188
705.782882303399	1390.19995117188
706.516308125936	1388.80004882813
707.249642738626	1393.59997558594
707.982886149403	1395.80004882813
708.716038366204	1367.59997558594
709.449099396949	1381
710.182069249577	1387
710.914947932009	1387.19995117188
711.647735452181	1376.80004882813
712.380431818022	1383.80004882813
713.113037037454	1385.19995117188
713.845551118411	1387.80004882813
714.577974068818	1394.59997558594
715.310305896604	1387.40002441406
716.042546609694	1372.19995117188
716.774696216013	1375.80004882813
717.506754723493	1362.80004882813
718.238722140053	1360
718.970598473624	1371.40002441406
719.702383732127	1377.40002441406
720.43407792349	1374.40002441406
721.165681055634	1362.19995117188
721.897193136486	1352.80004882813
722.628614173966	1361.80004882813
723.359944175997	1368.59997558594
724.091183150505	1383
724.822331105412	1378
725.553388048638	1388
726.284353988106	1382.40002441406
727.015228931734	1390
727.746012887449	1384.40002441406
728.476705863162	1386.80004882813
729.207307866803	1394.19995117188
729.937818906289	1385.80004882813
730.668238989535	1403.59997558594
731.398568124459	1394.40002441406
732.128806318986	1394
732.858953581034	1399
733.589009918514	1387.40002441406
734.318975339348	1394.19995117188
735.048849851452	1397.40002441406
735.778633462744	1385
736.508326181137	1394
737.237928014549	1383.19995117188
737.967438970897	1377.19995117188
738.696859058095	1383.80004882813
739.426188284054	1389.19995117188
740.155426656692	1398.40002441406
740.884574183922	1407
741.613630873659	1403.40002441406
742.342596733815	1418.80004882813
743.071471772302	1421.59997558594
743.800255997034	1415.59997558594
744.528949415921	1406.40002441406
745.257552036877	1418.59997558594
745.986063867811	1424.19995117188
746.714484916638	1411.59997558594
747.442815191261	1424
748.171054699597	1410
748.899203449554	1390.40002441406
749.627261449039	1390.19995117188
750.355228705966	1391.59997558594
751.083105228239	1394.80004882813
751.810891023765	1399
752.538586100459	1398
753.266190466218	1402.59997558594
753.99370412896	1415.40002441406
754.721127096582	1412.80004882813
755.448459377	1421.59997558594
756.175700978114	1403.59997558594
756.902851907828	1403.40002441406
757.629912174055	1392
758.356881784688	1385.19995117188
759.083760747639	1387.80004882813
759.810549070817	1396.80004882813
760.537246762113	1411.80004882813
761.263853829442	1409
761.990370280698	1424.19995117188
762.716796123791	1443.80004882813
763.443131366618	1444
764.169376017082	1443.40002441406
764.895530083085	1448
765.621593572527	1442.40002441406
766.347566493312	1440.40002441406
767.073448853336	1445
767.799240660502	1457.59997558594
768.524941922707	1463
769.250552647854	1477.19995117188
769.976072843836	1479.19995117188
770.701502518551	1484.80004882813
771.426841679905	1494.59997558594
772.152090335793	1470.59997558594
772.877248494107	1471.59997558594
773.602316162747	1482.59997558594
774.327293349609	1494.59997558594
775.052180062592	1492.80004882813
775.776976309589	1496
776.501682098496	1498.40002441406
777.226297437206	1495.59997558594
777.950822333616	1501.40002441406
778.675256795621	1486.59997558594
779.399600831111	1460.59997558594
780.123854447983	1436.40002441406
780.84801765413	1439
781.572090457441	1429
782.296072865811	1408.19995117188
783.019964887131	1405.40002441406
783.743766529297	1408.80004882813
784.467477800194	1391.59997558594
785.191098707719	1383
785.914629259756	1389.80004882813
786.638069464194	1396.40002441406
787.361419328932	1404.59997558594
788.084678861852	1398.40002441406
788.807848070845	1403
789.530926963798	1401.59997558594
790.253915548602	1401.59997558594
790.976813833144	1401
791.699621825307	1393.59997558594
792.422339532986	1396.59997558594
793.144966964061	1390.19995117188
793.86750412642	1408.40002441406
794.589951027946	1415.19995117188
795.312307676536	1398.19995117188
796.03457408006	1406.80004882813
796.756750246417	1403.59997558594
797.478836183477	1398.80004882813
798.200831899137	1398.80004882813
798.92273740127	1399.80004882813
799.644552697769	1410.40002441406
800.36627779651	1395.40002441406
801.087912705374	1401.19995117188
801.809457432251	1401.59997558594
802.530911985017	1394.59997558594
803.252276371558	1393.59997558594
803.973550599748	1384
804.694734677472	1394
805.415828612611	1389.80004882813
806.136832413045	1389.80004882813
806.857746086646	1392.80004882813
807.578569641305	1386.59997558594
808.299303084892	1372
809.019946425289	1375.40002441406
809.740499670372	1390.19995117188
810.460962828022	1387.40002441406
811.181335906114	1384.40002441406
811.901618912524	1404.80004882813
812.621811855131	1392.19995117188
813.341914741809	1408
814.061927580433	1404.80004882813
814.781850378881	1404.80004882813
815.501683145025	1412.19995117188
816.221425886743	1401.59997558594
816.941078611903	1403
817.660641328387	1392.40002441406
818.380114044065	1388.19995117188
819.099496766808	1397.40002441406
819.818789504492	1405.19995117188
820.53799226499	1394.19995117188
821.257105056168	1385.59997558594
821.976127885904	1381.59997558594
822.695060762064	1380.80004882813
823.413903692525	1395.59997558594
824.132656685151	1376.59997558594
824.851319747817	1384.59997558594
825.569892888388	1385.40002441406
826.288376114739	1383.59997558594
827.006769434737	1396.80004882813
827.725072856249	1385.59997558594
828.443286387142	1396.59997558594
829.161410035285	1395.40002441406
829.87944380855	1394.80004882813
830.597387714798	1393.19995117188
831.315241761898	1391.40002441406
832.033005957715	1394
832.750680310119	1400
833.468264826969	1397.40002441406
834.18575951614	1390.59997558594
834.903164385486	1384.40002441406
835.620479442878	1369.19995117188
836.337704696181	1384.19995117188
837.054840153255	1373.80004882813
837.771885821962	1368.59997558594
838.488841710172	1382.40002441406
839.20570782574	1370.19995117188
839.922484176531	1372
840.639170770409	1368.19995117188
841.355767615231	1377.80004882813
842.072274718864	1373
842.788692089164	1380
843.505019733993	1379.40002441406
844.221257661209	1386
844.937405878676	1398.40002441406
845.65346439425	1390.59997558594
846.369433215789	1389.80004882813
847.085312351156	1378
847.801101808205	1384.80004882813
848.516801594793	1392.80004882813
849.232411718781	1382.59997558594
849.947932188021	1391.19995117188
850.663363010376	1392.40002441406
851.378704193698	1384.19995117188
852.093955745842	1389.59997558594
852.809117674669	1385.40002441406
853.524189988028	1373.80004882813
854.239172693778	1375
854.954065799768	1387.40002441406
855.668869313857	1388.80004882813
856.383583243899	1387.19995117188
857.098207597743	1391.40002441406
857.812742383246	1395.59997558594
858.527187608255	1394.40002441406
859.241543280628	1392
859.955809408218	1389
860.669985998868	1389.40002441406
861.384073060437	1393.80004882813
862.098070600772	1390.59997558594
862.811978627724	1394
863.52579714914	1387.40002441406
864.239526172873	1397.59997558594
864.953165706776	1370.19995117188
865.666715758687	1388.19995117188
866.380176336464	1385.59997558594
867.093547447951	1388.80004882813
867.806829100996	1380
868.520021303444	1398
869.233124063149	1392.19995117188
869.94613738795	1403.19995117188
870.659061285693	1401.40002441406
871.37189576423	1410.19995117188
872.084640831403	1396.80004882813
872.797296495057	1395.59997558594
873.509862763039	1393
874.22233964319	1399.19995117188
874.934727143353	1392
875.647025271374	1388.59997558594
876.359234035097	1388.80004882813
877.071353442361	1386
877.783383501015	1389
878.495324218895	1380.19995117188
879.207175603844	1394.80004882813
879.918937663705	1394.40002441406
880.630610406318	1396.80004882813
881.342193839524	1398.40002441406
882.053687971161	1404
882.765092809069	1407.80004882813
883.476408361091	1409.80004882813
884.187634635066	1392.40002441406
884.898771638828	1391.80004882813
885.609819380221	1392.59997558594
886.320777867076	1393.19995117188
887.031647107236	1396.40002441406
887.742427108536	1394.59997558594
888.453117878816	1400
889.16371942591	1414
889.874231757652	1404.40002441406
890.584654881883	1396.80004882813
891.294988806434	1387.19995117188
892.005233539141	1391.40002441406
892.715389087837	1382.80004882813
893.42545546036	1382
894.135432664543	1396
894.845320708216	1388
895.555119599216	1382.19995117188
896.264829345375	1383
896.974449954526	1398
897.683981434496	1388
898.393423793125	1385
899.102777038235	1390.19995117188
899.812041177664	1398.59997558594
900.521216219239	1401
901.230302170793	1396.80004882813
901.939299040155	1386
902.64820683515	1388.80004882813
903.357025563612	1374.19995117188
904.065755233368	1366.40002441406
904.774395852247	1369.59997558594
905.482947428076	1379.40002441406
906.191409968682	1378.19995117188
906.899783481897	1379.80004882813
907.608067975538	1384
908.316263457443	1380.40002441406
909.02436993543	1384.80004882813
909.732387417327	1385
910.440315910959	1387.19995117188
911.148155424154	1385.19995117188
911.855905964731	1398
912.563567540521	1393.80004882813
913.271140159339	1414
913.978623829017	1396.40002441406
914.686018557374	1395.19995117188
915.393324352237	1394.59997558594
916.100541221421	1405
916.807669172752	1396.59997558594
917.514708214054	1392
918.221658353142	1400
918.928519597843	1399.19995117188
919.635291955976	1402.59997558594
920.341975435358	1400.40002441406
921.048570043813	1398
921.75507578916	1406.59997558594
922.461492679212	1390.59997558594
923.167820721795	1383.40002441406
923.874059924726	1395.40002441406
924.58021029582	1413.40002441406
925.286271842893	1418.80004882813
925.992244573769	1412.19995117188
926.698128496262	1415.59997558594
927.403923618184	1404
928.109629947355	1397
928.815247491593	1388
929.520776258708	1384.80004882813
930.226216256519	1391.80004882813
930.931567492841	1382.19995117188
931.636829975482	1382.19995117188
932.342003712263	1386.19995117188
933.047088710995	1383.59997558594
933.752084979491	1395.40002441406
934.456992525564	1390.80004882813
935.161811357024	1398.19995117188
935.866541481688	1381.59997558594
936.571182907363	1367
937.275735641861	1374.80004882813
937.980199692995	1367.80004882813
938.684575068572	1362.80004882813
939.388861776411	1369.19995117188
940.093059824311	1377.19995117188
940.797169220085	1367
941.501189971544	1354.59997558594
942.205122086495	1354.59997558594
942.908965572751	1343.80004882813
943.612720438111	1352.19995117188
944.316386690391	1357.40002441406
945.019964337391	1350
945.723453386924	1346.59997558594
946.426853846795	1349.19995117188
947.130165724808	1340.80004882813
947.83338902877	1364
948.536523766488	1356.80004882813
949.239569945764	1347.80004882813
949.942527574402	1376.59997558594
950.64539666021	1381.80004882813
951.348177210993	1382.59997558594
952.050869234548	1370
952.753472738683	1377.40002441406
953.455987731199	1370.80004882813
954.158414219898	1370.59997558594
954.860752212587	1358.80004882813
955.563001717061	1361.80004882813
956.265162741124	1362
956.967235292576	1358
957.669219379224	1356.19995117188
958.371115008857	1351.80004882813
959.072922189283	1365.80004882813
959.774640928301	1361.80004882813
960.476271233708	1365.40002441406
961.177813113301	1357
961.879266574882	1358.59997558594
962.580631626248	1361
963.281908275194	1355.40002441406
963.98309652952	1375.19995117188
964.684196397022	1366.19995117188
965.3852078855	1368.40002441406
966.086131002745	1371.19995117188
966.786965756555	1380.40002441406
967.487712154726	1379.59997558594
968.188370205055	1387
968.888939915331	1365.40002441406
969.589421293352	1366
970.289814346909	1370.59997558594
970.990119083801	1363.19995117188
971.690335511819	1358
972.39046363875	1371.19995117188
973.090503472398	1359
973.790455020545	1362.59997558594
974.490318290987	1370.40002441406
975.190093291516	1355.40002441406
975.889780029923	1349.19995117188
976.589378513998	1349.19995117188
977.288888751527	1361.40002441406
977.988310750308	1357.40002441406
978.687644518122	1358
979.386890062767	1348.40002441406
980.086047392025	1352.59997558594
980.785116513689	1340.59997558594
981.484097435542	1352.40002441406
982.182990165377	1350.59997558594
982.88179471098	1352.40002441406
983.580511080137	1354.19995117188
984.279139280632	1350.19995117188
984.977679320253	1367
985.67613120679	1349.59997558594
986.374494948027	1342.59997558594
987.072770551745	1328
987.770958025731	1341.80004882813
988.469057377772	1344.40002441406
989.167068615649	1351.40002441406
989.864991747145	1356.80004882813
990.562826780047	1360.59997558594
991.260573722134	1354.19995117188
991.958232581195	1359.59997558594
992.655803365003	1353
993.353286081346	1360.19995117188
994.050680738006	1364.40002441406
994.74798734276	1358.19995117188
995.44520590339	1360.80004882813
996.142336427681	1359.59997558594
996.839378923407	1355.40002441406
997.536333398348	1365
998.233199860289	1361.19995117188
998.929978317004	1353
999.626668776274	1347.40002441406
1000.32327124587	1334.19995117188
1001.01978573359	1347.19995117188
1001.71621224718	1341.59997558594
1002.41255079445	1337.59997558594
1003.10880138315	1336
1003.80496402107	1360
1004.50103871599	1350.19995117188
1005.19702547567	1352.80004882813
1005.8929243079	1360.80004882813
1006.58873522045	1342.19995117188
1007.2844582211	1350.40002441406
1007.98009331761	1348
1008.67564051776	1355.59997558594
1009.37109982933	1347
1010.06647126009	1356.59997558594
1010.7617548178	1353.59997558594
1011.45695051026	1336.19995117188
1012.15205834522	1341.80004882813
1012.84707833045	1345.59997558594
1013.54201047373	1357.59997558594
1014.23685478284	1353
1014.93161126553	1369.80004882813
1015.62627992959	1359
1016.32086078277	1369.40002441406
1017.01535383285	1366.59997558594
1017.70975908761	1367.80004882813
1018.40407655479	1372
1019.09830624219	1372.40002441406
1019.79244815755	1371
1020.48650230866	1376
1021.18046870328	1365.19995117188
1021.87434734917	1383
1022.56813825411	1376.80004882813
1023.26184142584	1365.59997558594
1023.95545687216	1347.80004882813
1024.64898460082	1344.80004882813
1025.34242461957	1345.19995117188
1026.0357769362	1346.80004882813
1026.72904155846	1343.19995117188
1027.42221849412	1348
1028.11530775094	1346.59997558594
1028.80830933668	1359
1029.50122325911	1340.19995117188
1030.19404952599	1335
1030.88678814508	1347.80004882813
1031.57943912414	1339
1032.27200247093	1346.19995117188
1032.96447819323	1340.59997558594
1033.65686629878	1329.19995117188
1034.34916679534	1330
1035.04137969068	1334.40002441406
1035.73350499256	1335.40002441406
1036.42554270874	1340.40002441406
1037.11749284697	1342.40002441406
1037.80935541501	1358.40002441406
1038.50113042062	1357.19995117188
1039.19281787156	1354
1039.88441777559	1354.59997558594
1040.57593014046	1345.59997558594
1041.26735497393	1350.80004882813
1041.95869228376	1344
1042.6499420777	1340.40002441406
1043.3411043635	1328.59997558594
1044.03217914893	1332
1044.72316644174	1337.80004882813
1045.41406624968	1339.40002441406
1046.1048785805	1329
1046.79560344197	1324.19995117188
1047.48624084182	1335.80004882813
1048.17679078783	1333.80004882813
1048.86725328774	1332.19995117188
1049.55762834929	1327.40002441406
1050.24791598025	1324.80004882813
1050.93811618837	1334.40002441406
1051.62822898139	1331.19995117188
1052.31825436707	1327.40002441406
1053.00819235315	1330.80004882813
1053.6980429474	1329.19995117188
1054.38780615755	1324.59997558594
1055.07748199136	1332.40002441406
1055.76707045658	1333.59997558594
1056.45657156095	1328.80004882813
1057.14598531222	1319
1057.83531171814	1338.19995117188
1058.52455078646	1332.59997558594
1059.21370252494	1339.19995117188
1059.90276694129	1336.19995117188
1060.5917440433	1338.59997558594
1061.28063383868	1336.80004882813
1061.9694363352	1337.59997558594
1062.65815154059	1347.80004882813
1063.34677946261	1348
1064.03532010899	1350.59997558594
1064.72377348748	1346.19995117188
1065.41213960583	1357.40002441406
1066.10041847177	1346
1066.78861009306	1344.80004882813
1067.47671447743	1348
1068.16473163263	1345.80004882813
1068.85266156639	1332.40002441406
1069.54050428647	1334.80004882813
1070.2282598006	1331.80004882813
1070.91592811652	1340.59997558594
1071.60350924198	1330.59997558594
1072.29100318471	1337
1072.97840995245	1335.40002441406
1073.66572955295	1333
1074.35296199394	1334.19995117188
1075.04010728316	1337
1075.72716542836	1339.59997558594
1076.41413643726	1340
1077.10102031761	1340.19995117188
1077.78781707715	1347.59997558594
1078.4745267236	1342.19995117188
1079.16114926471	1321
1079.84768470822	1333
1080.53413306185	1332
1081.22049433336	1325.40002441406
1081.90676853046	1324
1082.5929556609	1323
1083.27905573241	1335.40002441406
1083.96506875272	1335
1084.65099472957	1325.80004882813
1085.3368336707	1323.80004882813
1086.02258558383	1344.19995117188
1086.70825047669	1342.59997558594
1087.39382835703	1343.19995117188
1088.07931923257	1335.40002441406
1088.76472311104	1334
1089.45004000018	1322.80004882813
1090.13526990771	1326.59997558594
1090.82041284137	1320.40002441406
1091.50546880889	1318.59997558594
1092.19043781799	1319.80004882813
1092.87531987642	1323.19995117188
1093.56011499188	1324
1094.24482317212	1335
1094.92944442486	1333.80004882813
1095.61397875783	1322.19995117188
1096.29842617876	1333
1096.98278669537	1321
1097.6670603154	1328.19995117188
1098.35124704656	1323
1099.03534689659	1323.40002441406
1099.71935987322	1322.59997558594
1100.40328598416	1314.80004882813
1101.08712523713	1316.80004882813
1101.77087763988	1313
1102.45454320012	1314
1103.13812192557	1324.80004882813
1103.82161382396	1318.19995117188
1104.50501890301	1326.19995117188
1105.18833717045	1332.40002441406
1105.87156863399	1317.59997558594
1106.55471330137	1320.40002441406
1107.2377711803	1315.80004882813
1107.9207422785	1319.19995117188
1108.60362660369	1323.80004882813
1109.2864241636	1318
1109.96913496594	1315
1110.65175901844	1305
1111.33429632882	1306
1112.01674690479	1325
1112.69911075408	1327.59997558594
1113.38138788439	1329.19995117188
1114.06357830346	1319.80004882813
1114.745682019	1322.80004882813
1115.42769903872	1329.19995117188
1116.10962937035	1339
1116.7914730216	1345.80004882813
1117.47323000018	1340.40002441406
1118.15490031382	1328.19995117188
1118.83648397022	1322
1119.51798097712	1324.59997558594
1120.1993913422	1318.40002441406
1120.88071507321	1329.59997558594
1121.56195217784	1338.19995117188
1122.24310266381	1340
1122.92416653884	1336.80004882813
1123.60514381064	1348.40002441406
1124.28603448692	1349
1124.9668385754	1343.59997558594
1125.64755608378	1324.40002441406
1126.32818701978	1342
1127.00873139111	1342.40002441406
1127.68918920548	1348.80004882813
1128.3695604706	1345
1129.04984519419	1346.80004882813
1129.73004338394	1334.40002441406
1130.41015504758	1347.59997558594
1131.09018019281	1341.59997558594
1131.77011882734	1358.19995117188
1132.44997095888	1361.80004882813
1133.12973659514	1339.40002441406
1133.80941574381	1345.80004882813
1134.48900841263	1332
1135.16851460927	1325.40002441406
1135.84793434147	1341.59997558594
1136.52726761692	1412.19995117188
1137.20651444333	1703
1137.8856748284	1354
1138.56474877984	1327.59997558594
1139.24373630536	1329.59997558594
1139.92263741265	1322.59997558594
1140.60145210943	1320.59997558594
1141.28018040339	1309.59997558594
1141.95882230225	1321.40002441406
1142.6373778137	1321
1143.31584694545	1322.19995117188
1143.99422970519	1314.19995117188
1144.67252610064	1319.59997558594
1145.35073613949	1310.40002441406
1146.02885982944	1318.59997558594
1146.7068971782	1320.59997558594
1147.38484819347	1319
1148.06271288294	1336
1148.74049125432	1324.59997558594
1149.41818331531	1326.40002441406
1150.0957890736	1322
1150.77330853689	1317.80004882813
1151.45074171289	1324.80004882813
1152.12808860928	1320.59997558594
1152.80534923378	1332
1153.48252359407	1330.19995117188
1154.15961169786	1328.40002441406
1154.83661355283	1317.80004882813
1155.51352916669	1305.59997558594
1156.19035854713	1306.59997558594
1156.86710170185	1312.40002441406
1157.54375863855	1308.40002441406
1158.22032936491	1316.80004882813
1158.89681388863	1310.19995117188
1159.57321221741	1308.40002441406
1160.24952435894	1309.40002441406
1160.92575032092	1291.80004882813
1161.60189011103	1303.40002441406
1162.27794373697	1293
1162.95391120644	1300.59997558594
1163.62979252712	1318
1164.3055877067	1310.19995117188
1164.98129675288	1301.40002441406
1165.65691967336	1299.19995117188
1166.33245647581	1308.19995117188
1167.00790716792	1298
1167.6832717574	1323.40002441406
1168.35855025193	1313.19995117188
1169.0337426592	1310.80004882813
1169.70884898689	1317.40002441406
1170.3838692427	1323.40002441406
1171.05880343431	1320
1171.73365156941	1317
1172.40841365569	1321.59997558594
1173.08308970083	1322.80004882813
1173.75767971253	1327.59997558594
1174.43218369847	1328.80004882813
1175.10660166633	1324.59997558594
1175.7809336238	1325.40002441406
1176.45517957857	1325.40002441406
1177.12933953832	1332.80004882813
1177.80341351073	1331.80004882813
1178.47740150349	1338.80004882813
1179.15130352429	1349
1179.8251195808	1341.59997558594
1180.49884968071	1355.59997558594
1181.1724938317	1361.19995117188
1181.84605204145	1361
1182.51952431766	1339.80004882813
1183.19291066799	1356.40002441406
1183.86621110013	1345
1184.53942562176	1347
1185.21255424057	1354.19995117188
1185.88559696422	1343
1186.55855380041	1351.40002441406
1187.2314247568	1356.40002441406
1187.90420984109	1352.80004882813
1188.57690906095	1353
1189.24952242405	1349.40002441406
1189.92204993808	1352
1190.59449161071	1346.80004882813
1191.26684744962	1350.80004882813
1191.93911746249	1340.59997558594
1192.61130165699	1341.40002441406
1193.28340004081	1347.40002441406
1193.95541262161	1340
1194.62733940707	1324.80004882813
1195.29918040487	1332.40002441406
1195.97093562269	1331
1196.64260506819	1326.59997558594
1197.31418874905	1320.80004882813
1197.98568667295	1339.59997558594
1198.65709884755	1331.19995117188
1199.32842528053	1314.19995117188
1199.99966597957	1325.40002441406
1200.67082095234	1314.40002441406
1201.3418902065	1317.59997558594
1202.01287374974	1313.80004882813
1202.68377158971	1325.40002441406
1203.3545837341	1316.80004882813
1204.02531019057	1309.59997558594
1204.6959509668	1299.19995117188
1205.36650607045	1315.40002441406
1206.03697550919	1307
1206.70735929069	1306
1207.37765742263	1308.80004882813
1208.04786991266	1314.80004882813
1208.71799676846	1304
1209.38803799769	1306.59997558594
1210.05799360803	1312.19995117188
1210.72786360714	1301.80004882813
1211.39764800268	1303.40002441406
1212.06734680233	1305
1212.73696001375	1298.19995117188
1213.4064876446	1301.40002441406
1214.07592970255	1304.80004882813
1214.74528619526	1302
1215.4145571304	1297.19995117188
1216.08374251564	1297.19995117188
1216.75284235863	1298.59997558594
1217.42185666704	1298
1218.09078544854	1285.80004882813
1218.75962871078	1291.59997558594
1219.42838646143	1283.59997558594
1220.09705870816	1286.59997558594
1220.76564545861	1290.59997558594
1221.43414672046	1300.40002441406
1222.10256250136	1294.80004882813
1222.77089280898	1294.40002441406
1223.43913765098	1296.80004882813
1224.107297035	1302.59997558594
1224.77537096873	1302
1225.44335945981	1315.40002441406
1226.1112625159	1313.19995117188
1226.77908014467	1303
1227.44681235376	1313
1228.11445915085	1310
1228.78202054357	1315
1229.44949653961	1308
1230.11688714659	1301.19995117188
1230.7841923722	1304
1231.45141222407	1295.19995117188
1232.11854670988	1290.19995117188
1232.78559583726	1283.80004882813
1233.45255961388	1286.40002441406
1234.1194380474	1289.59997558594
1234.78623114546	1296.59997558594
1235.45293891572	1293.80004882813
1236.11956136583	1298.80004882813
1236.78609850345	1301.59997558594
1237.45255033623	1301
1238.11891687182	1279
1238.78519811788	1280.59997558594
1239.45139408205	1270.40002441406
1240.11750477198	1268.59997558594
1240.78353019534	1266
1241.44947035976	1275
1242.11532527291	1278
1242.78109494242	1278.19995117188
1243.44677937595	1275.80004882813
1244.11237858115	1289
1244.77789256567	1286.80004882813
1245.44332133715	1287.40002441406
1246.10866490325	1282.40002441406
1246.7739232716	1281.59997558594
1247.43909644987	1277
1248.10418444569	1276
1248.76918726671	1281.19995117188
1249.43410492059	1287
1250.09893741496	1278.80004882813
1250.76368475747	1286.40002441406
1251.42834695576	1283.80004882813
1252.09292401749	1282.80004882813
1252.75741595029	1277.19995117188
1253.42182276182	1278
1254.08614445971	1270.59997558594
1254.75038105161	1266
1255.41453254515	1276.19995117188
1256.07859894799	1272.80004882813
1256.74258026777	1267.19995117188
1257.40647651213	1281.40002441406
1258.0702876887	1278.19995117188
1258.73401380514	1273.59997558594
1259.39765486908	1278.59997558594
1260.06121088817	1269.40002441406
1260.72468187004	1271.59997558594
1261.38806782233	1283
1262.05136875269	1285.19995117188
1262.71458466875	1279.80004882813
1263.37771557815	1283
1264.04076148854	1285.59997558594
1264.70372240753	1281
1265.3665983428	1280.80004882813
1266.02938930195	1288.19995117188
1266.69209529263	1269
1267.35471632249	1274.40002441406
1268.01725239914	1283.40002441406
1268.67970353024	1282.19995117188
1269.34206972342	1296.40002441406
1270.00435098631	1285.59997558594
1270.66654732655	1290.59997558594
1271.32865875177	1284.59997558594
1271.9906852696	1276.40002441406
1272.65262688768	1277.80004882813
1273.31448361365	1280.40002441406
1273.97625545514	1274.80004882813
1274.63794241978	1268.80004882813
1275.2995445152	1263.80004882813
1275.96106174903	1271.80004882813
1276.62249412892	1277.80004882813
1277.28384166248	1279
1277.94510435735	1274
1278.60628222116	1284.19995117188
1279.26737526155	1278.19995117188
1279.92838348613	1278
1280.58930690255	1289.80004882813
1281.25014551842	1280.19995117188
1281.91089934139	1282
1282.57156837907	1283.80004882813
1283.2321526391	1282.40002441406
1283.89265212911	1274.19995117188
1284.55306685671	1273.40002441406
1285.21339682955	1274.40002441406
1285.87364205525	1265.80004882813
1286.53380254142	1261.40002441406
1287.19387829571	1254
1287.85386932573	1259.80004882813
1288.51377563911	1246.19995117188
1289.17359724348	1235.59997558594
1289.83333414646	1256.40002441406
1290.49298635567	1259
1291.15255387874	1268
1291.8120367233	1270.19995117188
1292.47143489696	1269.40002441406
1293.13074840736	1268
1293.7899772621	1286.40002441406
1294.44912146882	1274.19995117188
1295.10818103513	1262.19995117188
1295.76715596866	1260.40002441406
1296.42604627704	1270
1297.08485196787	1262.59997558594
1297.74357304878	1274.40002441406
1298.4022095274	1286.19995117188
1299.06076141134	1281.59997558594
1299.71922870821	1282
1300.37761142565	1289.40002441406
1301.03590957126	1297.40002441406
1301.69412315268	1288
1302.3522521775	1281.80004882813
1303.01029665336	1294.40002441406
1303.66825658787	1296.19995117188
1304.32613198865	1298.40002441406
1304.98392286332	1286.80004882813
1305.64162921948	1300.40002441406
1306.29925106476	1287.19995117188
1306.95678840677	1290.59997558594
1307.61424125312	1298
1308.27160961145	1298.19995117188
1308.92889348934	1312
1309.58609289443	1302.40002441406
1310.24320783432	1302
1310.90023831664	1306
1311.55718434898	1298.80004882813
1312.21404593897	1296.40002441406
1312.87082309421	1288
1313.52751582233	1285.80004882813
1314.18412413092	1283.40002441406
1314.84064802761	1288.19995117188
1315.49708752	1288.40002441406
1316.1534426157	1293.40002441406
1316.80971332233	1286.19995117188
1317.46589964749	1278.19995117188
1318.1220015988	1286.19995117188
1318.77801918386	1292.59997558594
1319.43395241028	1295.80004882813
1320.08980128567	1278.19995117188
1320.74556581764	1299.19995117188
1321.4012460138	1285.19995117188
1322.05684188176	1285.59997558594
1322.71235342911	1305.19995117188
1323.36778066347	1288.40002441406
1324.02312359245	1287.80004882813
1324.67838222365	1285.40002441406
1325.33355656468	1282.19995117188
1325.98864662314	1271.59997558594
1326.64365240663	1275.80004882813
1327.29857392277	1271.19995117188
1327.95341117915	1265.19995117188
1328.60816418339	1282.19995117188
1329.26283294308	1277.59997558594
1329.91741746582	1276.19995117188
1330.57191775923	1260.80004882813
1331.2263338309	1265.80004882813
1331.88066568843	1273.40002441406
1332.53491333943	1275.80004882813
1333.1890767915	1279
1333.84315605224	1276.59997558594
1334.49715112925	1277.19995117188
1335.15106203013	1280.40002441406
1335.80488876249	1283
1336.45863133391	1291.19995117188
1337.112289752	1289
1337.76586402437	1302.59997558594
1338.4193541586	1295.40002441406
1339.0727601623	1287.40002441406
1339.72608204306	1281.19995117188
1340.37931980849	1282.40002441406
1341.03247346617	1274.40002441406
1341.68554302372	1286
1342.33852848871	1282
1342.99142986876	1274.40002441406
1343.64424717145	1269.59997558594
1344.29698040438	1276
1344.94962957515	1270
1345.60219469135	1275.80004882813
1346.25467576058	1285.59997558594
1346.90707279042	1296.59997558594
1347.55938578848	1302.19995117188
1348.21161476235	1293.80004882813
1348.86375971962	1291
1349.51582066787	1296.59997558594
1350.16779761472	1295.40002441406
1350.81969056774	1294
1351.47149953453	1293.59997558594
1352.12322452269	1291.19995117188
1352.77486553979	1300.40002441406
1353.42642259344	1306.19995117188
1354.07789569122	1313.40002441406
1354.72928484072	1320
1355.38059004953	1319.40002441406
1356.03181132525	1326.40002441406
1356.68294867545	1319.59997558594
1357.33400210773	1325.80004882813
1357.98497162968	1329.19995117188
1358.63585724889	1324.19995117188
1359.28665897294	1346.59997558594
1359.93737680942	1347
1360.58801076591	1338.19995117188
1361.23856085001	1352.40002441406
1361.88902706929	1367.80004882813
1362.53940943135	1357.59997558594
1363.18970794377	1358.40002441406
1363.83992261413	1341
1364.49005345003	1348.80004882813
1365.14010045904	1340.40002441406
1365.79006364874	1336.19995117188
1366.43994302673	1334.40002441406
1367.08973860058	1337.80004882813
1367.73945037788	1329.59997558594
1368.38907836621	1318.19995117188
1369.03862257315	1315.40002441406
1369.68808300629	1305
1370.3374596732	1292.40002441406
1370.98675258148	1292.80004882813
1371.63596173868	1286.80004882813
1372.28508715241	1278.40002441406
1372.93412883024	1280.40002441406
1373.58308677974	1269.59997558594
1374.2319610085	1273.19995117188
1374.8807515241	1278.19995117188
1375.52945833412	1275.19995117188
1376.17808144612	1282.80004882813
1376.82662086771	1280
1377.47507660644	1268.59997558594
1378.12344866989	1264.80004882813
1378.77173706565	1268.40002441406
1379.41994180129	1267.40002441406
1380.06806288439	1253
1380.71610032252	1259
1381.36405412326	1259.40002441406
1382.01192429419	1253.80004882813
1382.65971084287	1251.40002441406
1383.30741377688	1255.59997558594
1383.95503310381	1257.59997558594
1384.60256883121	1246.80004882813
1385.25002096667	1247
1385.89738951775	1241
1386.54467449204	1246.80004882813
1387.19187589709	1259.19995117188
1387.8389937405	1262
1388.48602802982	1268.40002441406
1389.13297877262	1267.40002441406
1389.77984597649	1274
1390.42662964899	1248.59997558594
1391.07332979768	1259.59997558594
1391.71994643015	1257.19995117188
1392.36647955395	1247.40002441406
1393.01292917667	1256.40002441406
1393.65929530586	1265
1394.3055779491	1258
1394.95177711395	1256.19995117188
1395.59789280799	1249.40002441406
1396.24392503877	1248.40002441406
1396.88987381387	1253
1397.53573914086	1249
1398.1815210273	1250
1398.82721948075	1253.19995117188
1399.47283450878	1243.40002441406
1400.11836611897	1239.59997558594
1400.76381431886	1233.40002441406
1401.40917911603	1242.19995117188
1402.05446051805	1225.40002441406
1402.69965853247	1228.40002441406
1403.34477316686	1233
1403.98980442878	1229.59997558594
1404.6347523258	1231.19995117188
1405.27961686548	1236.59997558594
1405.92439805538	1232.40002441406
1406.56909590306	1231.19995117188
1407.21371041608	1234.40002441406
1407.85824160202	1228.19995117188
1408.50268946841	1235.40002441406
1409.14705402284	1233.59997558594
1409.79133527285	1233
1410.43553322601	1243
1411.07964788987	1242.80004882813
1411.723679272	1240
1412.36762737996	1247.80004882813
1413.01149222129	1242.59997558594
1413.65527380357	1239
1414.29897213435	1240.40002441406
1414.94258722118	1241.40002441406
1415.58611907163	1254.40002441406
1416.22956769325	1250.19995117188
1416.87293309359	1256.40002441406
1417.51621528021	1252.19995117188
1418.15941426067	1254.40002441406
1418.80253004253	1250.80004882813
1419.44556263333	1253.59997558594
1420.08851204063	1260.40002441406
1420.731378272	1258
1421.37416133497	1263.40002441406
1422.0168612371	1247.59997558594
1422.65947798596	1239
1423.30201158908	1250
1423.94446205403	1243.59997558594
1424.58682938835	1239.59997558594
1425.2291135996	1246
1425.87131469532	1245.80004882813
1426.51343268308	1244.59997558594
1427.15546757042	1262.19995117188
1427.79741936488	1257.19995117188
1428.43928807403	1257.40002441406
1429.0810737054	1254.80004882813
1429.72277626656	1256.59997558594
1430.36439576504	1246
1431.00593220841	1251.19995117188
1431.64738560419	1250.19995117188
1432.28875595995	1256.59997558594
1432.93004328324	1240.19995117188
1433.57124758159	1241.80004882813
1434.21236886255	1243.80004882813
1434.85340713368	1258.19995117188
1435.49436240252	1250.59997558594
1436.13523467661	1257.40002441406
1436.77602396349	1247
1437.41673027073	1252.40002441406
1438.05735360585	1247.19995117188
1438.69789397641	1238
1439.33835138994	1248
1439.978725854	1247.19995117188
1440.61901737612	1244.59997558594
1441.25922596385	1244.59997558594
1441.89935162473	1237.59997558594
1442.53939436631	1240.59997558594
1443.17935419612	1245.19995117188
1443.81923112171	1239.19995117188
1444.45902515061	1245.40002441406
1445.09873629038	1250.19995117188
1445.73836454854	1244.19995117188
1446.37790993265	1244.80004882813
1447.01737245024	1248.80004882813
1447.65675210885	1242.80004882813
1448.29604891602	1236.40002441406
1448.93526287928	1235.59997558594
1449.57439400618	1239.59997558594
1450.21344230426	1238.59997558594
1450.85240778105	1241
1451.49129044409	1242
1452.13009030092	1238.19995117188
1452.76880735907	1231.80004882813
1453.40744162608	1238.40002441406
1454.04599310949	1235.19995117188
1454.68446181683	1233
1455.32284775564	1238
1455.96115093345	1241.59997558594
1456.5993713578	1226.40002441406
1457.23750903623	1238.59997558594
1457.87556397626	1232.59997558594
1458.51353618543	1240
1459.15142567127	1230.59997558594
1459.78923244132	1231.59997558594
1460.42695650311	1232.19995117188
1461.06459786417	1246.59997558594
1461.70215653203	1244.40002441406
1462.33963251423	1248.40002441406
1462.97702581829	1240.19995117188
1463.61433645175	1242.59997558594
1464.25156442214	1249
1464.88870973699	1250
1465.52577240382	1245.40002441406
1466.16275243017	1250.59997558594
1466.79964982356	1242.19995117188
1467.43646459154	1244.19995117188
1468.07319674161	1232.80004882813
1468.70984628132	1241.19995117188
1469.34641321818	1241.40002441406
1469.98289755974	1243.80004882813
1470.6192993135	1238.19995117188
1471.25561848701	1227.40002441406
1471.89185508779	1226.59997558594
1472.52800912336	1230.59997558594
1473.16408060124	1229.59997558594
1473.80006952897	1230
1474.43597591407	1238.80004882813
1475.07179976406	1241.80004882813
1475.70754108647	1240
1476.34319988883	1234.40002441406
1476.97877617865	1235.80004882813
1477.61426996345	1240.19995117188
1478.24968125077	1241.59997558594
1478.88501004812	1242
1479.52025636303	1231
1480.15542020302	1231
1480.79050157561	1239.59997558594
1481.42550048832	1237.19995117188
1482.06041694867	1229.19995117188
1482.69525096418	1236
1483.33000254237	1231.19995117188
1483.96467169077	1225
1484.59925841689	1219.19995117188
1485.23376272825	1217.40002441406
1485.86818463237	1234.80004882813
1486.50252413677	1235.59997558594
1487.13678124896	1242.40002441406
1487.77095597646	1239.59997558594
1488.4050483268	1244.80004882813
1489.03905830749	1250.80004882813
1489.67298592604	1244.40002441406
1490.30683118996	1250.40002441406
1490.9405941068	1257.19995117188
1491.57427468403	1254.19995117188
1492.2078729292	1250.19995117188
1492.84138884981	1249.40002441406
1493.47482245338	1244.40002441406
1494.10817374742	1241.19995117188
1494.74144273944	1250.80004882813
1495.37462943696	1237
1496.0077338475	1255.40002441406
1496.64075597856	1254
1497.27369583765	1242.19995117188
1497.9065534323	1240
1498.53932877001	1244.40002441406
1499.17202185829	1251.19995117188
1499.80463270465	1251.19995117188
1500.43716131661	1260.59997558594
1501.06960770167	1254.80004882813
1501.70197186735	1261.80004882813
1502.33425382116	1257.40002441406
1502.96645357059	1255.80004882813
1503.59857112317	1255.19995117188
1504.23060648641	1248
1504.8625596678	1253
1505.49443067486	1248.19995117188
1506.1262195151	1246.19995117188
1506.75792619602	1248.80004882813
1507.38955072513	1249.59997558594
1508.02109310993	1253.19995117188
1508.65255335794	1255.19995117188
1509.28393147666	1248.80004882813
1509.91522747359	1248.59997558594
1510.54644135624	1254.80004882813
1511.17757313212	1249.59997558594
1511.80862280872	1234.40002441406
1512.43959039356	1240.80004882813
1513.07047589413	1239.80004882813
1513.70127931795	1242.40002441406
1514.33200067251	1252.40002441406
1514.96263996531	1251.19995117188
1515.59319720386	1243.40002441406
1516.22367239567	1247.59997558594
1516.85406554822	1237.40002441406
1517.48437666903	1245.59997558594
1518.1146057656	1236.40002441406
1518.74475284542	1229.59997558594
1519.374817916	1222.19995117188
1520.00480098483	1220
1520.63470205942	1227.80004882813
1521.26452114726	1222.80004882813
1521.89425825586	1218.19995117188
1522.52391339271	1226.19995117188
1523.15348656531	1231.80004882813
1523.78297778116	1224.19995117188
1524.41238704775	1211.40002441406
1525.04171437259	1228.59997558594
1525.67095976317	1215.59997558594
1526.30012322699	1225.19995117188
1526.92920477154	1226.80004882813
1527.55820440432	1221.19995117188
1528.18712213283	1229.80004882813
1528.81595796455	1233.80004882813
1529.44471190699	1218.19995117188
1530.07338396764	1225.19995117188
1530.70197415399	1230.40002441406
1531.33048247353	1225.59997558594
1531.95890893377	1225.40002441406
1532.58725354219	1220
1533.21551630629	1217.80004882813
1533.84369723356	1225.59997558594
1534.47179633148	1225
1535.09981360757	1226.80004882813
1535.72774906929	1228
1536.35560272415	1229.59997558594
1536.98337457963	1226.80004882813
1537.61106464323	1220.19995117188
1538.23867292243	1223.80004882813
1538.86619942473	1218.59997558594
1539.49364415762	1223.80004882813
1540.12100712857	1220.80004882813
1540.74828834509	1213.40002441406
1541.37548781466	1225.19995117188
1542.00260554478	1231
1542.62964154291	1215.59997558594
1543.25659581655	1223.40002441406
1543.8834683732	1219.80004882813
1544.51025922034	1222.19995117188
1545.13696836544	1217.59997558594
1545.76359581601	1211.40002441406
1546.39014157952	1210.19995117188
1547.01660566345	1206.80004882813
1547.64298807531	1208.80004882813
1548.26928882255	1203.80004882813
1548.89550791269	1204
1549.52164535318	1203.40002441406
1550.14770115153	1210.40002441406
1550.77367531521	1201.40002441406
1551.39956785171	1205
1552.0253787685	1207.40002441406
1552.65110807307	1205.40002441406
1553.2767557729	1200.19995117188
1553.90232187548	1207.19995117188
1554.52780638828	1195.19995117188
1555.15320931879	1195.40002441406
1555.77853067447	1192.59997558594
1556.40377046282	1190.80004882813
1557.02892869132	1190
1557.65400536744	1184.40002441406
1558.27900049866	1181.19995117188
1558.90391409247	1191.80004882813
1559.52874615633	1196.19995117188
1560.15349669773	1186.80004882813
1560.77816572414	1194.59997558594
1561.40275324305	1188.19995117188
1562.02725926192	1198.59997558594
1562.65168378824	1189.40002441406
1563.27602682948	1200
1563.90028839311	1192.80004882813
1564.52446848662	1203
1565.14856711748	1204.40002441406
1565.77258429316	1212.59997558594
1566.39652002113	1214.19995117188
1567.02037430887	1206.40002441406
1567.64414716387	1207.19995117188
1568.26783859357	1217.80004882813
1568.89144860547	1199
1569.51497720703	1194.59997558594
1570.13842440573	1181.80004882813
1570.76179020904	1177.59997558594
1571.38507462442	1180
1572.00827765936	1181
1572.63139932132	1179
1573.25443961777	1185.59997558594
1573.87739855618	1196.19995117188
1574.50027614402	1205.59997558594
1575.12307238877	1209
1575.74578729789	1218.40002441406
1576.36842087885	1220.19995117188
1576.99097313912	1219.40002441406
1577.61344408616	1214
1578.23583372745	1203.19995117188
1578.85814207046	1201
1579.48036912264	1201.59997558594
1580.10251489147	1186
1580.72457938441	1196.19995117188
1581.34656260893	1189.40002441406
1581.9684645725	1187.40002441406
1582.59028528258	1185.40002441406
1583.21202474663	1186.59997558594
1583.83368297212	1186.40002441406
1584.45525996652	1191
1585.07675573728	1185.59997558594
1585.69817029188	1183.80004882813
1586.31950363778	1181.19995117188
1586.94075578243	1173
1587.5619267333	1167
1588.18301649786	1164.59997558594
1588.80402508357	1170.19995117188
1589.42495249788	1171.19995117188
1590.04579874826	1178.19995117188
1590.66656384217	1169.59997558594
1591.28724778707	1170.19995117188
1591.90785059042	1169.80004882813
1592.52837225968	1167.40002441406
1593.14881280232	1166.40002441406
1593.76917222578	1175.19995117188
1594.38945053753	1182
1595.00964774502	1185.19995117188
1595.62976385573	1176
1596.24979887709	1179.59997558594
1596.86975281657	1173.40002441406
1597.48962568164	1178.19995117188
1598.10941747974	1165.19995117188
1598.72912821832	1173
1599.34875790486	1178.19995117188
1599.9683065468	1171
1600.58777415159	1166
1601.2071607267	1177.80004882813
1601.82646627958	1175.59997558594
1602.44569081769	1171
1603.06483434846	1166
1603.68389687937	1168.19995117188
1604.30287841786	1158.19995117188
1604.92177897139	1165.19995117188
1605.54059854741	1165.19995117188
1606.15933715337	1166.19995117188
1606.77799479672	1165.40002441406
1607.39657148492	1170.40002441406
1608.01506722542	1170.40002441406
1608.63348202566	1168.19995117188
1609.2518158931	1166
1609.87006883519	1172.40002441406
1610.48824085939	1176.40002441406
1611.10633197312	1167.40002441406
1611.72434218386	1169.40002441406
1612.34227149904	1157.40002441406
1612.96011992612	1166
1613.57788747254	1164.19995117188
1614.19557414575	1151
1614.8131799532	1154.59997558594
1615.43070490234	1161
1616.04814900061	1161.40002441406
1616.66551225545	1163.19995117188
1617.28279467433	1152.80004882813
1617.89999626467	1154
1618.51711703393	1155.59997558594
1619.13415698955	1155.59997558594
1619.75111613898	1162
1620.36799448966	1162.40002441406
1620.98479204903	1161.40002441406
1621.60150882455	1170.80004882813
1622.21814482364	1169.80004882813
1622.83470005376	1180.19995117188
1623.45117452235	1176.40002441406
1624.06756823685	1169.40002441406
1624.6838812047	1176.40002441406
1625.30011343335	1178.19995117188
1625.91626493022	1178
1626.53233570278	1177
1627.14832575845	1176
1627.76423510468	1173.19995117188
1628.38006374891	1172.40002441406
1628.99581169857	1173
1629.61147896111	1170.19995117188
1630.22706554397	1167.40002441406
1630.84257145457	1160.59997558594
1631.45799670038	1151
1632.07334128881	1150.80004882813
1632.6886052273	1142.40002441406
1633.3037885233	1154.80004882813
1633.91889118425	1150.80004882813
1634.53391321757	1142.59997558594
1635.1488546307	1145.80004882813
1635.76371543108	1144
1636.37849562616	1141.40002441406
1636.99319522335	1138.59997558594
1637.60781423009	1145.80004882813
1638.22235265383	1143.40002441406
1638.83681050198	1141.19995117188
1639.451187782	1139
1640.0654845013	1135.80004882813
1640.67970066734	1146.80004882813
1641.29383628752	1144.80004882813
1641.9078913693	1147.59997558594
1642.5218659201	1152.59997558594
1643.13575994735	1151.59997558594
1643.74957345849	1143
1644.36330646094	1149.59997558594
1644.97695896213	1150.59997558594
1645.59053096951	1158.59997558594
1646.20402249049	1163
1646.8174335325	1170.80004882813
1647.43076410298	1159.19995117188
1648.04401420935	1157.19995117188
1648.65718385905	1155
1649.2702730595	1158.80004882813
1649.88328181812	1163.80004882813
1650.49621014236	1160.19995117188
1651.10905803963	1157.40002441406
1651.72182551735	1162.19995117188
1652.33451258297	1160
1652.9471192439	1154.19995117188
1653.55964550757	1154.19995117188
1654.1720913814	1154.19995117188
1654.78445687283	1138.19995117188
1655.39674198926	1122.80004882813
1656.00894673814	1114.19995117188
1656.62107112688	1122.59997558594
1657.23311516291	1117.59997558594
1657.84507885365	1119
1658.45696220652	1129.59997558594
1659.06876522895	1120
1659.68048792835	1117
1660.29213031217	1113.59997558594
1660.90369238779	1119.59997558594
1661.51517416267	1117.19995117188
1662.12657564421	1113.19995117188
1662.73789683984	1106
1663.34913775697	1109.19995117188
1663.96029840303	1102.19995117188
1664.57137878544	1101.40002441406
1665.18237891161	1100.80004882813
1665.79329878897	1103.80004882813
1666.40413842493	1097.19995117188
1667.01489782691	1106.59997558594
1667.62557700233	1105
1668.2361759586	1102
1668.84669470315	1097.59997558594
1669.4571332434	1100.80004882813
1670.06749158675	1098.59997558594
1670.67776974062	1094
1671.28796771243	1093.80004882813
1671.8980855096	1090.59997558594
1672.50812313954	1099
1673.11808060967	1094.59997558594
1673.72795792739	1095.40002441406
1674.33775510013	1091.80004882813
1674.9474721353	1098.19995117188
1675.55710904031	1105.19995117188
1676.16666582257	1094.40002441406
1676.7761424895	1099.80004882813
1677.38553904851	1102.59997558594
1677.99485550702	1093.19995117188
1678.60409187243	1092.40002441406
1679.21324815215	1088.59997558594
1679.8223243536	1083.80004882813
1680.43132048419	1090.40002441406
1681.04023655132	1096.40002441406
1681.64907256241	1092.80004882813
1682.25782852487	1096.80004882813
1682.86650444611	1086.40002441406
1683.47510033353	1091.40002441406
1684.08361619455	1079.40002441406
1684.69205203657	1080.59997558594
1685.300407867	1081.40002441406
1685.90868369325	1078.59997558594
1686.51687952272	1074.59997558594
1687.12499536283	1065.40002441406
1687.73303122098	1065.40002441406
1688.34098710457	1060.59997558594
1688.94886302101	1055
1689.55665897772	1061.40002441406
1690.16437498208	1070.19995117188
1690.77201104152	1066.80004882813
1691.37956716342	1071
1691.9870433552	1077
1692.59443962426	1082.59997558594
1693.20175597801	1073
1693.80899242384	1083.19995117188
1694.41614896916	1070
1695.02322562138	1071
1695.63022238789	1068.19995117188
1696.23713927609	1062
1696.8439762934	1064
1697.4507334472	1068.40002441406
1698.05741074491	1063.40002441406
1698.66400819391	1065
1699.27052580161	1063
1699.87696357542	1065.40002441406
1700.48332152272	1061.40002441406
1701.08959965092	1070.19995117188
1701.69579796742	1066
1702.30191647962	1065.19995117188
1702.90795519491	1059.80004882813
1703.51391412069	1061.80004882813
1704.11979326437	1066
1704.72559263332	1069.40002441406
1705.33131223496	1061.19995117188
1705.93695207668	1062.59997558594
1706.54251216588	1061.40002441406
1707.14799250994	1058.59997558594
1707.75339311628	1060
1708.35871399227	1054.80004882813
1708.96395514532	1058.19995117188
1709.56911658282	1059
