634.948122577771	1173.40002441406
635.690341530823	1169.19995117188
636.43246851086	1168.19995117188
637.174503525845	1178.19995117188
637.916446583745	1176.40002441406
638.658297692538	1181.19995117188
639.400056860179	1172.59997558594
640.141724094637	1173.40002441406
640.883299403885	1164
641.62478279588	1160.59997558594
642.366174278594	1153.40002441406
643.107473859989	1153.59997558594
643.848681548029	1157.59997558594
644.589797350679	1164
645.330821275901	1157.80004882813
646.071753331665	1159.80004882813
646.812593525922	1165.59997558594
647.553341866646	1164
648.293998361798	1175.40002441406
649.03456301933	1176.80004882813
649.775035847216	1174.59997558594
650.515416853409	1177.19995117188
651.255706045874	1180
651.995903432568	1182.19995117188
652.736009021453	1176.19995117188
653.476022820486	1180.19995117188
654.215944837629	1181.59997558594
654.955775080842	1175.19995117188
655.695513558081	1183.80004882813
656.435160277301	1168
657.174715246465	1173.19995117188
657.914178473527	1167.59997558594
658.653549966449	1171.80004882813
659.392829733176	1167.80004882813
660.132017781678	1173
660.871114119901	1174.40002441406
661.610118755803	1164.19995117188
662.349031697343	1171.59997558594
663.087852952468	1165
663.826582529139	1165
664.565220435305	1185
665.30376667892	1177.40002441406
666.04222126794	1170.19995117188
666.780584210316	1179.80004882813
667.518855514	1186.80004882813
668.25703518694	1183.19995117188
668.995123237096	1191.80004882813
669.733119672413	1189.59997558594
670.471024500842	1185.59997558594
671.208837730333	1189.19995117188
671.946559368839	1177.40002441406
672.684189424308	1175.59997558594
673.421727904689	1180.80004882813
674.159174817929	1188.80004882813
674.896530171977	1202.80004882813
675.633793974786	1200
676.370966234295	1199.59997558594
677.108046958461	1190.59997558594
677.845036155219	1197.40002441406
678.581933832528	1181.80004882813
679.318739998323	1184.40002441406
680.055454660558	1188.19995117188
680.792077827172	1186.19995117188
681.528609506116	1188.80004882813
682.265049705331	1183.40002441406
683.001398432759	1196.59997558594
683.737655696349	1193.40002441406
684.47382150404	1190
685.20989586378	1191.80004882813
685.945878783503	1176.19995117188
686.68177027116	1188.40002441406
687.417570334688	1183.80004882813
688.153278982032	1191.59997558594
688.888896221129	1183.19995117188
689.624422059921	1181
690.359856506349	1184.19995117188
691.095199568354	1184.59997558594
691.830451253874	1190
692.565611570844	1182.80004882813
693.300680527212	1180.19995117188
694.03565813091	1191
694.770544389877	1193.80004882813
695.505339312053	1194
696.240042905372	1186.19995117188
696.974655177772	1195
697.70917613719	1191.80004882813
698.443605791561	1188.59997558594
699.177944148826	1186.40002441406
699.912191216909	1190.59997558594
700.646347003755	1193
701.380411517295	1199.19995117188
702.114384765465	1202.19995117188
702.848266756195	1197.59997558594
703.582057497421	1204
704.315756997074	1192.19995117188
705.049365263089	1195.59997558594
705.782882303399	1182.80004882813
706.516308125936	1192.59997558594
707.249642738626	1198.19995117188
707.982886149403	1190
708.716038366204	1193.40002441406
709.449099396949	1197.19995117188
710.182069249577	1190.40002441406
710.914947932009	1200.80004882813
711.647735452181	1190.40002441406
712.380431818022	1204
713.113037037454	1203.19995117188
713.845551118411	1201.59997558594
714.577974068818	1188
715.310305896604	1203.40002441406
716.042546609694	1186.40002441406
716.774696216013	1191
717.506754723493	1192
718.238722140053	1192.40002441406
718.970598473624	1202
719.702383732127	1190.19995117188
720.43407792349	1194
721.165681055634	1199.80004882813
721.897193136486	1195.19995117188
722.628614173966	1200
723.359944175997	1201
724.091183150505	1204.59997558594
724.822331105412	1194.59997558594
725.553388048638	1190.19995117188
726.284353988106	1199.80004882813
727.015228931734	1192.80004882813
727.746012887449	1194.80004882813
728.476705863162	1199.80004882813
729.207307866803	1194
729.937818906289	1187.59997558594
730.668238989535	1190.19995117188
731.398568124459	1195.80004882813
732.128806318986	1191.80004882813
732.858953581034	1194.19995117188
733.589009918514	1187.80004882813
734.318975339348	1177.59997558594
735.048849851452	1182.19995117188
735.778633462744	1196.40002441406
736.508326181137	1191.59997558594
737.237928014549	1191.19995117188
737.967438970897	1197.40002441406
738.696859058095	1200.19995117188
739.426188284054	1206.59997558594
740.155426656692	1209
740.884574183922	1200.59997558594
741.613630873659	1202.40002441406
742.342596733815	1209.19995117188
743.071471772302	1200.40002441406
743.800255997034	1205.40002441406
744.528949415921	1195.19995117188
745.257552036877	1189.19995117188
745.986063867811	1181.19995117188
746.714484916638	1188.80004882813
747.442815191261	1186.59997558594
748.171054699597	1194.19995117188
748.899203449554	1194.80004882813
749.627261449039	1197.80004882813
750.355228705966	1188.40002441406
751.083105228239	1200.40002441406
751.810891023765	1194
752.538586100459	1186.40002441406
753.266190466218	1192.59997558594
753.99370412896	1182.80004882813
754.721127096582	1183.80004882813
755.448459377	1182.59997558594
756.175700978114	1185.80004882813
756.902851907828	1197
757.629912174055	1196.40002441406
758.356881784688	1192.80004882813
759.083760747639	1198.40002441406
759.810549070817	1199
760.537246762113	1199.59997558594
761.263853829442	1202.80004882813
761.990370280698	1208.40002441406
762.716796123791	1209.80004882813
763.443131366618	1209.59997558594
764.169376017082	1215
764.895530083085	1221.59997558594
765.621593572527	1223.19995117188
766.347566493312	1217.59997558594
767.073448853336	1232.19995117188
767.799240660502	1236
768.524941922707	1259.19995117188
769.250552647854	1261.80004882813
769.976072843836	1260.19995117188
770.701502518551	1264
771.426841679905	1269.40002441406
772.152090335793	1266.40002441406
772.877248494107	1258.59997558594
773.602316162747	1268.59997558594
774.327293349609	1262.59997558594
775.052180062592	1264.19995117188
775.776976309589	1264.80004882813
776.501682098496	1262
777.226297437206	1257.19995117188
777.950822333616	1260.59997558594
778.675256795621	1247.59997558594
779.399600831111	1256
780.123854447983	1236.59997558594
780.84801765413	1240.19995117188
781.572090457441	1231.19995117188
782.296072865811	1239
783.019964887131	1217.59997558594
783.743766529297	1214.19995117188
784.467477800194	1226.80004882813
785.191098707719	1219.59997558594
785.914629259756	1206.40002441406
786.638069464194	1214.80004882813
787.361419328932	1200.80004882813
788.084678861852	1206
788.807848070845	1198.80004882813
789.530926963798	1203.40002441406
790.253915548602	1195
790.976813833144	1201.40002441406
791.699621825307	1197.80004882813
792.422339532986	1201.40002441406
793.144966964061	1198.19995117188
793.86750412642	1200.59997558594
794.589951027946	1191.59997558594
795.312307676536	1187.40002441406
796.03457408006	1208.59997558594
796.756750246417	1209.40002441406
797.478836183477	1212.80004882813
798.200831899137	1204.19995117188
798.92273740127	1206.80004882813
799.644552697769	1196.80004882813
800.36627779651	1191
801.087912705374	1194.19995117188
801.809457432251	1181.19995117188
802.530911985017	1184.40002441406
803.252276371558	1190.80004882813
803.973550599748	1195.59997558594
804.694734677472	1192.19995117188
805.415828612611	1194.59997558594
806.136832413045	1197.80004882813
806.857746086646	1186.40002441406
807.578569641305	1194.40002441406
808.299303084892	1190.40002441406
809.019946425289	1200
809.740499670372	1199
810.460962828022	1204.19995117188
811.181335906114	1222.40002441406
811.901618912524	1209.40002441406
812.621811855131	1215.59997558594
813.341914741809	1206
814.061927580433	1216.80004882813
814.781850378881	1208.40002441406
815.501683145025	1209.59997558594
816.221425886743	1219.19995117188
816.941078611903	1210.40002441406
817.660641328387	1213.40002441406
818.380114044065	1205.80004882813
819.099496766808	1214.59997558594
819.818789504492	1211.80004882813
820.53799226499	1201.40002441406
821.257105056168	1207.40002441406
821.976127885904	1202.19995117188
822.695060762064	1205
823.413903692525	1209
824.132656685151	1211.80004882813
824.851319747817	1201.19995117188
825.569892888388	1202.40002441406
826.288376114739	1205.19995117188
827.006769434737	1216
827.725072856249	1211.40002441406
828.443286387142	1205.19995117188
829.161410035285	1199.80004882813
829.87944380855	1212.19995117188
830.597387714798	1211.19995117188
831.315241761898	1210
832.033005957715	1210.80004882813
832.750680310119	1207.19995117188
833.468264826969	1203.80004882813
834.18575951614	1209.59997558594
834.903164385486	1198.40002441406
835.620479442878	1208.59997558594
836.337704696181	1191.40002441406
837.054840153255	1200.80004882813
837.771885821962	1192.59997558594
838.488841710172	1194
839.20570782574	1199.19995117188
839.922484176531	1191.59997558594
840.639170770409	1187.59997558594
841.355767615231	1189.19995117188
842.072274718864	1196.19995117188
842.788692089164	1180
843.505019733993	1189
844.221257661209	1189.80004882813
844.937405878676	1188
845.65346439425	1186.19995117188
846.369433215789	1184.80004882813
847.085312351156	1192.80004882813
847.801101808205	1193.19995117188
848.516801594793	1194.40002441406
849.232411718781	1194.59997558594
849.947932188021	1189.40002441406
850.663363010376	1197.40002441406
851.378704193698	1190
852.093955745842	1203.40002441406
852.809117674669	1196.80004882813
853.524189988028	1201.19995117188
854.239172693778	1196
854.954065799768	1196.59997558594
855.668869313857	1198.19995117188
856.383583243899	1197.80004882813
857.098207597743	1204
857.812742383246	1202.40002441406
858.527187608255	1198.40002441406
859.241543280628	1207.40002441406
859.955809408218	1194.80004882813
860.669985998868	1199.40002441406
861.384073060437	1196.59997558594
862.098070600772	1195.19995117188
862.811978627724	1193.59997558594
863.52579714914	1194.80004882813
864.239526172873	1190.40002441406
864.953165706776	1198
865.666715758687	1208.59997558594
866.380176336464	1199.59997558594
867.093547447951	1194.40002441406
867.806829100996	1184.80004882813
868.520021303444	1186.80004882813
869.233124063149	1193
869.94613738795	1181
870.659061285693	1189
871.37189576423	1192.40002441406
872.084640831403	1207
872.797296495057	1207.19995117188
873.509862763039	1205
874.22233964319	1203
874.934727143353	1206.80004882813
875.647025271374	1207.80004882813
876.359234035097	1195.80004882813
877.071353442361	1201.80004882813
877.783383501015	1191.80004882813
878.495324218895	1194.40002441406
879.207175603844	1196.59997558594
879.918937663705	1191.59997558594
880.630610406318	1198.40002441406
881.342193839524	1191.59997558594
882.053687971161	1192.59997558594
882.765092809069	1197.80004882813
883.476408361091	1185.40002441406
884.187634635066	1190.80004882813
884.898771638828	1198.59997558594
885.609819380221	1200.40002441406
886.320777867076	1202.40002441406
887.031647107236	1204.40002441406
887.742427108536	1196.59997558594
888.453117878816	1206
889.16371942591	1196.19995117188
889.874231757652	1196.40002441406
890.584654881883	1190.59997558594
891.294988806434	1188.80004882813
892.005233539141	1190.19995117188
892.715389087837	1194
893.42545546036	1192
894.135432664543	1196
894.845320708216	1197
895.555119599216	1196.19995117188
896.264829345375	1195
896.974449954526	1195.59997558594
897.683981434496	1198.19995117188
898.393423793125	1190.19995117188
899.102777038235	1196.80004882813
899.812041177664	1198
900.521216219239	1201.19995117188
901.230302170793	1191.59997558594
901.939299040155	1186.59997558594
902.64820683515	1189.80004882813
903.357025563612	1194.19995117188
904.065755233368	1188.80004882813
904.774395852247	1193
905.482947428076	1187
906.191409968682	1195.40002441406
906.899783481897	1196.19995117188
907.608067975538	1190.40002441406
908.316263457443	1191.19995117188
909.02436993543	1193.40002441406
909.732387417327	1197
910.440315910959	1200
911.148155424154	1197.59997558594
911.855905964731	1193
912.563567540521	1202.40002441406
913.271140159339	1200.40002441406
913.978623829017	1199.19995117188
914.686018557374	1195
915.393324352237	1194
916.100541221421	1199.40002441406
916.807669172752	1199.40002441406
917.514708214054	1206
918.221658353142	1201.19995117188
918.928519597843	1207.59997558594
919.635291955976	1205.19995117188
920.341975435358	1206.40002441406
921.048570043813	1199
921.75507578916	1196
922.461492679212	1186.59997558594
923.167820721795	1185
923.874059924726	1182
924.58021029582	1193.19995117188
925.286271842893	1198
925.992244573769	1192.59997558594
926.698128496262	1186.40002441406
927.403923618184	1181
928.109629947355	1185
928.815247491593	1181.19995117188
929.520776258708	1192.80004882813
930.226216256519	1192.59997558594
930.931567492841	1206
931.636829975482	1197.19995117188
932.342003712263	1196.40002441406
933.047088710995	1193
933.752084979491	1192.19995117188
934.456992525564	1193.40002441406
935.161811357024	1187.80004882813
935.866541481688	1193
936.571182907363	1193.19995117188
937.275735641861	1197.19995117188
937.980199692995	1193.19995117188
938.684575068572	1195.80004882813
939.388861776411	1195.80004882813
940.093059824311	1186.40002441406
940.797169220085	1191
941.501189971544	1185
942.205122086495	1178.80004882813
942.908965572751	1180
943.612720438111	1178.59997558594
944.316386690391	1183
945.019964337391	1182.40002441406
945.723453386924	1183
946.426853846795	1178
947.130165724808	1187.40002441406
947.83338902877	1183
948.536523766488	1185.40002441406
949.239569945764	1178.59997558594
949.942527574402	1182.59997558594
950.64539666021	1197.19995117188
951.348177210993	1197.80004882813
952.050869234548	1193.59997558594
952.753472738683	1188.19995117188
953.455987731199	1181
954.158414219898	1177.59997558594
954.860752212587	1177.80004882813
955.563001717061	1188.40002441406
956.265162741124	1189.19995117188
956.967235292576	1180.59997558594
957.669219379224	1179.80004882813
958.371115008857	1168.80004882813
959.072922189283	1182
959.774640928301	1181.80004882813
960.476271233708	1179.80004882813
961.177813113301	1186.19995117188
961.879266574882	1183.40002441406
962.580631626248	1186.59997558594
963.281908275194	1169.40002441406
963.98309652952	1169.19995117188
964.684196397022	1172.19995117188
965.3852078855	1175.40002441406
966.086131002745	1171.40002441406
966.786965756555	1166.59997558594
967.487712154726	1166.40002441406
968.188370205055	1168.80004882813
968.888939915331	1184.40002441406
969.589421293352	1175.59997558594
970.289814346909	1180.19995117188
970.990119083801	1181.59997558594
971.690335511819	1175.80004882813
972.39046363875	1184
973.090503472398	1179
973.790455020545	1187.80004882813
974.490318290987	1183.40002441406
975.190093291516	1171.80004882813
975.889780029923	1181
976.589378513998	1192.19995117188
977.288888751527	1186.40002441406
977.988310750308	1183.19995117188
978.687644518122	1186.59997558594
979.386890062767	1178.40002441406
980.086047392025	1176.40002441406
980.785116513689	1172.80004882813
981.484097435542	1165
982.182990165377	1170.80004882813
982.88179471098	1170.40002441406
983.580511080137	1159.40002441406
984.279139280632	1167.19995117188
984.977679320253	1164.80004882813
985.67613120679	1163.59997558594
986.374494948027	1166.80004882813
987.072770551745	1168.40002441406
987.770958025731	1177.40002441406
988.469057377772	1179
989.167068615649	1182.80004882813
989.864991747145	1184.40002441406
990.562826780047	1189.80004882813
991.260573722134	1180.40002441406
991.958232581195	1178.40002441406
992.655803365003	1182.80004882813
993.353286081346	1177.59997558594
994.050680738006	1174.40002441406
994.74798734276	1176
995.44520590339	1174.80004882813
996.142336427681	1171.59997558594
996.839378923407	1180
997.536333398348	1185.19995117188
998.233199860289	1180.59997558594
998.929978317004	1177.19995117188
999.626668776274	1183.80004882813
1000.32327124587	1180.80004882813
1001.01978573359	1177.80004882813
1001.71621224718	1179.19995117188
1002.41255079445	1188.59997558594
1003.10880138315	1184.19995117188
1003.80496402107	1181
1004.50103871599	1187.80004882813
1005.19702547567	1178.19995117188
1005.8929243079	1173.40002441406
1006.58873522045	1175.40002441406
1007.2844582211	1183.59997558594
1007.98009331761	1185.40002441406
1008.67564051776	1181.59997558594
1009.37109982933	1188.80004882813
1010.06647126009	1180.59997558594
1010.7617548178	1185.80004882813
1011.45695051026	1190.80004882813
1012.15205834522	1188.40002441406
1012.84707833045	1190
1013.54201047373	1189.40002441406
1014.23685478284	1189
1014.93161126553	1199.40002441406
1015.62627992959	1195.59997558594
1016.32086078277	1187.40002441406
1017.01535383285	1189.19995117188
1017.70975908761	1184.80004882813
1018.40407655479	1175.80004882813
1019.09830624219	1174.80004882813
1019.79244815755	1179.80004882813
1020.48650230866	1184.80004882813
1021.18046870328	1185.59997558594
1021.87434734917	1192.80004882813
1022.56813825411	1176.59997558594
1023.26184142584	1176.59997558594
1023.95545687216	1179.19995117188
1024.64898460082	1168.40002441406
1025.34242461957	1168.19995117188
1026.0357769362	1162
1026.72904155846	1166.19995117188
1027.42221849412	1184.40002441406
1028.11530775094	1178
1028.80830933668	1180.59997558594
1029.50122325911	1183.19995117188
1030.19404952599	1184.59997558594
1030.88678814508	1172.80004882813
1031.57943912414	1175.19995117188
1032.27200247093	1184.40002441406
1032.96447819323	1173.19995117188
1033.65686629878	1163.40002441406
1034.34916679534	1175.80004882813
1035.04137969068	1174.19995117188
1035.73350499256	1172.40002441406
1036.42554270874	1180.80004882813
1037.11749284697	1186
1037.80935541501	1183.40002441406
1038.50113042062	1174
1039.19281787156	1181.19995117188
1039.88441777559	1182.80004882813
1040.57593014046	1174.59997558594
1041.26735497393	1173.40002441406
1041.95869228376	1169.80004882813
1042.6499420777	1182
1043.3411043635	1184
1044.03217914893	1176.59997558594
1044.72316644174	1177.59997558594
1045.41406624968	1180.59997558594
1046.1048785805	1172
1046.79560344197	1172.19995117188
1047.48624084182	1173.40002441406
1048.17679078783	1173.40002441406
1048.86725328774	1172
1049.55762834929	1177
1050.24791598025	1172
1050.93811618837	1169.40002441406
1051.62822898139	1160
1052.31825436707	1154.59997558594
1053.00819235315	1159.59997558594
1053.6980429474	1164.80004882813
1054.38780615755	1163.59997558594
1055.07748199136	1170.19995117188
1055.76707045658	1164.40002441406
1056.45657156095	1168
1057.14598531222	1160.80004882813
1057.83531171814	1172
1058.52455078646	1165.80004882813
1059.21370252494	1169.19995117188
1059.90276694129	1164.40002441406
1060.5917440433	1166.40002441406
1061.28063383868	1169.80004882813
1061.9694363352	1170.19995117188
1062.65815154059	1166.19995117188
1063.34677946261	1161.59997558594
1064.03532010899	1165.40002441406
1064.72377348748	1168.59997558594
1065.41213960583	1167.40002441406
1066.10041847177	1160.80004882813
1066.78861009306	1165.40002441406
1067.47671447743	1163.80004882813
1068.16473163263	1163.59997558594
1068.85266156639	1156.80004882813
1069.54050428647	1163.80004882813
1070.2282598006	1154.59997558594
1070.91592811652	1155.40002441406
1071.60350924198	1163
1072.29100318471	1165
1072.97840995245	1163.80004882813
1073.66572955295	1161.40002441406
1074.35296199394	1160.40002441406
1075.04010728316	1169.80004882813
1075.72716542836	1157.40002441406
1076.41413643726	1164
1077.10102031761	1162.59997558594
1077.78781707715	1162
1078.4745267236	1169.59997558594
1079.16114926471	1159.59997558594
1079.84768470822	1164
1080.53413306185	1164.80004882813
1081.22049433336	1169.19995117188
1081.90676853046	1161.59997558594
1082.5929556609	1176.80004882813
1083.27905573241	1173.19995117188
1083.96506875272	1169.59997558594
1084.65099472957	1170.80004882813
1085.3368336707	1171.40002441406
1086.02258558383	1171.80004882813
1086.70825047669	1171
1087.39382835703	1168.40002441406
1088.07931923257	1157
1088.76472311104	1166.80004882813
1089.45004000018	1166.59997558594
1090.13526990771	1162
1090.82041284137	1172
1091.50546880889	1170
1092.19043781799	1174.80004882813
1092.87531987642	1175
1093.56011499188	1169.40002441406
1094.24482317212	1166
1094.92944442486	1161.40002441406
1095.61397875783	1168.80004882813
1096.29842617876	1163
1096.98278669537	1164.80004882813
1097.6670603154	1165
1098.35124704656	1164
1099.03534689659	1153.19995117188
1099.71935987322	1169.19995117188
1100.40328598416	1167.19995117188
1101.08712523713	1166.40002441406
1101.77087763988	1160
1102.45454320012	1159.40002441406
1103.13812192557	1163.19995117188
1103.82161382396	1159
1104.50501890301	1157.59997558594
1105.18833717045	1163.19995117188
1105.87156863399	1156.40002441406
1106.55471330137	1164.59997558594
1107.2377711803	1168.80004882813
1107.9207422785	1168
1108.60362660369	1165.40002441406
1109.2864241636	1173.19995117188
1109.96913496594	1164.40002441406
1110.65175901844	1163.59997558594
1111.33429632882	1169.40002441406
1112.01674690479	1172
1112.69911075408	1160.40002441406
1113.38138788439	1158.40002441406
1114.06357830346	1172.19995117188
1114.745682019	1160.59997558594
1115.42769903872	1163
1116.10962937035	1155.40002441406
1116.7914730216	1165.19995117188
1117.47323000018	1158
1118.15490031382	1165.80004882813
1118.83648397022	1155.80004882813
1119.51798097712	1149.80004882813
1120.1993913422	1160.59997558594
1120.88071507321	1157.40002441406
1121.56195217784	1163.19995117188
1122.24310266381	1163.80004882813
1122.92416653884	1166.80004882813
1123.60514381064	1178.19995117188
1124.28603448692	1176
1124.9668385754	1171
1125.64755608378	1173.59997558594
1126.32818701978	1171
1127.00873139111	1171.19995117188
1127.68918920548	1168.80004882813
1128.3695604706	1167
1129.04984519419	1158.80004882813
1129.73004338394	1165.59997558594
1130.41015504758	1174
1131.09018019281	1169.19995117188
1131.77011882734	1184.40002441406
1132.44997095888	1174
1133.12973659514	1177.80004882813
1133.80941574381	1173
1134.48900841263	1169
1135.16851460927	1167.19995117188
1135.84793434147	1169
1136.52726761692	1165.80004882813
1137.20651444333	1167.80004882813
1137.8856748284	1169.40002441406
1138.56474877984	1161.40002441406
1139.24373630536	1160.40002441406
1139.92263741265	1165
1140.60145210943	1169
1141.28018040339	1167.80004882813
1141.95882230225	1171.59997558594
1142.6373778137	1168.19995117188
1143.31584694545	1154.19995117188
1143.99422970519	1158.40002441406
1144.67252610064	1149.80004882813
1145.35073613949	1155.80004882813
1146.02885982944	1147.40002441406
1146.7068971782	1143.80004882813
1147.38484819347	1145.80004882813
1148.06271288294	1142.19995117188
1148.74049125432	1153.59997558594
1149.41818331531	1146.59997558594
1150.0957890736	1143.80004882813
1150.77330853689	1144.80004882813
1151.45074171289	1148.80004882813
1152.12808860928	1151.59997558594
1152.80534923378	1148.40002441406
1153.48252359407	1145.59997558594
1154.15961169786	1145.80004882813
1154.83661355283	1150.59997558594
1155.51352916669	1147
1156.19035854713	1153.19995117188
1156.86710170185	1157
1157.54375863855	1155.40002441406
1158.22032936491	1164.80004882813
1158.89681388863	1158.80004882813
1159.57321221741	1159
1160.24952435894	1167.40002441406
1160.92575032092	1157
1161.60189011103	1160.40002441406
1162.27794373697	1166.40002441406
1162.95391120644	1163.19995117188
1163.62979252712	1162
1164.3055877067	1165
1164.98129675288	1154.40002441406
1165.65691967336	1162
1166.33245647581	1161.80004882813
1167.00790716792	1150.19995117188
1167.6832717574	1142.19995117188
1168.35855025193	1157.80004882813
1169.0337426592	1158.19995117188
1169.70884898689	1156.19995117188
1170.3838692427	1150.40002441406
1171.05880343431	1157
1171.73365156941	1155.19995117188
1172.40841365569	1161.19995117188
1173.08308970083	1153.59997558594
1173.75767971253	1156
1174.43218369847	1152.40002441406
1175.10660166633	1162
1175.7809336238	1156
1176.45517957857	1166.80004882813
1177.12933953832	1173.40002441406
1177.80341351073	1176
1178.47740150349	1169.59997558594
1179.15130352429	1172.40002441406
1179.8251195808	1174.59997558594
1180.49884968071	1171.59997558594
1181.1724938317	1168.80004882813
1181.84605204145	1180.19995117188
1182.51952431766	1169.40002441406
1183.19291066799	1178.19995117188
1183.86621110013	1161.40002441406
1184.53942562176	1175.80004882813
1185.21255424057	1178
1185.88559696422	1175
1186.55855380041	1169.59997558594
1187.2314247568	1177.59997558594
1187.90420984109	1179
1188.57690906095	1168.40002441406
1189.24952242405	1162
1189.92204993808	1173.40002441406
1190.59449161071	1171.19995117188
1191.26684744962	1162.59997558594
1191.93911746249	1158.80004882813
1192.61130165699	1169
1193.28340004081	1163.59997558594
1193.95541262161	1167
1194.62733940707	1165.59997558594
1195.29918040487	1157.59997558594
1195.97093562269	1161.40002441406
1196.64260506819	1161.40002441406
1197.31418874905	1171.80004882813
1197.98568667295	1164.80004882813
1198.65709884755	1162.59997558594
1199.32842528053	1162.59997558594
1199.99966597957	1159
1200.67082095234	1154.59997558594
1201.3418902065	1163.19995117188
1202.01287374974	1162.59997558594
1202.68377158971	1157.59997558594
1203.3545837341	1161.40002441406
1204.02531019057	1150.80004882813
1204.6959509668	1141.80004882813
1205.36650607045	1141
1206.03697550919	1146.80004882813
1206.70735929069	1153.59997558594
1207.37765742263	1158.59997558594
1208.04786991266	1148.59997558594
1208.71799676846	1143.80004882813
1209.38803799769	1148
1210.05799360803	1139.59997558594
1210.72786360714	1134.19995117188
1211.39764800268	1135.19995117188
1212.06734680233	1134.59997558594
1212.73696001375	1143
1213.4064876446	1133.19995117188
1214.07592970255	1141.80004882813
1214.74528619526	1146
1215.4145571304	1140
1216.08374251564	1140.80004882813
1216.75284235863	1140.40002441406
1217.42185666704	1139.40002441406
1218.09078544854	1150.59997558594
1218.75962871078	1149
1219.42838646143	1150
1220.09705870816	1147.80004882813
1220.76564545861	1144.40002441406
1221.43414672046	1142.80004882813
1222.10256250136	1141.19995117188
1222.77089280898	1137.59997558594
1223.43913765098	1135.19995117188
1224.107297035	1133
1224.77537096873	1127.19995117188
1225.44335945981	1138
1226.1112625159	1132.80004882813
1226.77908014467	1133.80004882813
1227.44681235376	1133.40002441406
1228.11445915085	1141.40002441406
1228.78202054357	1140.19995117188
1229.44949653961	1138.40002441406
1230.11688714659	1135.19995117188
1230.7841923722	1132
1231.45141222407	1138.80004882813
1232.11854670988	1141.40002441406
1232.78559583726	1151.80004882813
1233.45255961388	1146.59997558594
1234.1194380474	1141.19995117188
1234.78623114546	1133
1235.45293891572	1133.40002441406
1236.11956136583	1141
1236.78609850345	1130
1237.45255033623	1128
1238.11891687182	1131.40002441406
1238.78519811788	1132
1239.45139408205	1129
1240.11750477198	1125.40002441406
1240.78353019534	1136.59997558594
1241.44947035976	1135.59997558594
1242.11532527291	1130.80004882813
1242.78109494242	1135.19995117188
1243.44677937595	1130.80004882813
1244.11237858115	1131.80004882813
1244.77789256567	1138.19995117188
1245.44332133715	1130.19995117188
1246.10866490325	1130.40002441406
1246.7739232716	1132.40002441406
1247.43909644987	1129
1248.10418444569	1126.59997558594
1248.76918726671	1128.40002441406
1249.43410492059	1135
1250.09893741496	1132
1250.76368475747	1134.19995117188
1251.42834695576	1128.19995117188
1252.09292401749	1131.59997558594
1252.75741595029	1138.59997558594
1253.42182276182	1141.80004882813
1254.08614445971	1137.80004882813
1254.75038105161	1130.80004882813
1255.41453254515	1132.19995117188
1256.07859894799	1127
1256.74258026777	1128
1257.40647651213	1128.40002441406
1258.0702876887	1129.40002441406
1258.73401380514	1132.40002441406
1259.39765486908	1127.59997558594
1260.06121088817	1120.80004882813
1260.72468187004	1131.19995117188
1261.38806782233	1125.40002441406
1262.05136875269	1118.59997558594
1262.71458466875	1125.59997558594
1263.37771557815	1138.80004882813
1264.04076148854	1127.80004882813
1264.70372240753	1142.59997558594
1265.3665983428	1132.80004882813
1266.02938930195	1144.19995117188
1266.69209529263	1138.80004882813
1267.35471632249	1136.19995117188
1268.01725239914	1127.19995117188
1268.67970353024	1131.19995117188
1269.34206972342	1139
1270.00435098631	1131
1270.66654732655	1140.40002441406
1271.32865875177	1139
1271.9906852696	1142.40002441406
1272.65262688768	1140.59997558594
1273.31448361365	1140
1273.97625545514	1134.40002441406
1274.63794241978	1133
1275.2995445152	1132
1275.96106174903	1135.19995117188
1276.62249412892	1142
1277.28384166248	1152
1277.94510435735	1146.40002441406
1278.60628222116	1139.40002441406
1279.26737526155	1141.19995117188
1279.92838348613	1149
1280.58930690255	1134.19995117188
1281.25014551842	1142.80004882813
1281.91089934139	1139
1282.57156837907	1133.40002441406
1283.2321526391	1125.19995117188
1283.89265212911	1130.19995117188
1284.55306685671	1132.80004882813
1285.21339682955	1132.59997558594
1285.87364205525	1128.19995117188
1286.53380254142	1128.80004882813
1287.19387829571	1123.19995117188
1287.85386932573	1112.19995117188
1288.51377563911	1121.80004882813
1289.17359724348	1131.59997558594
1289.83333414646	1135
1290.49298635567	1125.80004882813
1291.15255387874	1132
1291.8120367233	1133.80004882813
1292.47143489696	1122.59997558594
1293.13074840736	1127.40002441406
1293.7899772621	1136.19995117188
1294.44912146882	1140.19995117188
1295.10818103513	1138
1295.76715596866	1135.40002441406
1296.42604627704	1135.80004882813
1297.08485196787	1144.59997558594
1297.74357304878	1134
1298.4022095274	1136.19995117188
1299.06076141134	1129.40002441406
1299.71922870821	1133.19995117188
1300.37761142565	1140.40002441406
1301.03590957126	1145.59997558594
1301.69412315268	1140
1302.3522521775	1141.80004882813
1303.01029665336	1140.40002441406
1303.66825658787	1140
1304.32613198865	1143.80004882813
1304.98392286332	1137
1305.64162921948	1139.59997558594
1306.29925106476	1139
1306.95678840677	1147.19995117188
1307.61424125312	1144.80004882813
1308.27160961145	1139
1308.92889348934	1147.59997558594
1309.58609289443	1143.19995117188
1310.24320783432	1144.59997558594
1310.90023831664	1149.59997558594
1311.55718434898	1146.80004882813
1312.21404593897	1166.19995117188
1312.87082309421	1159.59997558594
1313.52751582233	1158.80004882813
1314.18412413092	1158
1314.84064802761	1149
1315.49708752	1161.19995117188
1316.1534426157	1168.19995117188
1316.80971332233	1165.59997558594
1317.46589964749	1157.80004882813
1318.1220015988	1150.80004882813
1318.77801918386	1157.40002441406
1319.43395241028	1151.59997558594
1320.08980128567	1153.19995117188
1320.74556581764	1148.59997558594
1321.4012460138	1150.80004882813
1322.05684188176	1145.59997558594
1322.71235342911	1158.40002441406
1323.36778066347	1154.80004882813
1324.02312359245	1154
1324.67838222365	1145.40002441406
1325.33355656468	1144
1325.98864662314	1135.40002441406
1326.64365240663	1131.40002441406
1327.29857392277	1136.40002441406
1327.95341117915	1130
1328.60816418339	1133.19995117188
1329.26283294308	1129.40002441406
1329.91741746582	1132.40002441406
1330.57191775923	1130.19995117188
1331.2263338309	1131.80004882813
1331.88066568843	1133.59997558594
1332.53491333943	1142.19995117188
1333.1890767915	1134
1333.84315605224	1136.19995117188
1334.49715112925	1130.59997558594
1335.15106203013	1137.40002441406
1335.80488876249	1131.59997558594
1336.45863133391	1138.80004882813
1337.112289752	1123.80004882813
1337.76586402437	1129.80004882813
1338.4193541586	1136.19995117188
1339.0727601623	1137.80004882813
1339.72608204306	1134.59997558594
1340.37931980849	1137.40002441406
1341.03247346617	1135
1341.68554302372	1134.19995117188
1342.33852848871	1141
1342.99142986876	1137.80004882813
1343.64424717145	1136.80004882813
1344.29698040438	1133.80004882813
1344.94962957515	1140.19995117188
1345.60219469135	1138.59997558594
1346.25467576058	1143.59997558594
1346.90707279042	1145.59997558594
1347.55938578848	1151.80004882813
1348.21161476235	1159
1348.86375971962	1157.80004882813
1349.51582066787	1143.40002441406
1350.16779761472	1146.80004882813
1350.81969056774	1150.80004882813
1351.47149953453	1153
1352.12322452269	1157.59997558594
1352.77486553979	1160
1353.42642259344	1157.80004882813
1354.07789569122	1159.40002441406
1354.72928484072	1178.59997558594
1355.38059004953	1170.40002441406
1356.03181132525	1168.59997558594
1356.68294867545	1172.40002441406
1357.33400210773	1179
1357.98497162968	1171.80004882813
1358.63585724889	1178.80004882813
1359.28665897294	1178.40002441406
1359.93737680942	1183.40002441406
1360.58801076591	1174.80004882813
1361.23856085001	1173.40002441406
1361.88902706929	1181.19995117188
1362.53940943135	1184.59997558594
1363.18970794377	1189
1363.83992261413	1182.19995117188
1364.49005345003	1175.59997558594
1365.14010045904	1168.59997558594
1365.79006364874	1157.19995117188
1366.43994302673	1161.40002441406
1367.08973860058	1159
1367.73945037788	1163
1368.38907836621	1166.80004882813
1369.03862257315	1154
1369.68808300629	1145
1370.3374596732	1145.80004882813
1370.98675258148	1149.40002441406
1371.63596173868	1149
1372.28508715241	1153.19995117188
1372.93412883024	1143.19995117188
1373.58308677974	1142.80004882813
1374.2319610085	1134
1374.8807515241	1128
1375.52945833412	1127.40002441406
1376.17808144612	1119.59997558594
1376.82662086771	1130.40002441406
1377.47507660644	1126.59997558594
1378.12344866989	1121.80004882813
1378.77173706565	1126.19995117188
1379.41994180129	1123.19995117188
1380.06806288439	1126.19995117188
1380.71610032252	1125.59997558594
1381.36405412326	1121
1382.01192429419	1122
1382.65971084287	1124
1383.30741377688	1119.59997558594
1383.95503310381	1120.59997558594
1384.60256883121	1120.19995117188
1385.25002096667	1129.80004882813
1385.89738951775	1138.59997558594
1386.54467449204	1128.19995117188
1387.19187589709	1136.19995117188
1387.8389937405	1129.80004882813
1388.48602802982	1129
1389.13297877262	1131.19995117188
1389.77984597649	1127.19995117188
1390.42662964899	1119.19995117188
1391.07332979768	1123.80004882813
1391.71994643015	1110.59997558594
1392.36647955395	1111.80004882813
1393.01292917667	1111.80004882813
1393.65929530586	1113
1394.3055779491	1107
1394.95177711395	1112.40002441406
1395.59789280799	1105.40002441406
1396.24392503877	1112.19995117188
1396.88987381387	1109.59997558594
1397.53573914086	1112.59997558594
1398.1815210273	1116.80004882813
1398.82721948075	1116.80004882813
1399.47283450878	1123.40002441406
1400.11836611897	1121
1400.76381431886	1115.80004882813
1401.40917911603	1117
1402.05446051805	1121
1402.69965853247	1116.19995117188
1403.34477316686	1112
1403.98980442878	1111.19995117188
1404.6347523258	1115.80004882813
1405.27961686548	1105.40002441406
1405.92439805538	1117.19995117188
1406.56909590306	1107.40002441406
1407.21371041608	1109.59997558594
1407.85824160202	1108.80004882813
1408.50268946841	1120.40002441406
1409.14705402284	1116.80004882813
1409.79133527285	1109.59997558594
1410.43553322601	1105.80004882813
1411.07964788987	1110.59997558594
1411.723679272	1111.40002441406
1412.36762737996	1107.40002441406
1413.01149222129	1114.19995117188
1413.65527380357	1105.80004882813
1414.29897213435	1100
1414.94258722118	1097.40002441406
1415.58611907163	1107.19995117188
1416.22956769325	1108.80004882813
1416.87293309359	1108.80004882813
1417.51621528021	1112.19995117188
1418.15941426067	1104
1418.80253004253	1107.19995117188
1419.44556263333	1106.40002441406
1420.08851204063	1106.40002441406
1420.731378272	1098.59997558594
1421.37416133497	1100
1422.0168612371	1108.59997558594
1422.65947798596	1107
1423.30201158908	1104
1423.94446205403	1109.59997558594
1424.58682938835	1105.40002441406
1425.2291135996	1102.40002441406
1425.87131469532	1116.80004882813
1426.51343268308	1119.40002441406
1427.15546757042	1121.40002441406
1427.79741936488	1128.19995117188
1428.43928807403	1122
1429.0810737054	1122.19995117188
1429.72277626656	1119.40002441406
1430.36439576504	1127.40002441406
1431.00593220841	1113.59997558594
1431.64738560419	1118
1432.28875595995	1111.59997558594
1432.93004328324	1121.80004882813
1433.57124758159	1118.19995117188
1434.21236886255	1114
1434.85340713368	1108
1435.49436240252	1121
1436.13523467661	1122
1436.77602396349	1123.59997558594
1437.41673027073	1122.40002441406
1438.05735360585	1121.80004882813
1438.69789397641	1124.40002441406
1439.33835138994	1116.59997558594
1439.978725854	1115.59997558594
1440.61901737612	1114.80004882813
1441.25922596385	1120.59997558594
1441.89935162473	1116.59997558594
1442.53939436631	1121
1443.17935419612	1121
1443.81923112171	1124.40002441406
1444.45902515061	1122.40002441406
1445.09873629038	1126.59997558594
1445.73836454854	1123
1446.37790993265	1122.59997558594
1447.01737245024	1110.80004882813
1447.65675210885	1109
1448.29604891602	1126.19995117188
1448.93526287928	1114.19995117188
1449.57439400618	1106.80004882813
1450.21344230426	1110.80004882813
1450.85240778105	1112.80004882813
1451.49129044409	1108
1452.13009030092	1108.59997558594
1452.76880735907	1107.80004882813
1453.40744162608	1111
1454.04599310949	1115
1454.68446181683	1100.59997558594
1455.32284775564	1106.80004882813
1455.96115093345	1111
1456.5993713578	1101.19995117188
1457.23750903623	1107.19995117188
1457.87556397626	1113.40002441406
1458.51353618543	1110.19995117188
1459.15142567127	1116
1459.78923244132	1107.80004882813
1460.42695650311	1109.40002441406
1461.06459786417	1106.19995117188
1461.70215653203	1107.40002441406
1462.33963251423	1111.80004882813
1462.97702581829	1099.80004882813
1463.61433645175	1095.40002441406
1464.25156442214	1091.59997558594
1464.88870973699	1098.59997558594
1465.52577240382	1095.80004882813
1466.16275243017	1103.59997558594
1466.79964982356	1109.40002441406
1467.43646459154	1101.80004882813
1468.07319674161	1102.80004882813
1468.70984628132	1095
1469.34641321818	1099.19995117188
1469.98289755974	1111.40002441406
1470.6192993135	1100.40002441406
1471.25561848701	1104.80004882813
1471.89185508779	1109
1472.52800912336	1111.40002441406
1473.16408060124	1107.80004882813
1473.80006952897	1106.40002441406
1474.43597591407	1108.59997558594
1475.07179976406	1107.40002441406
1475.70754108647	1111.59997558594
1476.34319988883	1110.19995117188
1476.97877617865	1109.40002441406
1477.61426996345	1101.40002441406
1478.24968125077	1099.80004882813
1478.88501004812	1102.19995117188
1479.52025636303	1107.59997558594
1480.15542020302	1091.59997558594
1480.79050157561	1105
1481.42550048832	1103.80004882813
1482.06041694867	1100
1482.69525096418	1101.19995117188
1483.33000254237	1104.59997558594
1483.96467169077	1094
1484.59925841689	1096
1485.23376272825	1095.59997558594
1485.86818463237	1095.80004882813
1486.50252413677	1105.19995117188
1487.13678124896	1106.59997558594
1487.77095597646	1113.40002441406
1488.4050483268	1100.59997558594
1489.03905830749	1110.59997558594
1489.67298592604	1112.40002441406
1490.30683118996	1115.19995117188
1490.9405941068	1105.80004882813
1491.57427468403	1105.59997558594
1492.2078729292	1110.19995117188
1492.84138884981	1109.40002441406
1493.47482245338	1118.59997558594
1494.10817374742	1109.40002441406
1494.74144273944	1109.40002441406
1495.37462943696	1105.80004882813
1496.0077338475	1109.59997558594
1496.64075597856	1106.59997558594
1497.27369583765	1119.59997558594
1497.9065534323	1122.19995117188
1498.53932877001	1114.80004882813
1499.17202185829	1114.19995117188
1499.80463270465	1125
1500.43716131661	1116.19995117188
1501.06960770167	1118
1501.70197186735	1106.40002441406
1502.33425382116	1116
1502.96645357059	1104.40002441406
1503.59857112317	1111.19995117188
1504.23060648641	1113.40002441406
1504.8625596678	1108.59997558594
1505.49443067486	1109.59997558594
1506.1262195151	1112
1506.75792619602	1117.80004882813
1507.38955072513	1122.59997558594
1508.02109310993	1119
1508.65255335794	1115.40002441406
1509.28393147666	1113.59997558594
1509.91522747359	1110
1510.54644135624	1110.40002441406
1511.17757313212	1108.40002441406
1511.80862280872	1118.59997558594
1512.43959039356	1122
1513.07047589413	1120.19995117188
1513.70127931795	1112
1514.33200067251	1107.19995117188
1514.96263996531	1107
1515.59319720386	1108.80004882813
1516.22367239567	1103.19995117188
1516.85406554822	1106.40002441406
1517.48437666903	1107
1518.1146057656	1106
1518.74475284542	1109.59997558594
1519.374817916	1119
1520.00480098483	1108
1520.63470205942	1109.80004882813
1521.26452114726	1104.59997558594
1521.89425825586	1110
1522.52391339271	1103.80004882813
1523.15348656531	1108.80004882813
1523.78297778116	1108.59997558594
1524.41238704775	1111.59997558594
1525.04171437259	1112
1525.67095976317	1110
1526.30012322699	1109
1526.92920477154	1100
1527.55820440432	1103
1528.18712213283	1098.19995117188
1528.81595796455	1099.80004882813
1529.44471190699	1095.59997558594
1530.07338396764	1091.40002441406
1530.70197415399	1089.19995117188
1531.33048247353	1096.40002441406
1531.95890893377	1095.80004882813
1532.58725354219	1100.80004882813
1533.21551630629	1094.59997558594
1533.84369723356	1094.59997558594
1534.47179633148	1098
1535.09981360757	1099.40002441406
1535.72774906929	1092.59997558594
1536.35560272415	1093.80004882813
1536.98337457963	1089.59997558594
1537.61106464323	1093.59997558594
1538.23867292243	1087.59997558594
1538.86619942473	1088.19995117188
1539.49364415762	1088.59997558594
1540.12100712857	1089.40002441406
1540.74828834509	1087.40002441406
1541.37548781466	1082.59997558594
1542.00260554478	1085.59997558594
1542.62964154291	1085.59997558594
1543.25659581655	1095
1543.8834683732	1093
1544.51025922034	1088.80004882813
1545.13696836544	1086.59997558594
1545.76359581601	1085.19995117188
1546.39014157952	1084.80004882813
1547.01660566345	1079
1547.64298807531	1085
1548.26928882255	1083.59997558594
1548.89550791269	1083
1549.52164535318	1090.59997558594
1550.14770115153	1087
1550.77367531521	1085.40002441406
1551.39956785171	1086
1552.0253787685	1087.80004882813
1552.65110807307	1078
1553.2767557729	1080.40002441406
1553.90232187548	1077.19995117188
1554.52780638828	1074.19995117188
1555.15320931879	1075
1555.77853067447	1064.59997558594
1556.40377046282	1060.59997558594
1557.02892869132	1072.19995117188
1557.65400536744	1069
1558.27900049866	1071.80004882813
1558.90391409247	1080
1559.52874615633	1078
1560.15349669773	1083.80004882813
1560.77816572414	1089
1561.40275324305	1087
1562.02725926192	1085.19995117188
1562.65168378824	1091.80004882813
1563.27602682948	1086.19995117188
1563.90028839311	1087.59997558594
1564.52446848662	1096.80004882813
1565.14856711748	1096.40002441406
1565.77258429316	1090
1566.39652002113	1089.19995117188
1567.02037430887	1092.40002441406
1567.64414716387	1102.19995117188
1568.26783859357	1101.19995117188
1568.89144860547	1096.59997558594
1569.51497720703	1096
1570.13842440573	1091.19995117188
1570.76179020904	1089.59997558594
1571.38507462442	1095.40002441406
1572.00827765936	1087
1572.63139932132	1094.80004882813
1573.25443961777	1090.19995117188
1573.87739855618	1096
1574.50027614402	1089.59997558594
1575.12307238877	1092
1575.74578729789	1093.59997558594
1576.36842087885	1096.80004882813
1576.99097313912	1091.40002441406
1577.61344408616	1086.80004882813
1578.23583372745	1082.59997558594
1578.85814207046	1078.40002441406
1579.48036912264	1071.80004882813
1580.10251489147	1077
1580.72457938441	1061.59997558594
1581.34656260893	1070.59997558594
1581.9684645725	1079.19995117188
1582.59028528258	1069.19995117188
1583.21202474663	1073.19995117188
1583.83368297212	1067
1584.45525996652	1074.80004882813
1585.07675573728	1067
1585.69817029188	1065
1586.31950363778	1060.59997558594
1586.94075578243	1064.59997558594
1587.5619267333	1052.59997558594
1588.18301649786	1056.59997558594
1588.80402508357	1056.80004882813
1589.42495249788	1062.80004882813
1590.04579874826	1063.19995117188
1590.66656384217	1059.59997558594
1591.28724778707	1068.59997558594
1591.90785059042	1063.40002441406
1592.52837225968	1061.19995117188
1593.14881280232	1065.40002441406
1593.76917222578	1068
1594.38945053753	1058.80004882813
1595.00964774502	1065.59997558594
1595.62976385573	1065
1596.24979887709	1060.19995117188
1596.86975281657	1062.40002441406
1597.48962568164	1058.80004882813
1598.10941747974	1064.19995117188
1598.72912821832	1059.19995117188
1599.34875790486	1063
1599.9683065468	1064
1600.58777415159	1062.40002441406
1601.2071607267	1061.80004882813
1601.82646627958	1057
1602.44569081769	1061.80004882813
1603.06483434846	1062.40002441406
1603.68389687937	1066.40002441406
1604.30287841786	1064.19995117188
1604.92177897139	1057
1605.54059854741	1060.80004882813
1606.15933715337	1063.80004882813
1606.77799479672	1055.40002441406
1607.39657148492	1054.80004882813
1608.01506722542	1060.19995117188
1608.63348202566	1062
1609.2518158931	1052.59997558594
1609.87006883519	1055
1610.48824085939	1055
1611.10633197312	1052
1611.72434218386	1061.19995117188
1612.34227149904	1062.19995117188
1612.96011992612	1058
1613.57788747254	1050.19995117188
1614.19557414575	1052.80004882813
1614.8131799532	1057.40002441406
1615.43070490234	1052.19995117188
1616.04814900061	1053.19995117188
1616.66551225545	1055.19995117188
1617.28279467433	1051.80004882813
1617.89999626467	1054.59997558594
1618.51711703393	1050.80004882813
1619.13415698955	1052.40002441406
1619.75111613898	1058.80004882813
1620.36799448966	1060
1620.98479204903	1060.19995117188
1621.60150882455	1059.40002441406
1622.21814482364	1061.80004882813
1622.83470005376	1061.40002441406
1623.45117452235	1063.19995117188
1624.06756823685	1057.80004882813
1624.6838812047	1060
1625.30011343335	1059.80004882813
1625.91626493022	1052.80004882813
1626.53233570278	1056
1627.14832575845	1047.59997558594
1627.76423510468	1047.80004882813
1628.38006374891	1051.59997558594
1628.99581169857	1055.19995117188
1629.61147896111	1053
1630.22706554397	1060.59997558594
1630.84257145457	1048.80004882813
1631.45799670038	1050.19995117188
1632.07334128881	1050.80004882813
1632.6886052273	1052
1633.3037885233	1052.19995117188
1633.91889118425	1046.59997558594
1634.53391321757	1046
1635.1488546307	1047
1635.76371543108	1045.80004882813
1636.37849562616	1042.19995117188
1636.99319522335	1048.59997558594
1637.60781423009	1050.19995117188
1638.22235265383	1050.40002441406
1638.83681050198	1045.80004882813
1639.451187782	1046.59997558594
1640.0654845013	1047.59997558594
1640.67970066734	1051.40002441406
1641.29383628752	1048
1641.9078913693	1052
1642.5218659201	1055.80004882813
1643.13575994735	1048.80004882813
1643.74957345849	1054.19995117188
1644.36330646094	1051.19995117188
1644.97695896213	1060.59997558594
1645.59053096951	1062
1646.20402249049	1056.80004882813
1646.8174335325	1058.40002441406
1647.43076410298	1055
1648.04401420935	1053.80004882813
1648.65718385905	1057.19995117188
1649.2702730595	1060.80004882813
1649.88328181812	1059.19995117188
1650.49621014236	1063.19995117188
1651.10905803963	1058.40002441406
1651.72182551735	1054.80004882813
1652.33451258297	1062
1652.9471192439	1057.80004882813
1653.55964550757	1059.19995117188
1654.1720913814	1045.40002441406
1654.78445687283	1043.19995117188
1655.39674198926	1043
1656.00894673814	1042.40002441406
1656.62107112688	1035.80004882813
1657.23311516291	1040
1657.84507885365	1028.80004882813
1658.45696220652	1033.59997558594
1659.06876522895	1031
1659.68048792835	1035.80004882813
1660.29213031217	1033.80004882813
1660.90369238779	1035.19995117188
1661.51517416267	1027.80004882813
1662.12657564421	1026.80004882813
1662.73789683984	1031.40002441406
1663.34913775697	1024.59997558594
1663.96029840303	1021.79998779297
1664.57137878544	1018.79998779297
1665.18237891161	1017.40002441406
1665.79329878897	1022.40002441406
1666.40413842493	1025
1667.01489782691	1020.20001220703
1667.62557700233	1022.20001220703
1668.2361759586	1019.40002441406
1668.84669470315	1021.79998779297
1669.4571332434	1017
1670.06749158675	1014
1670.67776974062	1023.20001220703
1671.28796771243	1022.20001220703
1671.8980855096	1023.79998779297
1672.50812313954	1019
1673.11808060967	1017.20001220703
1673.72795792739	1019.59997558594
1674.33775510013	1013
1674.9474721353	1017.40002441406
1675.55710904031	1010.79998779297
1676.16666582257	1011.59997558594
1676.7761424895	1008.40002441406
1677.38553904851	1012.20001220703
1677.99485550702	1012.79998779297
1678.60409187243	1007.79998779297
1679.21324815215	1011.59997558594
1679.8223243536	1009.79998779297
1680.43132048419	1014.59997558594
1681.04023655132	1010.40002441406
1681.64907256241	1003.40002441406
1682.25782852487	1006
1682.86650444611	1008.20001220703
1683.47510033353	1001
1684.08361619455	1001.59997558594
1684.69205203657	999.799987792969
1685.300407867	999.599975585938
1685.90868369325	1000.20001220703
1686.51687952272	1002.20001220703
1687.12499536283	1011.79998779297
1687.73303122098	1000
1688.34098710457	1002.20001220703
1688.94886302101	1009.59997558594
1689.55665897772	1012.79998779297
1690.16437498208	1009
1690.77201104152	1010.79998779297
1691.37956716342	1005
1691.9870433552	1005.20001220703
1692.59443962426	1003.20001220703
1693.20175597801	993.200012207031
1693.80899242384	1001.59997558594
1694.41614896916	999.400024414063
1695.02322562138	1001.40002441406
1695.63022238789	1000.59997558594
1696.23713927609	1001.20001220703
1696.8439762934	999.400024414063
1697.4507334472	1001
1698.05741074491	1005.20001220703
1698.66400819391	1006.59997558594
1699.27052580161	1008.20001220703
1699.87696357542	1010.40002441406
1700.48332152272	1009.79998779297
1701.08959965092	1008.79998779297
1701.69579796742	1006.59997558594
1702.30191647962	996
1702.90795519491	998
1703.51391412069	1001.20001220703
1704.11979326437	1002
1704.72559263332	998.799987792969
1705.33131223496	997.799987792969
1705.93695207668	995
1706.54251216588	998.599975585938
1707.14799250994	997.400024414063
1707.75339311628	991.799987792969
1708.35871399227	992
1708.96395514532	993.799987792969
1709.56911658282	982.799987792969
