634.948122577771	1127
635.690341530823	1127.80004882813
636.43246851086	1128
637.174503525845	1119.59997558594
637.916446583745	1110.40002441406
638.658297692538	1112.59997558594
639.400056860179	1112.19995117188
640.141724094637	1112.80004882813
640.883299403885	1108.59997558594
641.62478279588	1107.59997558594
642.366174278594	1105.19995117188
643.107473859989	1103.59997558594
643.848681548029	1106
644.589797350679	1108.80004882813
645.330821275901	1115.19995117188
646.071753331665	1109.80004882813
646.812593525922	1114.19995117188
647.553341866646	1111
648.293998361798	1106.40002441406
649.03456301933	1102
649.775035847216	1089.59997558594
650.515416853409	1091.59997558594
651.255706045874	1096.80004882813
651.995903432568	1109.40002441406
652.736009021453	1111.19995117188
653.476022820486	1104.40002441406
654.215944837629	1097.19995117188
654.955775080842	1118.19995117188
655.695513558081	1107
656.435160277301	1118.40002441406
657.174715246465	1120
657.914178473527	1120.19995117188
658.653549966449	1120
659.392829733176	1125.80004882813
660.132017781678	1120.19995117188
660.871114119901	1119.40002441406
661.610118755803	1122.59997558594
662.349031697343	1130.40002441406
663.087852952468	1120.40002441406
663.826582529139	1124.80004882813
664.565220435305	1121.59997558594
665.30376667892	1122
666.04222126794	1123.80004882813
666.780584210316	1122
667.518855514	1114
668.25703518694	1108.40002441406
668.995123237096	1113.80004882813
669.733119672413	1110.59997558594
670.471024500842	1118.80004882813
671.208837730333	1110.40002441406
671.946559368839	1115
672.684189424308	1124.59997558594
673.421727904689	1119.59997558594
674.159174817929	1126.40002441406
674.896530171977	1124.40002441406
675.633793974786	1128.59997558594
676.370966234295	1123.19995117188
677.108046958461	1124.19995117188
677.845036155219	1124
678.581933832528	1136.59997558594
679.318739998323	1138.59997558594
680.055454660558	1130.80004882813
680.792077827172	1133.59997558594
681.528609506116	1129.80004882813
682.265049705331	1128.80004882813
683.001398432759	1127.80004882813
683.737655696349	1131.19995117188
684.47382150404	1135.40002441406
685.20989586378	1130.80004882813
685.945878783503	1137.80004882813
686.68177027116	1134.59997558594
687.417570334688	1131.40002441406
688.153278982032	1137.40002441406
688.888896221129	1140
689.624422059921	1124.80004882813
690.359856506349	1122.59997558594
691.095199568354	1127.19995117188
691.830451253874	1122
692.565611570844	1124.80004882813
693.300680527212	1119.80004882813
694.03565813091	1125
694.770544389877	1128.40002441406
695.505339312053	1136.59997558594
696.240042905372	1138.19995117188
696.974655177772	1124.19995117188
697.70917613719	1126.80004882813
698.443605791561	1130.80004882813
699.177944148826	1128.40002441406
699.912191216909	1135.40002441406
700.646347003755	1126.40002441406
701.380411517295	1130.80004882813
702.114384765465	1120
702.848266756195	1128.40002441406
703.582057497421	1124.59997558594
704.315756997074	1122.80004882813
705.049365263089	1127.59997558594
705.782882303399	1124.40002441406
706.516308125936	1130.40002441406
707.249642738626	1135.59997558594
707.982886149403	1134.40002441406
708.716038366204	1144.59997558594
709.449099396949	1146
710.182069249577	1133.40002441406
710.914947932009	1142.40002441406
711.647735452181	1143.40002441406
712.380431818022	1138.59997558594
713.113037037454	1138.80004882813
713.845551118411	1134.40002441406
714.577974068818	1129.80004882813
715.310305896604	1127.59997558594
716.042546609694	1133
716.774696216013	1127.40002441406
717.506754723493	1125
718.238722140053	1123.19995117188
718.970598473624	1121
719.702383732127	1130.59997558594
720.43407792349	1126.59997558594
721.165681055634	1130.59997558594
721.897193136486	1131.19995117188
722.628614173966	1131.80004882813
723.359944175997	1131.19995117188
724.091183150505	1128.59997558594
724.822331105412	1126.19995117188
725.553388048638	1125.59997558594
726.284353988106	1135
727.015228931734	1148.80004882813
727.746012887449	1137.40002441406
728.476705863162	1121.59997558594
729.207307866803	1124.40002441406
729.937818906289	1117.40002441406
730.668238989535	1118.40002441406
731.398568124459	1130.59997558594
732.128806318986	1131.59997558594
732.858953581034	1129.40002441406
733.589009918514	1128
734.318975339348	1143.40002441406
735.048849851452	1135.80004882813
735.778633462744	1136.80004882813
736.508326181137	1143.40002441406
737.237928014549	1125.80004882813
737.967438970897	1130
738.696859058095	1123.40002441406
739.426188284054	1128
740.155426656692	1125.80004882813
740.884574183922	1128
741.613630873659	1122.19995117188
742.342596733815	1127.19995117188
743.071471772302	1132.40002441406
743.800255997034	1140.40002441406
744.528949415921	1134
745.257552036877	1136.19995117188
745.986063867811	1135.80004882813
746.714484916638	1134
747.442815191261	1122.59997558594
748.171054699597	1135.19995117188
748.899203449554	1140
749.627261449039	1135.59997558594
750.355228705966	1137
751.083105228239	1131.40002441406
751.810891023765	1133.19995117188
752.538586100459	1125.40002441406
753.266190466218	1136.80004882813
753.99370412896	1133.59997558594
754.721127096582	1142.80004882813
755.448459377	1142.40002441406
756.175700978114	1153.59997558594
756.902851907828	1158.19995117188
757.629912174055	1150.80004882813
758.356881784688	1145
759.083760747639	1132.19995117188
759.810549070817	1139.40002441406
760.537246762113	1138.80004882813
761.263853829442	1137.40002441406
761.990370280698	1151.19995117188
762.716796123791	1152.40002441406
763.443131366618	1152.80004882813
764.169376017082	1150.40002441406
764.895530083085	1155.19995117188
765.621593572527	1146.40002441406
766.347566493312	1162.40002441406
767.073448853336	1164.19995117188
767.799240660502	1160
768.524941922707	1164.19995117188
769.250552647854	1172.80004882813
769.976072843836	1168.19995117188
770.701502518551	1175.19995117188
771.426841679905	1186.19995117188
772.152090335793	1189.40002441406
772.877248494107	1188
773.602316162747	1186.80004882813
774.327293349609	1188
775.052180062592	1182.59997558594
775.776976309589	1182.80004882813
776.501682098496	1174
777.226297437206	1169.40002441406
777.950822333616	1177.59997558594
778.675256795621	1182.80004882813
779.399600831111	1177.19995117188
780.123854447983	1167.19995117188
780.84801765413	1168.19995117188
781.572090457441	1160.59997558594
782.296072865811	1150.19995117188
783.019964887131	1152.40002441406
783.743766529297	1154.19995117188
784.467477800194	1148
785.191098707719	1141.80004882813
785.914629259756	1154.40002441406
786.638069464194	1141
787.361419328932	1143.19995117188
788.084678861852	1152.40002441406
788.807848070845	1142.40002441406
789.530926963798	1145.80004882813
790.253915548602	1137.40002441406
790.976813833144	1135.59997558594
791.699621825307	1146
792.422339532986	1154.19995117188
793.144966964061	1146.19995117188
793.86750412642	1143
794.589951027946	1151.19995117188
795.312307676536	1134.40002441406
796.03457408006	1148.40002441406
796.756750246417	1141.59997558594
797.478836183477	1136
798.200831899137	1145
798.92273740127	1137
799.644552697769	1146.19995117188
800.36627779651	1141
801.087912705374	1140.19995117188
801.809457432251	1140.19995117188
802.530911985017	1142.19995117188
803.252276371558	1144
803.973550599748	1146.40002441406
804.694734677472	1150.59997558594
805.415828612611	1147.59997558594
806.136832413045	1147
806.857746086646	1153.19995117188
807.578569641305	1145.59997558594
808.299303084892	1145.19995117188
809.019946425289	1150
809.740499670372	1147.80004882813
810.460962828022	1143.80004882813
811.181335906114	1148.19995117188
811.901618912524	1139.40002441406
812.621811855131	1137
813.341914741809	1145.40002441406
814.061927580433	1137.40002441406
814.781850378881	1145.80004882813
815.501683145025	1131.59997558594
816.221425886743	1131.80004882813
816.941078611903	1131.59997558594
817.660641328387	1130.80004882813
818.380114044065	1134.59997558594
819.099496766808	1131.19995117188
819.818789504492	1128.19995117188
820.53799226499	1130.19995117188
821.257105056168	1135
821.976127885904	1136.40002441406
822.695060762064	1145.40002441406
823.413903692525	1144.80004882813
824.132656685151	1143.40002441406
824.851319747817	1132.19995117188
825.569892888388	1139.40002441406
826.288376114739	1141.59997558594
827.006769434737	1136.80004882813
827.725072856249	1133.19995117188
828.443286387142	1136
829.161410035285	1140.19995117188
829.87944380855	1136.40002441406
830.597387714798	1141.40002441406
831.315241761898	1135.19995117188
832.033005957715	1136.19995117188
832.750680310119	1133
833.468264826969	1135
834.18575951614	1133.40002441406
834.903164385486	1124.40002441406
835.620479442878	1131.80004882813
836.337704696181	1135.59997558594
837.054840153255	1135
837.771885821962	1137.59997558594
838.488841710172	1136.59997558594
839.20570782574	1147.19995117188
839.922484176531	1145.80004882813
840.639170770409	1142.80004882813
841.355767615231	1134
842.072274718864	1141.19995117188
842.788692089164	1150
843.505019733993	1147.80004882813
844.221257661209	1150.19995117188
844.937405878676	1138.59997558594
845.65346439425	1138.59997558594
846.369433215789	1136.59997558594
847.085312351156	1135.19995117188
847.801101808205	1146.40002441406
848.516801594793	1143.59997558594
849.232411718781	1134
849.947932188021	1139.59997558594
850.663363010376	1133
851.378704193698	1132
852.093955745842	1142.59997558594
852.809117674669	1140.40002441406
853.524189988028	1141.40002441406
854.239172693778	1127.40002441406
854.954065799768	1138
855.668869313857	1141.19995117188
856.383583243899	1138.40002441406
857.098207597743	1136.80004882813
857.812742383246	1131.19995117188
858.527187608255	1136.59997558594
859.241543280628	1132
859.955809408218	1131.80004882813
860.669985998868	1136.40002441406
861.384073060437	1140
862.098070600772	1131
862.811978627724	1132.59997558594
863.52579714914	1137.80004882813
864.239526172873	1137.40002441406
864.953165706776	1136.19995117188
865.666715758687	1134.80004882813
866.380176336464	1117.59997558594
867.093547447951	1126.80004882813
867.806829100996	1134.40002441406
868.520021303444	1131
869.233124063149	1136.80004882813
869.94613738795	1134
870.659061285693	1135.19995117188
871.37189576423	1136.59997558594
872.084640831403	1142.59997558594
872.797296495057	1152.19995117188
873.509862763039	1145.59997558594
874.22233964319	1144
874.934727143353	1145
875.647025271374	1140.59997558594
876.359234035097	1141.80004882813
877.071353442361	1137.80004882813
877.783383501015	1137
878.495324218895	1146.59997558594
879.207175603844	1151.19995117188
879.918937663705	1143.40002441406
880.630610406318	1134.40002441406
881.342193839524	1136.19995117188
882.053687971161	1143.40002441406
882.765092809069	1137
883.476408361091	1140.19995117188
884.187634635066	1139.40002441406
884.898771638828	1142.19995117188
885.609819380221	1143.40002441406
886.320777867076	1152.59997558594
887.031647107236	1145.80004882813
887.742427108536	1133.40002441406
888.453117878816	1130.19995117188
889.16371942591	1133.19995117188
889.874231757652	1123.40002441406
890.584654881883	1128
891.294988806434	1124
892.005233539141	1126.80004882813
892.715389087837	1124.40002441406
893.42545546036	1123.19995117188
894.135432664543	1118.19995117188
894.845320708216	1126.59997558594
895.555119599216	1116
896.264829345375	1129.19995117188
896.974449954526	1127.19995117188
897.683981434496	1129.59997558594
898.393423793125	1129.40002441406
899.102777038235	1136.19995117188
899.812041177664	1128.80004882813
900.521216219239	1138.80004882813
901.230302170793	1141
901.939299040155	1143
902.64820683515	1137.59997558594
903.357025563612	1147.40002441406
904.065755233368	1150.19995117188
904.774395852247	1146
905.482947428076	1157.80004882813
906.191409968682	1143
906.899783481897	1134.80004882813
907.608067975538	1143
908.316263457443	1127.59997558594
909.02436993543	1131.19995117188
909.732387417327	1132
910.440315910959	1139.19995117188
911.148155424154	1132.19995117188
911.855905964731	1134.40002441406
912.563567540521	1139.40002441406
913.271140159339	1137.59997558594
913.978623829017	1144.80004882813
914.686018557374	1139.59997558594
915.393324352237	1143.19995117188
916.100541221421	1124.59997558594
916.807669172752	1132
917.514708214054	1127.19995117188
918.221658353142	1138.59997558594
918.928519597843	1137.19995117188
919.635291955976	1133.19995117188
920.341975435358	1145.59997558594
921.048570043813	1141.40002441406
921.75507578916	1141.80004882813
922.461492679212	1140
923.167820721795	1136.59997558594
923.874059924726	1135.19995117188
924.58021029582	1133.59997558594
925.286271842893	1132.80004882813
925.992244573769	1134.80004882813
926.698128496262	1133.59997558594
927.403923618184	1139.19995117188
928.109629947355	1145.59997558594
928.815247491593	1137.19995117188
929.520776258708	1141.40002441406
930.226216256519	1139
930.931567492841	1143.80004882813
931.636829975482	1146.19995117188
932.342003712263	1148.59997558594
933.047088710995	1133.40002441406
933.752084979491	1132.59997558594
934.456992525564	1123
935.161811357024	1133
935.866541481688	1124.19995117188
936.571182907363	1121.80004882813
937.275735641861	1121
937.980199692995	1135.40002441406
938.684575068572	1127.80004882813
939.388861776411	1126.80004882813
940.093059824311	1121.19995117188
940.797169220085	1120
941.501189971544	1118.19995117188
942.205122086495	1121
942.908965572751	1123.40002441406
943.612720438111	1127.59997558594
944.316386690391	1126.80004882813
945.019964337391	1127.40002441406
945.723453386924	1127.80004882813
946.426853846795	1128.59997558594
947.130165724808	1127.19995117188
947.83338902877	1130.59997558594
948.536523766488	1123.40002441406
949.239569945764	1134.59997558594
949.942527574402	1128.40002441406
950.64539666021	1137.19995117188
951.348177210993	1126.19995117188
952.050869234548	1128.80004882813
952.753472738683	1137
953.455987731199	1126
954.158414219898	1111.19995117188
954.860752212587	1117.19995117188
955.563001717061	1125.59997558594
956.265162741124	1120.40002441406
956.967235292576	1130
957.669219379224	1125.80004882813
958.371115008857	1118.80004882813
959.072922189283	1120.40002441406
959.774640928301	1119.80004882813
960.476271233708	1117.80004882813
961.177813113301	1127.19995117188
961.879266574882	1133.59997558594
962.580631626248	1129.59997558594
963.281908275194	1139.19995117188
963.98309652952	1134
964.684196397022	1134.19995117188
965.3852078855	1136.40002441406
966.086131002745	1141.40002441406
966.786965756555	1137
967.487712154726	1136.40002441406
968.188370205055	1125.59997558594
968.888939915331	1128.19995117188
969.589421293352	1120.59997558594
970.289814346909	1135
970.990119083801	1126.40002441406
971.690335511819	1124.80004882813
972.39046363875	1125
973.090503472398	1125.59997558594
973.790455020545	1124.40002441406
974.490318290987	1129.40002441406
975.190093291516	1127
975.889780029923	1132.19995117188
976.589378513998	1125.59997558594
977.288888751527	1127.40002441406
977.988310750308	1123.40002441406
978.687644518122	1124.80004882813
979.386890062767	1124
980.086047392025	1122.59997558594
980.785116513689	1121.40002441406
981.484097435542	1118.19995117188
982.182990165377	1126
982.88179471098	1128.59997558594
983.580511080137	1125.59997558594
984.279139280632	1132.19995117188
984.977679320253	1124.19995117188
985.67613120679	1119.19995117188
986.374494948027	1131.80004882813
987.072770551745	1123.59997558594
987.770958025731	1128.80004882813
988.469057377772	1130
989.167068615649	1131.80004882813
989.864991747145	1120.80004882813
990.562826780047	1118.59997558594
991.260573722134	1124.19995117188
991.958232581195	1128
992.655803365003	1129.19995117188
993.353286081346	1124.59997558594
994.050680738006	1128.40002441406
994.74798734276	1129.19995117188
995.44520590339	1117.19995117188
996.142336427681	1123.19995117188
996.839378923407	1121
997.536333398348	1118
998.233199860289	1134.40002441406
998.929978317004	1130.19995117188
999.626668776274	1133
1000.32327124587	1131.40002441406
1001.01978573359	1136.40002441406
1001.71621224718	1140.59997558594
1002.41255079445	1134
1003.10880138315	1137.80004882813
1003.80496402107	1138.19995117188
1004.50103871599	1138.40002441406
1005.19702547567	1137
1005.8929243079	1139.59997558594
1006.58873522045	1139
1007.2844582211	1125.80004882813
1007.98009331761	1131.40002441406
1008.67564051776	1131.19995117188
1009.37109982933	1132
1010.06647126009	1124.59997558594
1010.7617548178	1133.59997558594
1011.45695051026	1137.19995117188
1012.15205834522	1139.59997558594
1012.84707833045	1135
1013.54201047373	1132.80004882813
1014.23685478284	1130.80004882813
1014.93161126553	1138
1015.62627992959	1133.40002441406
1016.32086078277	1137.80004882813
1017.01535383285	1143
1017.70975908761	1148
1018.40407655479	1137.19995117188
1019.09830624219	1137.59997558594
1019.79244815755	1133.19995117188
1020.48650230866	1135.80004882813
1021.18046870328	1126.59997558594
1021.87434734917	1127.40002441406
1022.56813825411	1123.40002441406
1023.26184142584	1125.80004882813
1023.95545687216	1128.40002441406
1024.64898460082	1116
1025.34242461957	1120.40002441406
1026.0357769362	1117
1026.72904155846	1127.59997558594
1027.42221849412	1125
1028.11530775094	1121.59997558594
1028.80830933668	1129.19995117188
1029.50122325911	1116.80004882813
1030.19404952599	1117.40002441406
1030.88678814508	1116.59997558594
1031.57943912414	1120.40002441406
1032.27200247093	1116.19995117188
1032.96447819323	1128
1033.65686629878	1133
1034.34916679534	1139.19995117188
1035.04137969068	1132.80004882813
1035.73350499256	1125
1036.42554270874	1122.40002441406
1037.11749284697	1117.40002441406
1037.80935541501	1117.80004882813
1038.50113042062	1124.40002441406
1039.19281787156	1119.80004882813
1039.88441777559	1117.40002441406
1040.57593014046	1123.80004882813
1041.26735497393	1127.59997558594
1041.95869228376	1131
1042.6499420777	1140.40002441406
1043.3411043635	1132.40002441406
1044.03217914893	1131.80004882813
1044.72316644174	1125.19995117188
1045.41406624968	1119
1046.1048785805	1116.59997558594
1046.79560344197	1119.80004882813
1047.48624084182	1116.40002441406
1048.17679078783	1116
1048.86725328774	1116.59997558594
1049.55762834929	1107.40002441406
1050.24791598025	1116
1050.93811618837	1110.19995117188
1051.62822898139	1126
1052.31825436707	1120.80004882813
1053.00819235315	1104.59997558594
1053.6980429474	1108
1054.38780615755	1114.80004882813
1055.07748199136	1117.19995117188
1055.76707045658	1106.19995117188
1056.45657156095	1110.19995117188
1057.14598531222	1109
1057.83531171814	1121.80004882813
1058.52455078646	1122.80004882813
1059.21370252494	1113.19995117188
1059.90276694129	1113
1060.5917440433	1111.80004882813
1061.28063383868	1111.59997558594
1061.9694363352	1108.59997558594
1062.65815154059	1118.80004882813
1063.34677946261	1113.80004882813
1064.03532010899	1129.80004882813
1064.72377348748	1121.80004882813
1065.41213960583	1120.40002441406
1066.10041847177	1124
1066.78861009306	1133.80004882813
1067.47671447743	1122.59997558594
1068.16473163263	1118.40002441406
1068.85266156639	1113.80004882813
1069.54050428647	1119.59997558594
1070.2282598006	1114.19995117188
1070.91592811652	1113
1071.60350924198	1113.19995117188
1072.29100318471	1116.59997558594
1072.97840995245	1117.59997558594
1073.66572955295	1114.19995117188
1074.35296199394	1109.40002441406
1075.04010728316	1116.19995117188
1075.72716542836	1120.40002441406
1076.41413643726	1124.19995117188
1077.10102031761	1113.59997558594
1077.78781707715	1112.59997558594
1078.4745267236	1116.40002441406
1079.16114926471	1113.40002441406
1079.84768470822	1122.80004882813
1080.53413306185	1118.59997558594
1081.22049433336	1107.40002441406
1081.90676853046	1116.19995117188
1082.5929556609	1121
1083.27905573241	1118.80004882813
1083.96506875272	1118
1084.65099472957	1117.19995117188
1085.3368336707	1119.59997558594
1086.02258558383	1125.19995117188
1086.70825047669	1121.59997558594
1087.39382835703	1114
1088.07931923257	1111.40002441406
1088.76472311104	1121.59997558594
1089.45004000018	1110.19995117188
1090.13526990771	1111.40002441406
1090.82041284137	1115.59997558594
1091.50546880889	1111.19995117188
1092.19043781799	1111
1092.87531987642	1113.80004882813
1093.56011499188	1111.19995117188
1094.24482317212	1121.40002441406
1094.92944442486	1115
1095.61397875783	1119.19995117188
1096.29842617876	1128
1096.98278669537	1126.19995117188
1097.6670603154	1117.80004882813
1098.35124704656	1108
1099.03534689659	1109.40002441406
1099.71935987322	1114.80004882813
1100.40328598416	1126.40002441406
1101.08712523713	1113.59997558594
1101.77087763988	1117.40002441406
1102.45454320012	1115.59997558594
1103.13812192557	1115.40002441406
1103.82161382396	1120.19995117188
1104.50501890301	1112.59997558594
1105.18833717045	1107
1105.87156863399	1103.19995117188
1106.55471330137	1110.80004882813
1107.2377711803	1106.40002441406
1107.9207422785	1119
1108.60362660369	1121.19995117188
1109.2864241636	1117.80004882813
1109.96913496594	1123
1110.65175901844	1123
1111.33429632882	1127
1112.01674690479	1121.80004882813
1112.69911075408	1115.19995117188
1113.38138788439	1114.19995117188
1114.06357830346	1112.40002441406
1114.745682019	1109.40002441406
1115.42769903872	1117.59997558594
1116.10962937035	1122.59997558594
1116.7914730216	1114.59997558594
1117.47323000018	1109.19995117188
1118.15490031382	1108.80004882813
1118.83648397022	1106.19995117188
1119.51798097712	1102.80004882813
1120.1993913422	1110.19995117188
1120.88071507321	1118.19995117188
1121.56195217784	1112
1122.24310266381	1114.40002441406
1122.92416653884	1118
1123.60514381064	1122.40002441406
1124.28603448692	1120.19995117188
1124.9668385754	1119.59997558594
1125.64755608378	1130.40002441406
1126.32818701978	1131.40002441406
1127.00873139111	1131.19995117188
1127.68918920548	1128.19995117188
1128.3695604706	1125.80004882813
1129.04984519419	1121.59997558594
1129.73004338394	1128.40002441406
1130.41015504758	1121.59997558594
1131.09018019281	1113
1131.77011882734	1102.80004882813
1132.44997095888	1115.19995117188
1133.12973659514	1111.80004882813
1133.80941574381	1121.19995117188
1134.48900841263	1111.40002441406
1135.16851460927	1109.19995117188
1135.84793434147	1116.40002441406
1136.52726761692	1124.80004882813
1137.20651444333	1114.19995117188
1137.8856748284	1124.80004882813
1138.56474877984	1118
1139.24373630536	1124.80004882813
1139.92263741265	1119.59997558594
1140.60145210943	1111.19995117188
1141.28018040339	1117.19995117188
1141.95882230225	1113.19995117188
1142.6373778137	1112.40002441406
1143.31584694545	1108
1143.99422970519	1104.59997558594
1144.67252610064	1102.40002441406
1145.35073613949	1106
1146.02885982944	1105.19995117188
1146.7068971782	1111.19995117188
1147.38484819347	1116
1148.06271288294	1104.80004882813
1148.74049125432	1105.19995117188
1149.41818331531	1105.80004882813
1150.0957890736	1105.19995117188
1150.77330853689	1108.59997558594
1151.45074171289	1102.59997558594
1152.12808860928	1110.40002441406
1152.80534923378	1113.40002441406
1153.48252359407	1115.40002441406
1154.15961169786	1113.19995117188
1154.83661355283	1118
1155.51352916669	1118
1156.19035854713	1111.19995117188
1156.86710170185	1108
1157.54375863855	1101.59997558594
1158.22032936491	1101
1158.89681388863	1100.40002441406
1159.57321221741	1109.80004882813
1160.24952435894	1111
1160.92575032092	1103.40002441406
1161.60189011103	1113.40002441406
1162.27794373697	1112.19995117188
1162.95391120644	1114
1163.62979252712	1121.80004882813
1164.3055877067	1109.80004882813
1164.98129675288	1119.40002441406
1165.65691967336	1114.80004882813
1166.33245647581	1110
1167.00790716792	1106.80004882813
1167.6832717574	1101.59997558594
1168.35855025193	1108.59997558594
1169.0337426592	1111.80004882813
1169.70884898689	1114.19995117188
1170.3838692427	1114.40002441406
1171.05880343431	1120.80004882813
1171.73365156941	1113.80004882813
1172.40841365569	1116.40002441406
1173.08308970083	1114.59997558594
1173.75767971253	1111.80004882813
1174.43218369847	1109.59997558594
1175.10660166633	1121.19995117188
1175.7809336238	1122.19995117188
1176.45517957857	1126.59997558594
1177.12933953832	1124
1177.80341351073	1114.59997558594
1178.47740150349	1123
1179.15130352429	1127
1179.8251195808	1126.40002441406
1180.49884968071	1127
1181.1724938317	1121
1181.84605204145	1111.40002441406
1182.51952431766	1121.80004882813
1183.19291066799	1123.59997558594
1183.86621110013	1123.40002441406
1184.53942562176	1122.80004882813
1185.21255424057	1133.19995117188
1185.88559696422	1132.19995117188
1186.55855380041	1132.80004882813
1187.2314247568	1130.59997558594
1187.90420984109	1125.19995117188
1188.57690906095	1122.59997558594
1189.24952242405	1125.19995117188
1189.92204993808	1126.19995117188
1190.59449161071	1122.40002441406
1191.26684744962	1116.19995117188
1191.93911746249	1117.80004882813
1192.61130165699	1121.59997558594
1193.28340004081	1123.40002441406
1193.95541262161	1120.80004882813
1194.62733940707	1117.19995117188
1195.29918040487	1120.80004882813
1195.97093562269	1128.59997558594
1196.64260506819	1112.59997558594
1197.31418874905	1109.19995117188
1197.98568667295	1114.19995117188
1198.65709884755	1114.40002441406
1199.32842528053	1124
1199.99966597957	1123
1200.67082095234	1114.19995117188
1201.3418902065	1115
1202.01287374974	1109.40002441406
1202.68377158971	1105.19995117188
1203.3545837341	1110.40002441406
1204.02531019057	1117
1204.6959509668	1118.19995117188
1205.36650607045	1113.59997558594
1206.03697550919	1117.40002441406
1206.70735929069	1118.59997558594
1207.37765742263	1114.59997558594
1208.04786991266	1116.80004882813
1208.71799676846	1114.40002441406
1209.38803799769	1115.59997558594
1210.05799360803	1118
1210.72786360714	1115.40002441406
1211.39764800268	1118.59997558594
1212.06734680233	1115.40002441406
1212.73696001375	1106.80004882813
1213.4064876446	1102.40002441406
1214.07592970255	1111
1214.74528619526	1112.40002441406
1215.4145571304	1114.80004882813
1216.08374251564	1112.59997558594
1216.75284235863	1109.40002441406
1217.42185666704	1115
1218.09078544854	1116.40002441406
1218.75962871078	1100.80004882813
1219.42838646143	1110.19995117188
1220.09705870816	1102.80004882813
1220.76564545861	1102.59997558594
1221.43414672046	1102.40002441406
1222.10256250136	1105.19995117188
1222.77089280898	1099.80004882813
1223.43913765098	1103.59997558594
1224.107297035	1096.80004882813
1224.77537096873	1110.19995117188
1225.44335945981	1098.40002441406
1226.1112625159	1097.19995117188
1226.77908014467	1095.59997558594
1227.44681235376	1104.40002441406
1228.11445915085	1094.40002441406
1228.78202054357	1093.19995117188
1229.44949653961	1093.40002441406
1230.11688714659	1092.59997558594
1230.7841923722	1094.59997558594
1231.45141222407	1099
1232.11854670988	1094.19995117188
1232.78559583726	1101.40002441406
1233.45255961388	1095.40002441406
1234.1194380474	1100.19995117188
1234.78623114546	1097.19995117188
1235.45293891572	1099.59997558594
1236.11956136583	1100.59997558594
1236.78609850345	1092.80004882813
1237.45255033623	1098.19995117188
1238.11891687182	1108.40002441406
1238.78519811788	1108.19995117188
1239.45139408205	1108.40002441406
1240.11750477198	1107.80004882813
1240.78353019534	1108.80004882813
1241.44947035976	1103.19995117188
1242.11532527291	1105.40002441406
1242.78109494242	1104.19995117188
1243.44677937595	1105.19995117188
1244.11237858115	1094.59997558594
1244.77789256567	1102.80004882813
1245.44332133715	1102.80004882813
1246.10866490325	1100.80004882813
1246.7739232716	1089.80004882813
1247.43909644987	1088.59997558594
1248.10418444569	1081
1248.76918726671	1089.19995117188
1249.43410492059	1092.40002441406
1250.09893741496	1101.19995117188
1250.76368475747	1099.19995117188
1251.42834695576	1102.40002441406
1252.09292401749	1110
1252.75741595029	1095.19995117188
1253.42182276182	1094.80004882813
1254.08614445971	1092
1254.75038105161	1094.19995117188
1255.41453254515	1091
1256.07859894799	1097.40002441406
1256.74258026777	1094.19995117188
1257.40647651213	1093.19995117188
1258.0702876887	1095.80004882813
1258.73401380514	1101.59997558594
1259.39765486908	1101.80004882813
1260.06121088817	1102.40002441406
1260.72468187004	1088
1261.38806782233	1094.40002441406
1262.05136875269	1093.40002441406
1262.71458466875	1098.59997558594
1263.37771557815	1094.80004882813
1264.04076148854	1098
1264.70372240753	1093.59997558594
1265.3665983428	1102.80004882813
1266.02938930195	1096.59997558594
1266.69209529263	1093.80004882813
1267.35471632249	1105.80004882813
1268.01725239914	1104.40002441406
1268.67970353024	1096.59997558594
1269.34206972342	1103.59997558594
1270.00435098631	1103.19995117188
1270.66654732655	1101.19995117188
1271.32865875177	1096.59997558594
1271.9906852696	1090.80004882813
1272.65262688768	1094.19995117188
1273.31448361365	1091.59997558594
1273.97625545514	1091
1274.63794241978	1091.80004882813
1275.2995445152	1093
1275.96106174903	1105.40002441406
1276.62249412892	1100.80004882813
1277.28384166248	1093.59997558594
1277.94510435735	1094.80004882813
1278.60628222116	1095.80004882813
1279.26737526155	1105
1279.92838348613	1106.19995117188
1280.58930690255	1111.80004882813
1281.25014551842	1110.80004882813
1281.91089934139	1116.19995117188
1282.57156837907	1109.40002441406
1283.2321526391	1086.40002441406
1283.89265212911	1090.80004882813
1284.55306685671	1091.19995117188
1285.21339682955	1090.19995117188
1285.87364205525	1096
1286.53380254142	1094.19995117188
1287.19387829571	1085
1287.85386932573	1084
1288.51377563911	1088.40002441406
1289.17359724348	1085.40002441406
1289.83333414646	1088.59997558594
1290.49298635567	1087
1291.15255387874	1092.80004882813
1291.8120367233	1096.19995117188
1292.47143489696	1094.40002441406
1293.13074840736	1094
1293.7899772621	1090.40002441406
1294.44912146882	1086.40002441406
1295.10818103513	1090.19995117188
1295.76715596866	1097.80004882813
1296.42604627704	1097
1297.08485196787	1100.80004882813
1297.74357304878	1098.80004882813
1298.4022095274	1099.80004882813
1299.06076141134	1108
1299.71922870821	1099.80004882813
1300.37761142565	1102.59997558594
1301.03590957126	1096.80004882813
1301.69412315268	1098.19995117188
1302.3522521775	1097
1303.01029665336	1091.59997558594
1303.66825658787	1097
1304.32613198865	1096.19995117188
1304.98392286332	1098.59997558594
1305.64162921948	1105.80004882813
1306.29925106476	1109.19995117188
1306.95678840677	1099.19995117188
1307.61424125312	1101.59997558594
1308.27160961145	1103.59997558594
1308.92889348934	1114.59997558594
1309.58609289443	1111.40002441406
1310.24320783432	1115.59997558594
1310.90023831664	1116
1311.55718434898	1119.19995117188
1312.21404593897	1121.40002441406
1312.87082309421	1106.59997558594
1313.52751582233	1108.40002441406
1314.18412413092	1114
1314.84064802761	1101
1315.49708752	1101.59997558594
1316.1534426157	1096.59997558594
1316.80971332233	1098.40002441406
1317.46589964749	1094.80004882813
1318.1220015988	1092.59997558594
1318.77801918386	1094.59997558594
1319.43395241028	1093.59997558594
1320.08980128567	1103
1320.74556581764	1100
1321.4012460138	1103
1322.05684188176	1099.80004882813
1322.71235342911	1095.80004882813
1323.36778066347	1093.40002441406
1324.02312359245	1096
1324.67838222365	1101.80004882813
1325.33355656468	1090.40002441406
1325.98864662314	1096.59997558594
1326.64365240663	1081.80004882813
1327.29857392277	1083
1327.95341117915	1082
1328.60816418339	1084.59997558594
1329.26283294308	1082.40002441406
1329.91741746582	1081.40002441406
1330.57191775923	1079.19995117188
1331.2263338309	1081.19995117188
1331.88066568843	1079.59997558594
1332.53491333943	1080.59997558594
1333.1890767915	1081
1333.84315605224	1075.80004882813
1334.49715112925	1082.40002441406
1335.15106203013	1080
1335.80488876249	1092.59997558594
1336.45863133391	1087.59997558594
1337.112289752	1089.19995117188
1337.76586402437	1096.80004882813
1338.4193541586	1100.80004882813
1339.0727601623	1103.19995117188
1339.72608204306	1106.19995117188
1340.37931980849	1097.19995117188
1341.03247346617	1097.40002441406
1341.68554302372	1097.59997558594
1342.33852848871	1106.19995117188
1342.99142986876	1109
1343.64424717145	1101.59997558594
1344.29698040438	1098.40002441406
1344.94962957515	1114.19995117188
1345.60219469135	1106.59997558594
1346.25467576058	1110
1346.90707279042	1109.59997558594
1347.55938578848	1105.59997558594
1348.21161476235	1108.59997558594
1348.86375971962	1110.19995117188
1349.51582066787	1111
1350.16779761472	1108.40002441406
1350.81969056774	1107.40002441406
1351.47149953453	1109
1352.12322452269	1116.19995117188
1352.77486553979	1116
1353.42642259344	1115
1354.07789569122	1123.59997558594
1354.72928484072	1120.19995117188
1355.38059004953	1126
1356.03181132525	1128.59997558594
1356.68294867545	1124
1357.33400210773	1127.80004882813
1357.98497162968	1138.80004882813
1358.63585724889	1143.40002441406
1359.28665897294	1129.80004882813
1359.93737680942	1134
1360.58801076591	1130
1361.23856085001	1129.59997558594
1361.88902706929	1133.40002441406
1362.53940943135	1136.80004882813
1363.18970794377	1133
1363.83992261413	1147.59997558594
1364.49005345003	1137
1365.14010045904	1135.19995117188
1365.79006364874	1147.80004882813
1366.43994302673	1130.19995117188
1367.08973860058	1130.80004882813
1367.73945037788	1117.80004882813
1368.38907836621	1121.80004882813
1369.03862257315	1119.80004882813
1369.68808300629	1106.19995117188
1370.3374596732	1104.40002441406
1370.98675258148	1104.59997558594
1371.63596173868	1103.59997558594
1372.28508715241	1101.59997558594
1372.93412883024	1104.19995117188
1373.58308677974	1097.59997558594
1374.2319610085	1098.19995117188
1374.8807515241	1094.19995117188
1375.52945833412	1090.59997558594
1376.17808144612	1089
1376.82662086771	1086.40002441406
1377.47507660644	1094.40002441406
1378.12344866989	1090.19995117188
1378.77173706565	1089
1379.41994180129	1092.40002441406
1380.06806288439	1093.59997558594
1380.71610032252	1093.59997558594
1381.36405412326	1087
1382.01192429419	1086
1382.65971084287	1089.19995117188
1383.30741377688	1082.40002441406
1383.95503310381	1086.80004882813
1384.60256883121	1093
1385.25002096667	1082.19995117188
1385.89738951775	1079
1386.54467449204	1081
1387.19187589709	1080.59997558594
1387.8389937405	1084.59997558594
1388.48602802982	1073.80004882813
1389.13297877262	1072.40002441406
1389.77984597649	1080.80004882813
1390.42662964899	1078.59997558594
1391.07332979768	1077.59997558594
1391.71994643015	1077.19995117188
1392.36647955395	1079.59997558594
1393.01292917667	1077.40002441406
1393.65929530586	1075
1394.3055779491	1074.40002441406
1394.95177711395	1074
1395.59789280799	1077.19995117188
1396.24392503877	1073.59997558594
1396.88987381387	1074
1397.53573914086	1077.80004882813
1398.1815210273	1075
1398.82721948075	1077.59997558594
1399.47283450878	1070.80004882813
1400.11836611897	1070.40002441406
1400.76381431886	1067.40002441406
1401.40917911603	1068.80004882813
1402.05446051805	1064.40002441406
1402.69965853247	1068.19995117188
1403.34477316686	1076.59997558594
1403.98980442878	1071
1404.6347523258	1066.19995117188
1405.27961686548	1073.19995117188
1405.92439805538	1081.19995117188
1406.56909590306	1074.40002441406
1407.21371041608	1077
1407.85824160202	1078.80004882813
1408.50268946841	1074.19995117188
1409.14705402284	1071.40002441406
1409.79133527285	1083.19995117188
1410.43553322601	1074
1411.07964788987	1073
1411.723679272	1073.19995117188
1412.36762737996	1076.80004882813
1413.01149222129	1080.40002441406
1413.65527380357	1075.40002441406
1414.29897213435	1083.80004882813
1414.94258722118	1084.19995117188
1415.58611907163	1086.40002441406
1416.22956769325	1078.80004882813
1416.87293309359	1082
1417.51621528021	1081.59997558594
1418.15941426067	1079.40002441406
1418.80253004253	1083.59997558594
1419.44556263333	1082.80004882813
1420.08851204063	1087.80004882813
1420.731378272	1087.19995117188
1421.37416133497	1087.40002441406
1422.0168612371	1082
1422.65947798596	1078.59997558594
1423.30201158908	1083.59997558594
1423.94446205403	1078.40002441406
1424.58682938835	1083.80004882813
1425.2291135996	1082.40002441406
1425.87131469532	1081.40002441406
1426.51343268308	1092
1427.15546757042	1087
1427.79741936488	1085.59997558594
1428.43928807403	1080.40002441406
1429.0810737054	1081.59997558594
1429.72277626656	1075.19995117188
1430.36439576504	1081.80004882813
1431.00593220841	1075.80004882813
1431.64738560419	1074.59997558594
1432.28875595995	1075.59997558594
1432.93004328324	1076.19995117188
1433.57124758159	1071.59997558594
1434.21236886255	1071
1434.85340713368	1081.19995117188
1435.49436240252	1069.40002441406
1436.13523467661	1069.80004882813
1436.77602396349	1075.19995117188
1437.41673027073	1070.40002441406
1438.05735360585	1076
1438.69789397641	1071.59997558594
1439.33835138994	1071
1439.978725854	1075
1440.61901737612	1073
1441.25922596385	1067.59997558594
1441.89935162473	1069
1442.53939436631	1072
1443.17935419612	1071.19995117188
1443.81923112171	1072.19995117188
1444.45902515061	1079.80004882813
1445.09873629038	1079.80004882813
1445.73836454854	1082.59997558594
1446.37790993265	1080.59997558594
1447.01737245024	1074.59997558594
1447.65675210885	1069.19995117188
1448.29604891602	1068.40002441406
1448.93526287928	1077
1449.57439400618	1076
1450.21344230426	1071.59997558594
1450.85240778105	1064.40002441406
1451.49129044409	1067
1452.13009030092	1065.19995117188
1452.76880735907	1072.40002441406
1453.40744162608	1071.40002441406
1454.04599310949	1060.80004882813
1454.68446181683	1068.40002441406
1455.32284775564	1065.80004882813
1455.96115093345	1064.80004882813
1456.5993713578	1069.40002441406
1457.23750903623	1058.80004882813
1457.87556397626	1065.59997558594
1458.51353618543	1069
1459.15142567127	1061.59997558594
1459.78923244132	1067.59997558594
1460.42695650311	1064
1461.06459786417	1071.59997558594
1461.70215653203	1071.19995117188
1462.33963251423	1068.59997558594
1462.97702581829	1073.19995117188
1463.61433645175	1060.59997558594
1464.25156442214	1073.59997558594
1464.88870973699	1070.80004882813
1465.52577240382	1063.59997558594
1466.16275243017	1067.40002441406
1466.79964982356	1065.40002441406
1467.43646459154	1064.40002441406
1468.07319674161	1066.40002441406
1468.70984628132	1072
1469.34641321818	1076.59997558594
1469.98289755974	1079.40002441406
1470.6192993135	1073.19995117188
1471.25561848701	1080.59997558594
1471.89185508779	1072.80004882813
1472.52800912336	1074.59997558594
1473.16408060124	1082
1473.80006952897	1081.19995117188
1474.43597591407	1073
1475.07179976406	1072
1475.70754108647	1069
1476.34319988883	1071
1476.97877617865	1075.59997558594
1477.61426996345	1075.40002441406
1478.24968125077	1067.40002441406
1478.88501004812	1074.19995117188
1479.52025636303	1074.40002441406
1480.15542020302	1076.80004882813
1480.79050157561	1075
1481.42550048832	1076
1482.06041694867	1069.40002441406
1482.69525096418	1080.59997558594
1483.33000254237	1072.80004882813
1483.96467169077	1070.19995117188
1484.59925841689	1072.59997558594
1485.23376272825	1071.19995117188
1485.86818463237	1071
1486.50252413677	1072
1487.13678124896	1076.19995117188
1487.77095597646	1080.19995117188
1488.4050483268	1089.40002441406
1489.03905830749	1080
1489.67298592604	1074.59997558594
1490.30683118996	1076.19995117188
1490.9405941068	1072.19995117188
1491.57427468403	1072
1492.2078729292	1070.59997558594
1492.84138884981	1073.80004882813
1493.47482245338	1071.80004882813
1494.10817374742	1076.59997558594
1494.74144273944	1082.19995117188
1495.37462943696	1075.19995117188
1496.0077338475	1070
1496.64075597856	1074.19995117188
1497.27369583765	1073.19995117188
1497.9065534323	1073.80004882813
1498.53932877001	1070.40002441406
1499.17202185829	1072.19995117188
1499.80463270465	1072.19995117188
1500.43716131661	1083.40002441406
1501.06960770167	1080.40002441406
1501.70197186735	1079.40002441406
1502.33425382116	1079.80004882813
1502.96645357059	1077
1503.59857112317	1076.59997558594
1504.23060648641	1076.59997558594
1504.8625596678	1077.19995117188
1505.49443067486	1081
1506.1262195151	1080.59997558594
1506.75792619602	1075
1507.38955072513	1078.59997558594
1508.02109310993	1070.40002441406
1508.65255335794	1067
1509.28393147666	1076.59997558594
1509.91522747359	1075.19995117188
1510.54644135624	1080
1511.17757313212	1074.40002441406
1511.80862280872	1081.59997558594
1512.43959039356	1079.59997558594
1513.07047589413	1073.19995117188
1513.70127931795	1075.40002441406
1514.33200067251	1069.59997558594
1514.96263996531	1068.40002441406
1515.59319720386	1065.40002441406
1516.22367239567	1066.19995117188
1516.85406554822	1059.40002441406
1517.48437666903	1059.19995117188
1518.1146057656	1057
1518.74475284542	1070.19995117188
1519.374817916	1064.59997558594
1520.00480098483	1062
1520.63470205942	1071.59997558594
1521.26452114726	1062.80004882813
1521.89425825586	1065
1522.52391339271	1055.19995117188
1523.15348656531	1055.80004882813
1523.78297778116	1056.19995117188
1524.41238704775	1063.80004882813
1525.04171437259	1059.80004882813
1525.67095976317	1069.40002441406
1526.30012322699	1059.40002441406
1526.92920477154	1063.40002441406
1527.55820440432	1062.40002441406
1528.18712213283	1068.80004882813
1528.81595796455	1059.19995117188
1529.44471190699	1056.40002441406
1530.07338396764	1050.80004882813
1530.70197415399	1054.59997558594
1531.33048247353	1055.19995117188
1531.95890893377	1064.80004882813
1532.58725354219	1057.80004882813
1533.21551630629	1065.59997558594
1533.84369723356	1055.40002441406
1534.47179633148	1060.80004882813
1535.09981360757	1055.40002441406
1535.72774906929	1061.80004882813
1536.35560272415	1066.19995117188
1536.98337457963	1060.59997558594
1537.61106464323	1062.19995117188
1538.23867292243	1063.19995117188
1538.86619942473	1060.40002441406
1539.49364415762	1063.19995117188
1540.12100712857	1058.80004882813
1540.74828834509	1054.19995117188
1541.37548781466	1057
1542.00260554478	1059.40002441406
1542.62964154291	1056.59997558594
1543.25659581655	1059.59997558594
1543.8834683732	1072.59997558594
1544.51025922034	1074.59997558594
1545.13696836544	1061.40002441406
1545.76359581601	1062
1546.39014157952	1055.59997558594
1547.01660566345	1061.80004882813
1547.64298807531	1056.40002441406
1548.26928882255	1055.40002441406
1548.89550791269	1047.80004882813
1549.52164535318	1056.80004882813
1550.14770115153	1050.19995117188
1550.77367531521	1056.19995117188
1551.39956785171	1054
1552.0253787685	1046.59997558594
1552.65110807307	1046
1553.2767557729	1049.19995117188
1553.90232187548	1048
1554.52780638828	1054
1555.15320931879	1048.40002441406
1555.77853067447	1048.59997558594
1556.40377046282	1052.59997558594
1557.02892869132	1038.40002441406
1557.65400536744	1050.80004882813
1558.27900049866	1040.19995117188
1558.90391409247	1046.19995117188
1559.52874615633	1045.40002441406
1560.15349669773	1049
1560.77816572414	1052.40002441406
1561.40275324305	1057.80004882813
1562.02725926192	1051.19995117188
1562.65168378824	1051
1563.27602682948	1050.59997558594
1563.90028839311	1042.19995117188
1564.52446848662	1050.40002441406
1565.14856711748	1049.40002441406
1565.77258429316	1051.40002441406
1566.39652002113	1039.59997558594
1567.02037430887	1037.19995117188
1567.64414716387	1040.59997558594
1568.26783859357	1040.80004882813
1568.89144860547	1034.40002441406
1569.51497720703	1041
1570.13842440573	1041.19995117188
1570.76179020904	1051.59997558594
1571.38507462442	1053.59997558594
1572.00827765936	1051.19995117188
1572.63139932132	1057.19995117188
1573.25443961777	1059.40002441406
1573.87739855618	1055.40002441406
1574.50027614402	1056
1575.12307238877	1057.59997558594
1575.74578729789	1049.19995117188
1576.36842087885	1054
1576.99097313912	1050.59997558594
1577.61344408616	1053.40002441406
1578.23583372745	1054
1578.85814207046	1049.59997558594
1579.48036912264	1053.80004882813
1580.10251489147	1055
1580.72457938441	1056.19995117188
1581.34656260893	1052.40002441406
1581.9684645725	1049.19995117188
1582.59028528258	1042.59997558594
1583.21202474663	1048.40002441406
1583.83368297212	1044.80004882813
1584.45525996652	1047.40002441406
1585.07675573728	1042.80004882813
1585.69817029188	1038.19995117188
1586.31950363778	1050.19995117188
1586.94075578243	1046.59997558594
1587.5619267333	1041.19995117188
1588.18301649786	1049
1588.80402508357	1045.80004882813
1589.42495249788	1051.40002441406
1590.04579874826	1038.19995117188
1590.66656384217	1038.59997558594
1591.28724778707	1040.40002441406
1591.90785059042	1032.40002441406
1592.52837225968	1039.59997558594
1593.14881280232	1035.40002441406
1593.76917222578	1046.19995117188
1594.38945053753	1036.80004882813
1595.00964774502	1030
1595.62976385573	1034.19995117188
1596.24979887709	1036.40002441406
1596.86975281657	1042
1597.48962568164	1035.59997558594
1598.10941747974	1041
1598.72912821832	1041.19995117188
1599.34875790486	1041.80004882813
1599.9683065468	1036
1600.58777415159	1039
1601.2071607267	1037.59997558594
1601.82646627958	1035.80004882813
1602.44569081769	1036
1603.06483434846	1034.19995117188
1603.68389687937	1043.19995117188
1604.30287841786	1035.19995117188
1604.92177897139	1039.80004882813
1605.54059854741	1032
1606.15933715337	1038.19995117188
1606.77799479672	1036.59997558594
1607.39657148492	1029.59997558594
1608.01506722542	1032.80004882813
1608.63348202566	1031.19995117188
1609.2518158931	1037
1609.87006883519	1036.19995117188
1610.48824085939	1031.19995117188
1611.10633197312	1029.80004882813
1611.72434218386	1040.59997558594
1612.34227149904	1036.19995117188
1612.96011992612	1034.80004882813
1613.57788747254	1035.40002441406
1614.19557414575	1036.59997558594
1614.8131799532	1042.59997558594
1615.43070490234	1036.59997558594
1616.04814900061	1032.19995117188
1616.66551225545	1034.19995117188
1617.28279467433	1034
1617.89999626467	1036.19995117188
1618.51711703393	1028
1619.13415698955	1031.40002441406
1619.75111613898	1030.59997558594
1620.36799448966	1022
1620.98479204903	1022
1621.60150882455	1018.20001220703
1622.21814482364	1023.79998779297
1622.83470005376	1019.20001220703
1623.45117452235	1031.19995117188
1624.06756823685	1023.20001220703
1624.6838812047	1022.59997558594
1625.30011343335	1021.20001220703
1625.91626493022	1019.79998779297
1626.53233570278	1019.79998779297
1627.14832575845	1021
1627.76423510468	1017.59997558594
1628.38006374891	1019.40002441406
1628.99581169857	1018.79998779297
1629.61147896111	1017.59997558594
1630.22706554397	1024.40002441406
1630.84257145457	1027.19995117188
1631.45799670038	1024
1632.07334128881	1027.59997558594
1632.6886052273	1029.80004882813
1633.3037885233	1030.59997558594
1633.91889118425	1028.80004882813
1634.53391321757	1023.20001220703
1635.1488546307	1020.20001220703
1635.76371543108	1023.20001220703
1636.37849562616	1021.79998779297
1636.99319522335	1028.19995117188
1637.60781423009	1029.59997558594
1638.22235265383	1027
1638.83681050198	1025.80004882813
1639.451187782	1022.79998779297
1640.0654845013	1028
1640.67970066734	1030.19995117188
1641.29383628752	1040
1641.9078913693	1033.19995117188
1642.5218659201	1037.59997558594
1643.13575994735	1031.80004882813
1643.74957345849	1035.80004882813
1644.36330646094	1034.59997558594
1644.97695896213	1030.59997558594
1645.59053096951	1034.19995117188
1646.20402249049	1033.19995117188
1646.8174335325	1034.40002441406
1647.43076410298	1028
1648.04401420935	1034.59997558594
1648.65718385905	1033.19995117188
1649.2702730595	1033.59997558594
1649.88328181812	1029.19995117188
1650.49621014236	1032.80004882813
1651.10905803963	1029.80004882813
1651.72182551735	1030.80004882813
1652.33451258297	1029.19995117188
1652.9471192439	1029
1653.55964550757	1020.79998779297
1654.1720913814	1025
1654.78445687283	1029.80004882813
1655.39674198926	1024.80004882813
1656.00894673814	1026
1656.62107112688	1022.59997558594
1657.23311516291	1022.20001220703
1657.84507885365	1017.79998779297
1658.45696220652	1018.20001220703
1659.06876522895	1008.79998779297
1659.68048792835	1013.40002441406
1660.29213031217	1008
1660.90369238779	1013
1661.51517416267	1007
1662.12657564421	1010
1662.73789683984	1008
1663.34913775697	1005.20001220703
1663.96029840303	1005.79998779297
1664.57137878544	1008.59997558594
1665.18237891161	1007.20001220703
1665.79329878897	1014.59997558594
1666.40413842493	1011.40002441406
1667.01489782691	1002.40002441406
1667.62557700233	1005
1668.2361759586	997.599975585938
1668.84669470315	999.599975585938
1669.4571332434	1005.20001220703
1670.06749158675	999.799987792969
1670.67776974062	995
1671.28796771243	998
1671.8980855096	1000.40002441406
1672.50812313954	991.400024414063
1673.11808060967	990.799987792969
1673.72795792739	992
1674.33775510013	997.400024414063
1674.9474721353	995.799987792969
1675.55710904031	990.200012207031
1676.16666582257	992.799987792969
1676.7761424895	993
1677.38553904851	992.799987792969
1677.99485550702	990
1678.60409187243	983.200012207031
1679.21324815215	990.799987792969
1679.8223243536	995
1680.43132048419	990.400024414063
1681.04023655132	990.799987792969
1681.64907256241	990.400024414063
1682.25782852487	992.799987792969
1682.86650444611	994
1683.47510033353	997.799987792969
1684.08361619455	996.200012207031
1684.69205203657	996
1685.300407867	992.799987792969
1685.90868369325	993.799987792969
1686.51687952272	990.599975585938
1687.12499536283	993
1687.73303122098	995.400024414063
1688.34098710457	988.400024414063
1688.94886302101	991
1689.55665897772	987.599975585938
1690.16437498208	986.799987792969
1690.77201104152	989.400024414063
1691.37956716342	987.799987792969
1691.9870433552	978.799987792969
1692.59443962426	985
1693.20175597801	980.200012207031
1693.80899242384	982.400024414063
1694.41614896916	979.599975585938
1695.02322562138	986
1695.63022238789	982.799987792969
1696.23713927609	985.599975585938
1696.8439762934	988
1697.4507334472	984.400024414063
1698.05741074491	988.799987792969
1698.66400819391	985.200012207031
1699.27052580161	988
1699.87696357542	988.599975585938
1700.48332152272	991.200012207031
1701.08959965092	994.400024414063
1701.69579796742	987.400024414063
1702.30191647962	982.799987792969
1702.90795519491	989
1703.51391412069	985
1704.11979326437	986.799987792969
1704.72559263332	986.400024414063
1705.33131223496	980.599975585938
1705.93695207668	985.400024414063
1706.54251216588	986.599975585938
1707.14799250994	979.200012207031
1707.75339311628	982.599975585938
1708.35871399227	977.400024414063
1708.96395514532	978.400024414063
1709.56911658282	977.200012207031
