634.948122577771	1160.80004882813
635.690341530823	1156
636.43246851086	1150.80004882813
637.174503525845	1155
637.916446583745	1161.80004882813
638.658297692538	1162.80004882813
639.400056860179	1160.19995117188
640.141724094637	1157.80004882813
640.883299403885	1147.19995117188
641.62478279588	1145
642.366174278594	1138
643.107473859989	1142.80004882813
643.848681548029	1142.19995117188
644.589797350679	1153.59997558594
645.330821275901	1151.40002441406
646.071753331665	1151.59997558594
646.812593525922	1150
647.553341866646	1154
648.293998361798	1143.19995117188
649.03456301933	1135.40002441406
649.775035847216	1128
650.515416853409	1127
651.255706045874	1126.40002441406
651.995903432568	1124.59997558594
652.736009021453	1137.40002441406
653.476022820486	1133.40002441406
654.215944837629	1144.19995117188
654.955775080842	1142.59997558594
655.695513558081	1141.19995117188
656.435160277301	1144
657.174715246465	1154.19995117188
657.914178473527	1157
658.653549966449	1155.19995117188
659.392829733176	1150.59997558594
660.132017781678	1153.59997558594
660.871114119901	1158
661.610118755803	1162.19995117188
662.349031697343	1157.80004882813
663.087852952468	1158.19995117188
663.826582529139	1162.59997558594
664.565220435305	1158.40002441406
665.30376667892	1158.19995117188
666.04222126794	1147
666.780584210316	1153.19995117188
667.518855514	1150.40002441406
668.25703518694	1148.40002441406
668.995123237096	1153.80004882813
669.733119672413	1146
670.471024500842	1148.80004882813
671.208837730333	1141.80004882813
671.946559368839	1149.40002441406
672.684189424308	1153.80004882813
673.421727904689	1157
674.159174817929	1161.80004882813
674.896530171977	1163.80004882813
675.633793974786	1176.40002441406
676.370966234295	1161.40002441406
677.108046958461	1157.80004882813
677.845036155219	1163.80004882813
678.581933832528	1162.19995117188
679.318739998323	1170.59997558594
680.055454660558	1176.40002441406
680.792077827172	1171.59997558594
681.528609506116	1167.19995117188
682.265049705331	1169.19995117188
683.001398432759	1165.40002441406
683.737655696349	1164.59997558594
684.47382150404	1157.19995117188
685.20989586378	1165.80004882813
685.945878783503	1160.59997558594
686.68177027116	1167.40002441406
687.417570334688	1160.59997558594
688.153278982032	1171.59997558594
688.888896221129	1172.40002441406
689.624422059921	1169.40002441406
690.359856506349	1168.40002441406
691.095199568354	1167.40002441406
691.830451253874	1161.19995117188
692.565611570844	1149.19995117188
693.300680527212	1157
694.03565813091	1151.59997558594
694.770544389877	1147.59997558594
695.505339312053	1152.80004882813
696.240042905372	1164.40002441406
696.974655177772	1159.59997558594
697.70917613719	1163.40002441406
698.443605791561	1165.59997558594
699.177944148826	1166.19995117188
699.912191216909	1161.80004882813
700.646347003755	1162
701.380411517295	1167
702.114384765465	1174.40002441406
702.848266756195	1170.80004882813
703.582057497421	1164.40002441406
704.315756997074	1166.59997558594
705.049365263089	1155.40002441406
705.782882303399	1157.80004882813
706.516308125936	1162.80004882813
707.249642738626	1166.40002441406
707.982886149403	1165.40002441406
708.716038366204	1172.59997558594
709.449099396949	1167.80004882813
710.182069249577	1169.80004882813
710.914947932009	1171
711.647735452181	1171.80004882813
712.380431818022	1171.40002441406
713.113037037454	1168.59997558594
713.845551118411	1168.80004882813
714.577974068818	1175.19995117188
715.310305896604	1167.59997558594
716.042546609694	1170
716.774696216013	1168.19995117188
717.506754723493	1163.59997558594
718.238722140053	1161
718.970598473624	1157
719.702383732127	1163
720.43407792349	1161.19995117188
721.165681055634	1152.80004882813
721.897193136486	1166.59997558594
722.628614173966	1167
723.359944175997	1169
724.091183150505	1173.40002441406
724.822331105412	1170.80004882813
725.553388048638	1168
726.284353988106	1168.19995117188
727.015228931734	1174.59997558594
727.746012887449	1173.40002441406
728.476705863162	1170.59997558594
729.207307866803	1156.59997558594
729.937818906289	1154.19995117188
730.668238989535	1152.80004882813
731.398568124459	1163.80004882813
732.128806318986	1161.19995117188
732.858953581034	1167.19995117188
733.589009918514	1173
734.318975339348	1169
735.048849851452	1164.59997558594
735.778633462744	1164.59997558594
736.508326181137	1168
737.237928014549	1175
737.967438970897	1176.40002441406
738.696859058095	1159.80004882813
739.426188284054	1167
740.155426656692	1159.80004882813
740.884574183922	1158.80004882813
741.613630873659	1168.80004882813
742.342596733815	1164.80004882813
743.071471772302	1170.19995117188
743.800255997034	1175.40002441406
744.528949415921	1173.80004882813
745.257552036877	1183.19995117188
745.986063867811	1183
746.714484916638	1176.40002441406
747.442815191261	1180.59997558594
748.171054699597	1168.59997558594
748.899203449554	1178
749.627261449039	1171
750.355228705966	1170.40002441406
751.083105228239	1175.80004882813
751.810891023765	1165.19995117188
752.538586100459	1158.80004882813
753.266190466218	1158.59997558594
753.99370412896	1159.19995117188
754.721127096582	1166.40002441406
755.448459377	1180.40002441406
756.175700978114	1180.40002441406
756.902851907828	1180.80004882813
757.629912174055	1183.40002441406
758.356881784688	1188.40002441406
759.083760747639	1177.59997558594
759.810549070817	1176.19995117188
760.537246762113	1175.80004882813
761.263853829442	1176
761.990370280698	1181
762.716796123791	1190.19995117188
763.443131366618	1195.80004882813
764.169376017082	1190.19995117188
764.895530083085	1193.19995117188
765.621593572527	1203.40002441406
766.347566493312	1212.19995117188
767.073448853336	1212.40002441406
767.799240660502	1223.40002441406
768.524941922707	1227.40002441406
769.250552647854	1234.59997558594
769.976072843836	1234.19995117188
770.701502518551	1238.40002441406
771.426841679905	1228.80004882813
772.152090335793	1238.40002441406
772.877248494107	1236.59997558594
773.602316162747	1232.19995117188
774.327293349609	1228.59997558594
775.052180062592	1240.59997558594
775.776976309589	1225
776.501682098496	1219.19995117188
777.226297437206	1220.40002441406
777.950822333616	1223
778.675256795621	1217.19995117188
779.399600831111	1219.80004882813
780.123854447983	1217.19995117188
780.84801765413	1210.40002441406
781.572090457441	1192.80004882813
782.296072865811	1195.19995117188
783.019964887131	1196
783.743766529297	1185.80004882813
784.467477800194	1183.59997558594
785.191098707719	1187.40002441406
785.914629259756	1184
786.638069464194	1187.19995117188
787.361419328932	1173.19995117188
788.084678861852	1181
788.807848070845	1182.80004882813
789.530926963798	1181.19995117188
790.253915548602	1172.19995117188
790.976813833144	1168.59997558594
791.699621825307	1170.40002441406
792.422339532986	1181.59997558594
793.144966964061	1176
793.86750412642	1188.80004882813
794.589951027946	1176.59997558594
795.312307676536	1181.19995117188
796.03457408006	1173.59997558594
796.756750246417	1183.19995117188
797.478836183477	1178.80004882813
798.200831899137	1175.59997558594
798.92273740127	1179
799.644552697769	1185.19995117188
800.36627779651	1187.19995117188
801.087912705374	1174.59997558594
801.809457432251	1182.59997558594
802.530911985017	1181.80004882813
803.252276371558	1181.19995117188
803.973550599748	1174.59997558594
804.694734677472	1175.19995117188
805.415828612611	1176.59997558594
806.136832413045	1186.19995117188
806.857746086646	1168.19995117188
807.578569641305	1178.19995117188
808.299303084892	1192.80004882813
809.019946425289	1190.40002441406
809.740499670372	1181.59997558594
810.460962828022	1173.19995117188
811.181335906114	1177
811.901618912524	1179.19995117188
812.621811855131	1176.80004882813
813.341914741809	1183.19995117188
814.061927580433	1180.19995117188
814.781850378881	1184
815.501683145025	1172.80004882813
816.221425886743	1176.59997558594
816.941078611903	1174.40002441406
817.660641328387	1170
818.380114044065	1177
819.099496766808	1170.59997558594
819.818789504492	1170.40002441406
820.53799226499	1153.40002441406
821.257105056168	1169.40002441406
821.976127885904	1169.19995117188
822.695060762064	1159.40002441406
823.413903692525	1169.80004882813
824.132656685151	1175
824.851319747817	1178
825.569892888388	1168.59997558594
826.288376114739	1176.80004882813
827.006769434737	1172.80004882813
827.725072856249	1176.19995117188
828.443286387142	1166.80004882813
829.161410035285	1180.40002441406
829.87944380855	1180.19995117188
830.597387714798	1172.80004882813
831.315241761898	1182.40002441406
832.033005957715	1165.59997558594
832.750680310119	1171.59997558594
833.468264826969	1166.40002441406
834.18575951614	1170.59997558594
834.903164385486	1170.19995117188
835.620479442878	1168
836.337704696181	1170.40002441406
837.054840153255	1175.59997558594
837.771885821962	1175.19995117188
838.488841710172	1178.59997558594
839.20570782574	1179.59997558594
839.922484176531	1168.80004882813
840.639170770409	1180.80004882813
841.355767615231	1179.40002441406
842.072274718864	1181.80004882813
842.788692089164	1172.80004882813
843.505019733993	1185.59997558594
844.221257661209	1183.40002441406
844.937405878676	1183.59997558594
845.65346439425	1181.80004882813
846.369433215789	1171.80004882813
847.085312351156	1172.19995117188
847.801101808205	1176
848.516801594793	1167.40002441406
849.232411718781	1176.40002441406
849.947932188021	1167.19995117188
850.663363010376	1165.40002441406
851.378704193698	1169.19995117188
852.093955745842	1172.80004882813
852.809117674669	1177.19995117188
853.524189988028	1178.19995117188
854.239172693778	1159.19995117188
854.954065799768	1164
855.668869313857	1174.59997558594
856.383583243899	1168.19995117188
857.098207597743	1166.59997558594
857.812742383246	1176.80004882813
858.527187608255	1168.19995117188
859.241543280628	1163.19995117188
859.955809408218	1163.19995117188
860.669985998868	1164.19995117188
861.384073060437	1168.19995117188
862.098070600772	1167.40002441406
862.811978627724	1177.59997558594
863.52579714914	1171.40002441406
864.239526172873	1167
864.953165706776	1171.19995117188
865.666715758687	1168.40002441406
866.380176336464	1174.59997558594
867.093547447951	1173
867.806829100996	1180.59997558594
868.520021303444	1180.80004882813
869.233124063149	1182.40002441406
869.94613738795	1189
870.659061285693	1184.59997558594
871.37189576423	1186.59997558594
872.084640831403	1183.80004882813
872.797296495057	1178.19995117188
873.509862763039	1185.59997558594
874.22233964319	1180.59997558594
874.934727143353	1181.59997558594
875.647025271374	1180.19995117188
876.359234035097	1181.40002441406
877.071353442361	1170.19995117188
877.783383501015	1174
878.495324218895	1177.80004882813
879.207175603844	1173.59997558594
879.918937663705	1172.40002441406
880.630610406318	1176.80004882813
881.342193839524	1172.19995117188
882.053687971161	1171.80004882813
882.765092809069	1181.80004882813
883.476408361091	1176.19995117188
884.187634635066	1187.40002441406
884.898771638828	1175.40002441406
885.609819380221	1176.59997558594
886.320777867076	1173.80004882813
887.031647107236	1182.80004882813
887.742427108536	1175.80004882813
888.453117878816	1160.80004882813
889.16371942591	1165.19995117188
889.874231757652	1170.59997558594
890.584654881883	1160.19995117188
891.294988806434	1172
892.005233539141	1177.40002441406
892.715389087837	1165.19995117188
893.42545546036	1166.80004882813
894.135432664543	1174.19995117188
894.845320708216	1168.19995117188
895.555119599216	1171.40002441406
896.264829345375	1166.19995117188
896.974449954526	1163
897.683981434496	1163.59997558594
898.393423793125	1166
899.102777038235	1165.59997558594
899.812041177664	1173.80004882813
900.521216219239	1172.59997558594
901.230302170793	1170.80004882813
901.939299040155	1178.80004882813
902.64820683515	1176.19995117188
903.357025563612	1173
904.065755233368	1169.19995117188
904.774395852247	1180
905.482947428076	1182
906.191409968682	1186.80004882813
906.899783481897	1179
907.608067975538	1179.19995117188
908.316263457443	1173.19995117188
909.02436993543	1176.59997558594
909.732387417327	1171.40002441406
910.440315910959	1170.59997558594
911.148155424154	1161
911.855905964731	1172.19995117188
912.563567540521	1175.80004882813
913.271140159339	1167
913.978623829017	1168.80004882813
914.686018557374	1170.59997558594
915.393324352237	1175.80004882813
916.100541221421	1176.80004882813
916.807669172752	1162
917.514708214054	1173.19995117188
918.221658353142	1173
918.928519597843	1169.19995117188
919.635291955976	1173
920.341975435358	1162.80004882813
921.048570043813	1172
921.75507578916	1171.59997558594
922.461492679212	1173.59997558594
923.167820721795	1167.59997558594
923.874059924726	1172.40002441406
924.58021029582	1173.19995117188
925.286271842893	1166.59997558594
925.992244573769	1169.59997558594
926.698128496262	1159.40002441406
927.403923618184	1168.19995117188
928.109629947355	1169.19995117188
928.815247491593	1179.19995117188
929.520776258708	1170.80004882813
930.226216256519	1166.40002441406
930.931567492841	1170.80004882813
931.636829975482	1180.19995117188
932.342003712263	1167
933.047088710995	1166
933.752084979491	1170
934.456992525564	1175.80004882813
935.161811357024	1167.19995117188
935.866541481688	1167.40002441406
936.571182907363	1160.19995117188
937.275735641861	1163
937.980199692995	1162.19995117188
938.684575068572	1165.40002441406
939.388861776411	1170.19995117188
940.093059824311	1163.59997558594
940.797169220085	1163
941.501189971544	1165.80004882813
942.205122086495	1160.80004882813
942.908965572751	1160.19995117188
943.612720438111	1153
944.316386690391	1154.40002441406
945.019964337391	1162.40002441406
945.723453386924	1162.80004882813
946.426853846795	1169
947.130165724808	1166.40002441406
947.83338902877	1160
948.536523766488	1161.40002441406
949.239569945764	1167
949.942527574402	1163.59997558594
950.64539666021	1166
951.348177210993	1158.59997558594
952.050869234548	1160.40002441406
952.753472738683	1153.80004882813
953.455987731199	1160.19995117188
954.158414219898	1152.19995117188
954.860752212587	1153.40002441406
955.563001717061	1156.59997558594
956.265162741124	1152.80004882813
956.967235292576	1161.59997558594
957.669219379224	1162.59997558594
958.371115008857	1148.19995117188
959.072922189283	1145.59997558594
959.774640928301	1146.40002441406
960.476271233708	1148.80004882813
961.177813113301	1150.19995117188
961.879266574882	1152.40002441406
962.580631626248	1151.59997558594
963.281908275194	1149.80004882813
963.98309652952	1163.80004882813
964.684196397022	1160.59997558594
965.3852078855	1168
966.086131002745	1165.59997558594
966.786965756555	1163.40002441406
967.487712154726	1150.19995117188
968.188370205055	1155.40002441406
968.888939915331	1164.80004882813
969.589421293352	1156.19995117188
970.289814346909	1159.40002441406
970.990119083801	1160
971.690335511819	1151.19995117188
972.39046363875	1154
973.090503472398	1151.59997558594
973.790455020545	1150.19995117188
974.490318290987	1151.19995117188
975.190093291516	1153
975.889780029923	1154.80004882813
976.589378513998	1161.80004882813
977.288888751527	1163.80004882813
977.988310750308	1156.40002441406
978.687644518122	1159.59997558594
979.386890062767	1153.80004882813
980.086047392025	1155.19995117188
980.785116513689	1161.80004882813
981.484097435542	1162.40002441406
982.182990165377	1160
982.88179471098	1158.59997558594
983.580511080137	1145.40002441406
984.279139280632	1151.59997558594
984.977679320253	1153.40002441406
985.67613120679	1161.59997558594
986.374494948027	1155.19995117188
987.072770551745	1160.80004882813
987.770958025731	1156.40002441406
988.469057377772	1153.59997558594
989.167068615649	1157.19995117188
989.864991747145	1157.59997558594
990.562826780047	1152.59997558594
991.260573722134	1159.80004882813
991.958232581195	1145.80004882813
992.655803365003	1147
993.353286081346	1143
994.050680738006	1152.19995117188
994.74798734276	1151.59997558594
995.44520590339	1149
996.142336427681	1154
996.839378923407	1160.59997558594
997.536333398348	1160.80004882813
998.233199860289	1162.59997558594
998.929978317004	1162.59997558594
999.626668776274	1163.40002441406
1000.32327124587	1156.19995117188
1001.01978573359	1164.80004882813
1001.71621224718	1159.19995117188
1002.41255079445	1164.19995117188
1003.10880138315	1156.40002441406
1003.80496402107	1172.59997558594
1004.50103871599	1166.59997558594
1005.19702547567	1157.19995117188
1005.8929243079	1168.19995117188
1006.58873522045	1154.59997558594
1007.2844582211	1163
1007.98009331761	1159.40002441406
1008.67564051776	1160.59997558594
1009.37109982933	1165
1010.06647126009	1160.59997558594
1010.7617548178	1155.59997558594
1011.45695051026	1159.40002441406
1012.15205834522	1151
1012.84707833045	1158.40002441406
1013.54201047373	1168
1014.23685478284	1170.19995117188
1014.93161126553	1162.40002441406
1015.62627992959	1167.59997558594
1016.32086078277	1173.80004882813
1017.01535383285	1168.40002441406
1017.70975908761	1167.40002441406
1018.40407655479	1181.40002441406
1019.09830624219	1164.59997558594
1019.79244815755	1168.19995117188
1020.48650230866	1170.19995117188
1021.18046870328	1152.59997558594
1021.87434734917	1149.59997558594
1022.56813825411	1148.40002441406
1023.26184142584	1150.80004882813
1023.95545687216	1143.40002441406
1024.64898460082	1148.59997558594
1025.34242461957	1149.19995117188
1026.0357769362	1153
1026.72904155846	1146.80004882813
1027.42221849412	1153.19995117188
1028.11530775094	1155.80004882813
1028.80830933668	1148.40002441406
1029.50122325911	1152.40002441406
1030.19404952599	1151
1030.88678814508	1158.59997558594
1031.57943912414	1155.59997558594
1032.27200247093	1159.19995117188
1032.96447819323	1157
1033.65686629878	1153.80004882813
1034.34916679534	1168
1035.04137969068	1166.40002441406
1035.73350499256	1167.59997558594
1036.42554270874	1164.19995117188
1037.11749284697	1159.40002441406
1037.80935541501	1158.80004882813
1038.50113042062	1165.80004882813
1039.19281787156	1161.59997558594
1039.88441777559	1164.19995117188
1040.57593014046	1161.40002441406
1041.26735497393	1164.40002441406
1041.95869228376	1160.80004882813
1042.6499420777	1159.59997558594
1043.3411043635	1163.80004882813
1044.03217914893	1152.19995117188
1044.72316644174	1160.40002441406
1045.41406624968	1150.19995117188
1046.1048785805	1141.19995117188
1046.79560344197	1140.19995117188
1047.48624084182	1135
1048.17679078783	1142.19995117188
1048.86725328774	1142.19995117188
1049.55762834929	1146.59997558594
1050.24791598025	1136
1050.93811618837	1143.40002441406
1051.62822898139	1142.59997558594
1052.31825436707	1155.80004882813
1053.00819235315	1150.40002441406
1053.6980429474	1140.19995117188
1054.38780615755	1140
1055.07748199136	1131.19995117188
1055.76707045658	1133.40002441406
1056.45657156095	1137.80004882813
1057.14598531222	1137.80004882813
1057.83531171814	1130.80004882813
1058.52455078646	1148
1059.21370252494	1153.59997558594
1059.90276694129	1146
1060.5917440433	1140.59997558594
1061.28063383868	1153
1061.9694363352	1143.59997558594
1062.65815154059	1144.19995117188
1063.34677946261	1143.59997558594
1064.03532010899	1148.80004882813
1064.72377348748	1151.40002441406
1065.41213960583	1145.40002441406
1066.10041847177	1151
1066.78861009306	1148
1067.47671447743	1151.80004882813
1068.16473163263	1149.80004882813
1068.85266156639	1150.59997558594
1069.54050428647	1153.19995117188
1070.2282598006	1142.19995117188
1070.91592811652	1145.59997558594
1071.60350924198	1149.59997558594
1072.29100318471	1149.40002441406
1072.97840995245	1142.59997558594
1073.66572955295	1137.19995117188
1074.35296199394	1145.80004882813
1075.04010728316	1141.59997558594
1075.72716542836	1138.40002441406
1076.41413643726	1147.40002441406
1077.10102031761	1144
1077.78781707715	1136.40002441406
1078.4745267236	1144.40002441406
1079.16114926471	1146.80004882813
1079.84768470822	1144.40002441406
1080.53413306185	1142.40002441406
1081.22049433336	1144.19995117188
1081.90676853046	1136
1082.5929556609	1158
1083.27905573241	1148
1083.96506875272	1151.40002441406
1084.65099472957	1149.80004882813
1085.3368336707	1148.19995117188
1086.02258558383	1153.40002441406
1086.70825047669	1153.59997558594
1087.39382835703	1152.59997558594
1088.07931923257	1144
1088.76472311104	1143
1089.45004000018	1148.19995117188
1090.13526990771	1141.40002441406
1090.82041284137	1141.59997558594
1091.50546880889	1151.19995117188
1092.19043781799	1145
1092.87531987642	1145.59997558594
1093.56011499188	1143.80004882813
1094.24482317212	1141.19995117188
1094.92944442486	1139
1095.61397875783	1152.80004882813
1096.29842617876	1157
1096.98278669537	1157.40002441406
1097.6670603154	1160.80004882813
1098.35124704656	1149
1099.03534689659	1146.59997558594
1099.71935987322	1148.19995117188
1100.40328598416	1143.80004882813
1101.08712523713	1146.40002441406
1101.77087763988	1151.19995117188
1102.45454320012	1149.59997558594
1103.13812192557	1146.59997558594
1103.82161382396	1150.40002441406
1104.50501890301	1151.80004882813
1105.18833717045	1150.59997558594
1105.87156863399	1145
1106.55471330137	1136
1107.2377711803	1130
1107.9207422785	1140.80004882813
1108.60362660369	1146.80004882813
1109.2864241636	1151
1109.96913496594	1143.40002441406
1110.65175901844	1147.19995117188
1111.33429632882	1144.19995117188
1112.01674690479	1148.80004882813
1112.69911075408	1141.80004882813
1113.38138788439	1138.80004882813
1114.06357830346	1138.80004882813
1114.745682019	1139
1115.42769903872	1146.40002441406
1116.10962937035	1146.19995117188
1116.7914730216	1149.40002441406
1117.47323000018	1149.80004882813
1118.15490031382	1144.19995117188
1118.83648397022	1140.40002441406
1119.51798097712	1135
1120.1993913422	1145.40002441406
1120.88071507321	1137
1121.56195217784	1144.40002441406
1122.24310266381	1149.80004882813
1122.92416653884	1144.80004882813
1123.60514381064	1146.80004882813
1124.28603448692	1140.59997558594
1124.9668385754	1153.40002441406
1125.64755608378	1163.80004882813
1126.32818701978	1158.59997558594
1127.00873139111	1159.80004882813
1127.68918920548	1163.19995117188
1128.3695604706	1156.40002441406
1129.04984519419	1156.19995117188
1129.73004338394	1157.19995117188
1130.41015504758	1157.80004882813
1131.09018019281	1148.40002441406
1131.77011882734	1144.19995117188
1132.44997095888	1149.80004882813
1133.12973659514	1148
1133.80941574381	1142.59997558594
1134.48900841263	1146.40002441406
1135.16851460927	1147.40002441406
1135.84793434147	1147.40002441406
1136.52726761692	1150.80004882813
1137.20651444333	1149.40002441406
1137.8856748284	1148.59997558594
1138.56474877984	1150
1139.24373630536	1154.59997558594
1139.92263741265	1145.40002441406
1140.60145210943	1150.80004882813
1141.28018040339	1146
1141.95882230225	1144.19995117188
1142.6373778137	1140.40002441406
1143.31584694545	1152.19995117188
1143.99422970519	1141.40002441406
1144.67252610064	1139.59997558594
1145.35073613949	1136.40002441406
1146.02885982944	1140.80004882813
1146.7068971782	1138.19995117188
1147.38484819347	1141.40002441406
1148.06271288294	1141.40002441406
1148.74049125432	1137.19995117188
1149.41818331531	1133.59997558594
1150.0957890736	1130.19995117188
1150.77330853689	1132.19995117188
1151.45074171289	1136.80004882813
1152.12808860928	1132
1152.80534923378	1140
1153.48252359407	1147.80004882813
1154.15961169786	1151
1154.83661355283	1142.40002441406
1155.51352916669	1144.59997558594
1156.19035854713	1138.80004882813
1156.86710170185	1142.59997558594
1157.54375863855	1138.59997558594
1158.22032936491	1135.59997558594
1158.89681388863	1129.40002441406
1159.57321221741	1143.40002441406
1160.24952435894	1145.40002441406
1160.92575032092	1141.59997558594
1161.60189011103	1148
1162.27794373697	1141.19995117188
1162.95391120644	1138.40002441406
1163.62979252712	1139
1164.3055877067	1152
1164.98129675288	1148.40002441406
1165.65691967336	1142
1166.33245647581	1142
1167.00790716792	1138.19995117188
1167.6832717574	1148
1168.35855025193	1147
1169.0337426592	1139.40002441406
1169.70884898689	1157.59997558594
1170.3838692427	1152.19995117188
1171.05880343431	1160.40002441406
1171.73365156941	1153.59997558594
1172.40841365569	1150.80004882813
1173.08308970083	1150.19995117188
1173.75767971253	1151.59997558594
1174.43218369847	1144.40002441406
1175.10660166633	1152.80004882813
1175.7809336238	1153.19995117188
1176.45517957857	1156.19995117188
1177.12933953832	1160
1177.80341351073	1152
1178.47740150349	1159.40002441406
1179.15130352429	1159.80004882813
1179.8251195808	1161.40002441406
1180.49884968071	1154.40002441406
1181.1724938317	1159.40002441406
1181.84605204145	1154
1182.51952431766	1160.59997558594
1183.19291066799	1149.40002441406
1183.86621110013	1157.40002441406
1184.53942562176	1163
1185.21255424057	1175
1185.88559696422	1178.59997558594
1186.55855380041	1168.40002441406
1187.2314247568	1170.59997558594
1187.90420984109	1165.19995117188
1188.57690906095	1161.19995117188
1189.24952242405	1157.59997558594
1189.92204993808	1161.40002441406
1190.59449161071	1164.80004882813
1191.26684744962	1166.59997558594
1191.93911746249	1168
1192.61130165699	1158.40002441406
1193.28340004081	1160.59997558594
1193.95541262161	1160.59997558594
1194.62733940707	1160.19995117188
1195.29918040487	1158.59997558594
1195.97093562269	1160
1196.64260506819	1159.19995117188
1197.31418874905	1151.40002441406
1197.98568667295	1162.19995117188
1198.65709884755	1162.80004882813
1199.32842528053	1165.40002441406
1199.99966597957	1156.19995117188
1200.67082095234	1144.59997558594
1201.3418902065	1153.19995117188
1202.01287374974	1148.40002441406
1202.68377158971	1146
1203.3545837341	1146.80004882813
1204.02531019057	1149.40002441406
1204.6959509668	1156.80004882813
1205.36650607045	1145.19995117188
1206.03697550919	1152.19995117188
1206.70735929069	1146.19995117188
1207.37765742263	1148
1208.04786991266	1143.59997558594
1208.71799676846	1146.40002441406
1209.38803799769	1140.19995117188
1210.05799360803	1143.80004882813
1210.72786360714	1138.40002441406
1211.39764800268	1147.80004882813
1212.06734680233	1137.40002441406
1212.73696001375	1142.40002441406
1213.4064876446	1135.19995117188
1214.07592970255	1134.19995117188
1214.74528619526	1134.80004882813
1215.4145571304	1136
1216.08374251564	1146.59997558594
1216.75284235863	1140.40002441406
1217.42185666704	1143.19995117188
1218.09078544854	1140.59997558594
1218.75962871078	1138
1219.42838646143	1136.40002441406
1220.09705870816	1143.19995117188
1220.76564545861	1133
1221.43414672046	1134.40002441406
1222.10256250136	1133.59997558594
1222.77089280898	1127.19995117188
1223.43913765098	1129.80004882813
1224.107297035	1133.40002441406
1224.77537096873	1136.59997558594
1225.44335945981	1122
1226.1112625159	1128.80004882813
1226.77908014467	1122
1227.44681235376	1120.19995117188
1228.11445915085	1116.80004882813
1228.78202054357	1115
1229.44949653961	1117.59997558594
1230.11688714659	1127.59997558594
1230.7841923722	1134.80004882813
1231.45141222407	1125.59997558594
1232.11854670988	1122.80004882813
1232.78559583726	1129.80004882813
1233.45255961388	1124.59997558594
1234.1194380474	1122.19995117188
1234.78623114546	1120.80004882813
1235.45293891572	1119.19995117188
1236.11956136583	1120.80004882813
1236.78609850345	1120.59997558594
1237.45255033623	1127.40002441406
1238.11891687182	1129.59997558594
1238.78519811788	1133
1239.45139408205	1132
1240.11750477198	1137.59997558594
1240.78353019534	1135.19995117188
1241.44947035976	1129.40002441406
1242.11532527291	1119.80004882813
1242.78109494242	1117.40002441406
1243.44677937595	1121.40002441406
1244.11237858115	1122
1244.77789256567	1120.59997558594
1245.44332133715	1134.40002441406
1246.10866490325	1126.40002441406
1246.7739232716	1128.19995117188
1247.43909644987	1122
1248.10418444569	1120.59997558594
1248.76918726671	1126
1249.43410492059	1116.59997558594
1250.09893741496	1122.59997558594
1250.76368475747	1124.59997558594
1251.42834695576	1128.59997558594
1252.09292401749	1122.40002441406
1252.75741595029	1123
1253.42182276182	1125
1254.08614445971	1121.80004882813
1254.75038105161	1126.19995117188
1255.41453254515	1115.19995117188
1256.07859894799	1117.40002441406
1256.74258026777	1124.59997558594
1257.40647651213	1125
1258.0702876887	1120.80004882813
1258.73401380514	1117.40002441406
1259.39765486908	1126.40002441406
1260.06121088817	1125.19995117188
1260.72468187004	1115
1261.38806782233	1120.19995117188
1262.05136875269	1119.59997558594
1262.71458466875	1125.59997558594
1263.37771557815	1120.19995117188
1264.04076148854	1120.19995117188
1264.70372240753	1124.40002441406
1265.3665983428	1133.40002441406
1266.02938930195	1131
1266.69209529263	1121.80004882813
1267.35471632249	1132.59997558594
1268.01725239914	1138.59997558594
1268.67970353024	1124
1269.34206972342	1126.59997558594
1270.00435098631	1133.40002441406
1270.66654732655	1136.40002441406
1271.32865875177	1129.59997558594
1271.9906852696	1121.59997558594
1272.65262688768	1129.19995117188
1273.31448361365	1119.19995117188
1273.97625545514	1125.19995117188
1274.63794241978	1125
1275.2995445152	1125.80004882813
1275.96106174903	1124.19995117188
1276.62249412892	1129.80004882813
1277.28384166248	1127.80004882813
1277.94510435735	1123.19995117188
1278.60628222116	1128.40002441406
1279.26737526155	1123.40002441406
1279.92838348613	1122.19995117188
1280.58930690255	1131.19995117188
1281.25014551842	1133.80004882813
1281.91089934139	1128.80004882813
1282.57156837907	1125.40002441406
1283.2321526391	1116.80004882813
1283.89265212911	1117.59997558594
1284.55306685671	1112
1285.21339682955	1114.80004882813
1285.87364205525	1117.40002441406
1286.53380254142	1116.40002441406
1287.19387829571	1114
1287.85386932573	1121
1288.51377563911	1113.80004882813
1289.17359724348	1115.19995117188
1289.83333414646	1120
1290.49298635567	1117.80004882813
1291.15255387874	1122.80004882813
1291.8120367233	1114.40002441406
1292.47143489696	1125
1293.13074840736	1123.59997558594
1293.7899772621	1123
1294.44912146882	1121.19995117188
1295.10818103513	1121
1295.76715596866	1119.80004882813
1296.42604627704	1119.19995117188
1297.08485196787	1117.19995117188
1297.74357304878	1123.19995117188
1298.4022095274	1141.80004882813
1299.06076141134	1127.40002441406
1299.71922870821	1128.59997558594
1300.37761142565	1129.40002441406
1301.03590957126	1126.59997558594
1301.69412315268	1126.19995117188
1302.3522521775	1129.59997558594
1303.01029665336	1131.40002441406
1303.66825658787	1134.40002441406
1304.32613198865	1129.40002441406
1304.98392286332	1126
1305.64162921948	1136.80004882813
1306.29925106476	1139.80004882813
1306.95678840677	1143.40002441406
1307.61424125312	1137.19995117188
1308.27160961145	1139
1308.92889348934	1141.40002441406
1309.58609289443	1141
1310.24320783432	1131.19995117188
1310.90023831664	1141.80004882813
1311.55718434898	1146
1312.21404593897	1140
1312.87082309421	1142.80004882813
1313.52751582233	1140.40002441406
1314.18412413092	1131.19995117188
1314.84064802761	1135.80004882813
1315.49708752	1145.40002441406
1316.1534426157	1130.80004882813
1316.80971332233	1137.19995117188
1317.46589964749	1132.19995117188
1318.1220015988	1133.40002441406
1318.77801918386	1132.59997558594
1319.43395241028	1131.19995117188
1320.08980128567	1130.19995117188
1320.74556581764	1137.40002441406
1321.4012460138	1144.59997558594
1322.05684188176	1139
1322.71235342911	1131.19995117188
1323.36778066347	1127.40002441406
1324.02312359245	1127.19995117188
1324.67838222365	1131.40002441406
1325.33355656468	1124
1325.98864662314	1127.59997558594
1326.64365240663	1121
1327.29857392277	1109.40002441406
1327.95341117915	1107.80004882813
1328.60816418339	1115.59997558594
1329.26283294308	1111.59997558594
1329.91741746582	1107.19995117188
1330.57191775923	1101.80004882813
1331.2263338309	1118.19995117188
1331.88066568843	1113.80004882813
1332.53491333943	1103.19995117188
1333.1890767915	1117.59997558594
1333.84315605224	1118.59997558594
1334.49715112925	1117.19995117188
1335.15106203013	1112.40002441406
1335.80488876249	1124.19995117188
1336.45863133391	1122.40002441406
1337.112289752	1124.59997558594
1337.76586402437	1116
1338.4193541586	1118.59997558594
1339.0727601623	1122.59997558594
1339.72608204306	1125.80004882813
1340.37931980849	1122
1341.03247346617	1126.40002441406
1341.68554302372	1122.80004882813
1342.33852848871	1127
1342.99142986876	1127.59997558594
1343.64424717145	1122.59997558594
1344.29698040438	1128.59997558594
1344.94962957515	1130.80004882813
1345.60219469135	1133.80004882813
1346.25467576058	1141.19995117188
1346.90707279042	1150
1347.55938578848	1151.80004882813
1348.21161476235	1146
1348.86375971962	1149
1349.51582066787	1149
1350.16779761472	1142.19995117188
1350.81969056774	1141.80004882813
1351.47149953453	1143.40002441406
1352.12322452269	1148.80004882813
1352.77486553979	1147.80004882813
1353.42642259344	1158.80004882813
1354.07789569122	1166.59997558594
1354.72928484072	1167.19995117188
1355.38059004953	1161.40002441406
1356.03181132525	1159.80004882813
1356.68294867545	1165
1357.33400210773	1167.59997558594
1357.98497162968	1165.19995117188
1358.63585724889	1168.80004882813
1359.28665897294	1175
1359.93737680942	1173.80004882813
1360.58801076591	1170.59997558594
1361.23856085001	1181
1361.88902706929	1175.59997558594
1362.53940943135	1185.19995117188
1363.18970794377	1184.59997558594
1363.83992261413	1173.80004882813
1364.49005345003	1171.80004882813
1365.14010045904	1179
1365.79006364874	1178.19995117188
1366.43994302673	1177.80004882813
1367.08973860058	1167.80004882813
1367.73945037788	1164
1368.38907836621	1155.40002441406
1369.03862257315	1160.59997558594
1369.68808300629	1155.59997558594
1370.3374596732	1150
1370.98675258148	1145.59997558594
1371.63596173868	1140.40002441406
1372.28508715241	1136
1372.93412883024	1141.40002441406
1373.58308677974	1138.59997558594
1374.2319610085	1132.40002441406
1374.8807515241	1128.80004882813
1375.52945833412	1125
1376.17808144612	1121.19995117188
1376.82662086771	1116.40002441406
1377.47507660644	1105.19995117188
1378.12344866989	1115.40002441406
1378.77173706565	1118
1379.41994180129	1120.59997558594
1380.06806288439	1122.80004882813
1380.71610032252	1120.80004882813
1381.36405412326	1121
1382.01192429419	1120.40002441406
1382.65971084287	1112.40002441406
1383.30741377688	1117.80004882813
1383.95503310381	1120
1384.60256883121	1124.80004882813
1385.25002096667	1119.40002441406
1385.89738951775	1126.80004882813
1386.54467449204	1117
1387.19187589709	1116
1387.8389937405	1110
1388.48602802982	1103.19995117188
1389.13297877262	1106.80004882813
1389.77984597649	1103.80004882813
1390.42662964899	1115.19995117188
1391.07332979768	1108
1391.71994643015	1107.59997558594
1392.36647955395	1104
1393.01292917667	1094
1393.65929530586	1105.40002441406
1394.3055779491	1108.40002441406
1394.95177711395	1098.80004882813
1395.59789280799	1100.40002441406
1396.24392503877	1104.19995117188
1396.88987381387	1099.59997558594
1397.53573914086	1094.59997558594
1398.1815210273	1101.59997558594
1398.82721948075	1097.59997558594
1399.47283450878	1093.59997558594
1400.11836611897	1095
1400.76381431886	1089.59997558594
1401.40917911603	1091
1402.05446051805	1086.80004882813
1402.69965853247	1091.19995117188
1403.34477316686	1094.40002441406
1403.98980442878	1095.40002441406
1404.6347523258	1089.80004882813
1405.27961686548	1096.59997558594
1405.92439805538	1105.40002441406
1406.56909590306	1096.40002441406
1407.21371041608	1095.80004882813
1407.85824160202	1103.80004882813
1408.50268946841	1098.40002441406
1409.14705402284	1099.80004882813
1409.79133527285	1102.40002441406
1410.43553322601	1113.19995117188
1411.07964788987	1099.40002441406
1411.723679272	1105.59997558594
1412.36762737996	1100.40002441406
1413.01149222129	1098.40002441406
1413.65527380357	1099.40002441406
1414.29897213435	1103.59997558594
1414.94258722118	1103.40002441406
1415.58611907163	1100.59997558594
1416.22956769325	1104.59997558594
1416.87293309359	1100.19995117188
1417.51621528021	1103.40002441406
1418.15941426067	1110.40002441406
1418.80253004253	1106.40002441406
1419.44556263333	1104
1420.08851204063	1107.80004882813
1420.731378272	1112.59997558594
1421.37416133497	1108.80004882813
1422.0168612371	1104
1422.65947798596	1108
1423.30201158908	1106.59997558594
1423.94446205403	1105.80004882813
1424.58682938835	1105
1425.2291135996	1106.59997558594
1425.87131469532	1106
1426.51343268308	1103.40002441406
1427.15546757042	1108.40002441406
1427.79741936488	1108.19995117188
1428.43928807403	1102
1429.0810737054	1103
1429.72277626656	1103.59997558594
1430.36439576504	1101
1431.00593220841	1091.80004882813
1431.64738560419	1098.80004882813
1432.28875595995	1098
1432.93004328324	1096.40002441406
1433.57124758159	1096.80004882813
1434.21236886255	1099.59997558594
1434.85340713368	1093
1435.49436240252	1103.40002441406
1436.13523467661	1107
1436.77602396349	1099
1437.41673027073	1097.40002441406
1438.05735360585	1096.19995117188
1438.69789397641	1099
1439.33835138994	1099.40002441406
1439.978725854	1104.80004882813
1440.61901737612	1095.59997558594
1441.25922596385	1090
1441.89935162473	1099.19995117188
1442.53939436631	1100.40002441406
1443.17935419612	1105.59997558594
1443.81923112171	1098
1444.45902515061	1098
1445.09873629038	1101
1445.73836454854	1099
1446.37790993265	1109
1447.01737245024	1098.19995117188
1447.65675210885	1103
1448.29604891602	1098.59997558594
1448.93526287928	1097.80004882813
1449.57439400618	1098.59997558594
1450.21344230426	1102.19995117188
1450.85240778105	1096.80004882813
1451.49129044409	1098
1452.13009030092	1085.40002441406
1452.76880735907	1087.80004882813
1453.40744162608	1090
1454.04599310949	1085.59997558594
1454.68446181683	1094.59997558594
1455.32284775564	1091.80004882813
1455.96115093345	1096
1456.5993713578	1088.40002441406
1457.23750903623	1092
1457.87556397626	1092.80004882813
1458.51353618543	1094
1459.15142567127	1088.40002441406
1459.78923244132	1092.40002441406
1460.42695650311	1091
1461.06459786417	1094.59997558594
1461.70215653203	1086.80004882813
1462.33963251423	1094.40002441406
1462.97702581829	1091.80004882813
1463.61433645175	1096
1464.25156442214	1093.80004882813
1464.88870973699	1094.40002441406
1465.52577240382	1088.40002441406
1466.16275243017	1085.19995117188
1466.79964982356	1086.19995117188
1467.43646459154	1090.59997558594
1468.07319674161	1095.19995117188
1468.70984628132	1096
1469.34641321818	1093.80004882813
1469.98289755974	1095.59997558594
1470.6192993135	1101.40002441406
1471.25561848701	1095.59997558594
1471.89185508779	1107.19995117188
1472.52800912336	1103.59997558594
1473.16408060124	1097.80004882813
1473.80006952897	1101.80004882813
1474.43597591407	1096
1475.07179976406	1100.59997558594
1475.70754108647	1101.19995117188
1476.34319988883	1106.80004882813
1476.97877617865	1107.40002441406
1477.61426996345	1107.59997558594
1478.24968125077	1097
1478.88501004812	1103.19995117188
1479.52025636303	1096.80004882813
1480.15542020302	1101.80004882813
1480.79050157561	1101.40002441406
1481.42550048832	1095
1482.06041694867	1096.59997558594
1482.69525096418	1095.59997558594
1483.33000254237	1094.40002441406
1483.96467169077	1097
1484.59925841689	1098.40002441406
1485.23376272825	1094.80004882813
1485.86818463237	1091
1486.50252413677	1092.80004882813
1487.13678124896	1096.19995117188
1487.77095597646	1099.80004882813
1488.4050483268	1109
1489.03905830749	1105.40002441406
1489.67298592604	1102.80004882813
1490.30683118996	1099.80004882813
1490.9405941068	1106
1491.57427468403	1103.59997558594
1492.2078729292	1098.19995117188
1492.84138884981	1099
1493.47482245338	1102.80004882813
1494.10817374742	1097.19995117188
1494.74144273944	1095.80004882813
1495.37462943696	1104.80004882813
1496.0077338475	1100.59997558594
1496.64075597856	1111.19995117188
1497.27369583765	1104.19995117188
1497.9065534323	1101
1498.53932877001	1100.19995117188
1499.17202185829	1099.19995117188
1499.80463270465	1105.59997558594
1500.43716131661	1107.59997558594
1501.06960770167	1106.40002441406
1501.70197186735	1109
1502.33425382116	1113.40002441406
1502.96645357059	1110.40002441406
1503.59857112317	1118
1504.23060648641	1109.80004882813
1504.8625596678	1104.59997558594
1505.49443067486	1115
1506.1262195151	1120.40002441406
1506.75792619602	1116.19995117188
1507.38955072513	1117.80004882813
1508.02109310993	1112
1508.65255335794	1106.19995117188
1509.28393147666	1115.80004882813
1509.91522747359	1109
1510.54644135624	1104
1511.17757313212	1112.19995117188
1511.80862280872	1118.80004882813
1512.43959039356	1107.80004882813
1513.07047589413	1106.19995117188
1513.70127931795	1108.40002441406
1514.33200067251	1105.19995117188
1514.96263996531	1101
1515.59319720386	1096.19995117188
1516.22367239567	1088.80004882813
1516.85406554822	1091.40002441406
1517.48437666903	1092.80004882813
1518.1146057656	1092
1518.74475284542	1094
1519.374817916	1088.59997558594
1520.00480098483	1090
1520.63470205942	1100.59997558594
1521.26452114726	1097.19995117188
1521.89425825586	1093
1522.52391339271	1085.40002441406
1523.15348656531	1079.59997558594
1523.78297778116	1081.19995117188
1524.41238704775	1084.80004882813
1525.04171437259	1083.19995117188
1525.67095976317	1082.59997558594
1526.30012322699	1088.59997558594
1526.92920477154	1100.40002441406
1527.55820440432	1096.80004882813
1528.18712213283	1088.59997558594
1528.81595796455	1086.80004882813
1529.44471190699	1095
1530.07338396764	1093.59997558594
1530.70197415399	1085.59997558594
1531.33048247353	1084.19995117188
1531.95890893377	1093.40002441406
1532.58725354219	1084.40002441406
1533.21551630629	1091.80004882813
1533.84369723356	1090.59997558594
1534.47179633148	1095.19995117188
1535.09981360757	1085.80004882813
1535.72774906929	1090.40002441406
1536.35560272415	1086.59997558594
1536.98337457963	1085.80004882813
1537.61106464323	1096.59997558594
1538.23867292243	1088.19995117188
1538.86619942473	1083.19995117188
1539.49364415762	1081.80004882813
1540.12100712857	1079
1540.74828834509	1077
1541.37548781466	1074
1542.00260554478	1079.19995117188
1542.62964154291	1080
1543.25659581655	1077.80004882813
1543.8834683732	1090
1544.51025922034	1091.59997558594
1545.13696836544	1086.80004882813
1545.76359581601	1077.40002441406
1546.39014157952	1079.80004882813
1547.01660566345	1085.59997558594
1547.64298807531	1086.59997558594
1548.26928882255	1080.80004882813
1548.89550791269	1084.40002441406
1549.52164535318	1082.40002441406
1550.14770115153	1080
1550.77367531521	1081
1551.39956785171	1078.40002441406
1552.0253787685	1078
1552.65110807307	1074.40002441406
1553.2767557729	1079.80004882813
1553.90232187548	1068.80004882813
1554.52780638828	1073.40002441406
1555.15320931879	1070.59997558594
1555.77853067447	1071
1556.40377046282	1069.59997558594
1557.02892869132	1073.40002441406
1557.65400536744	1066.80004882813
1558.27900049866	1062.80004882813
1558.90391409247	1063.40002441406
1559.52874615633	1065
1560.15349669773	1062.19995117188
1560.77816572414	1076.19995117188
1561.40275324305	1070.19995117188
1562.02725926192	1078.59997558594
1562.65168378824	1078.59997558594
1563.27602682948	1078
1563.90028839311	1080.80004882813
1564.52446848662	1079
1565.14856711748	1076
1565.77258429316	1077.19995117188
1566.39652002113	1075.80004882813
1567.02037430887	1077.40002441406
1567.64414716387	1074.59997558594
1568.26783859357	1080.19995117188
1568.89144860547	1076.59997558594
1569.51497720703	1068.80004882813
1570.13842440573	1075.80004882813
1570.76179020904	1080.80004882813
1571.38507462442	1070.40002441406
1572.00827765936	1083
1572.63139932132	1084.40002441406
1573.25443961777	1083.80004882813
1573.87739855618	1085.40002441406
1574.50027614402	1087.80004882813
1575.12307238877	1084.59997558594
1575.74578729789	1090
1576.36842087885	1084.40002441406
1576.99097313912	1085.40002441406
1577.61344408616	1083.19995117188
1578.23583372745	1076.40002441406
1578.85814207046	1083.40002441406
1579.48036912264	1076.80004882813
1580.10251489147	1078
1580.72457938441	1071.59997558594
1581.34656260893	1078.19995117188
1581.9684645725	1074.19995117188
1582.59028528258	1073.40002441406
1583.21202474663	1059.80004882813
1583.83368297212	1063.40002441406
1584.45525996652	1061
1585.07675573728	1053.19995117188
1585.69817029188	1059.80004882813
1586.31950363778	1060.40002441406
1586.94075578243	1061.40002441406
1587.5619267333	1051.80004882813
1588.18301649786	1062
1588.80402508357	1063.19995117188
1589.42495249788	1067.40002441406
1590.04579874826	1068.59997558594
1590.66656384217	1054.40002441406
1591.28724778707	1058
1591.90785059042	1052.59997558594
1592.52837225968	1056.80004882813
1593.14881280232	1058
1593.76917222578	1055.80004882813
1594.38945053753	1054.80004882813
1595.00964774502	1056
1595.62976385573	1059.40002441406
1596.24979887709	1059.59997558594
1596.86975281657	1056.80004882813
1597.48962568164	1057.80004882813
1598.10941747974	1057.59997558594
1598.72912821832	1061.59997558594
1599.34875790486	1065
1599.9683065468	1066.19995117188
1600.58777415159	1068.80004882813
1601.2071607267	1059.80004882813
1601.82646627958	1054.40002441406
1602.44569081769	1050.40002441406
1603.06483434846	1054
1603.68389687937	1049.80004882813
1604.30287841786	1053
1604.92177897139	1051.40002441406
1605.54059854741	1058.80004882813
1606.15933715337	1050.40002441406
1606.77799479672	1054.40002441406
1607.39657148492	1046
1608.01506722542	1049
1608.63348202566	1051.80004882813
1609.2518158931	1051.40002441406
1609.87006883519	1048.19995117188
1610.48824085939	1053.40002441406
1611.10633197312	1062.19995117188
1611.72434218386	1063.40002441406
1612.34227149904	1055.19995117188
1612.96011992612	1065
1613.57788747254	1066.59997558594
1614.19557414575	1062.59997558594
1614.8131799532	1063.59997558594
1615.43070490234	1071.40002441406
1616.04814900061	1063.59997558594
1616.66551225545	1068
1617.28279467433	1061.80004882813
1617.89999626467	1059
1618.51711703393	1061.40002441406
1619.13415698955	1054.80004882813
1619.75111613898	1056.40002441406
1620.36799448966	1054
1620.98479204903	1054.80004882813
1621.60150882455	1059.19995117188
1622.21814482364	1054.59997558594
1622.83470005376	1056
1623.45117452235	1055.40002441406
1624.06756823685	1052.80004882813
1624.6838812047	1056.40002441406
1625.30011343335	1055
1625.91626493022	1052.19995117188
1626.53233570278	1044
1627.14832575845	1043.40002441406
1627.76423510468	1048
1628.38006374891	1040.19995117188
1628.99581169857	1041
1629.61147896111	1043.19995117188
1630.22706554397	1044.40002441406
1630.84257145457	1046
1631.45799670038	1044.40002441406
1632.07334128881	1047.19995117188
1632.6886052273	1046
1633.3037885233	1047.19995117188
1633.91889118425	1042.80004882813
1634.53391321757	1042.19995117188
1635.1488546307	1044.19995117188
1635.76371543108	1039.40002441406
1636.37849562616	1041
1636.99319522335	1046.59997558594
1637.60781423009	1041.19995117188
1638.22235265383	1047
1638.83681050198	1040.80004882813
1639.451187782	1044
1640.0654845013	1046.80004882813
1640.67970066734	1051.80004882813
1641.29383628752	1051.40002441406
1641.9078913693	1051.19995117188
1642.5218659201	1048.80004882813
1643.13575994735	1051.80004882813
1643.74957345849	1055
1644.36330646094	1060.40002441406
1644.97695896213	1051.80004882813
1645.59053096951	1048.59997558594
1646.20402249049	1055.80004882813
1646.8174335325	1053
1647.43076410298	1059.19995117188
1648.04401420935	1063.80004882813
1648.65718385905	1057.19995117188
1649.2702730595	1056.40002441406
1649.88328181812	1058.40002441406
1650.49621014236	1062.59997558594
1651.10905803963	1060
1651.72182551735	1055.19995117188
1652.33451258297	1051.19995117188
1652.9471192439	1053.59997558594
1653.55964550757	1053.40002441406
1654.1720913814	1045.80004882813
1654.78445687283	1047
1655.39674198926	1047.40002441406
1656.00894673814	1040.40002441406
1656.62107112688	1041.59997558594
1657.23311516291	1038.80004882813
1657.84507885365	1036.59997558594
1658.45696220652	1028.59997558594
1659.06876522895	1024.59997558594
1659.68048792835	1025.80004882813
1660.29213031217	1025
1660.90369238779	1023
1661.51517416267	1021.40002441406
1662.12657564421	1017.20001220703
1662.73789683984	1018.79998779297
1663.34913775697	1017.79998779297
1663.96029840303	1022
1664.57137878544	1015.20001220703
1665.18237891161	1013.20001220703
1665.79329878897	1016.59997558594
1666.40413842493	1017.40002441406
1667.01489782691	1025
1667.62557700233	1016.79998779297
1668.2361759586	1021.20001220703
1668.84669470315	1011.59997558594
1669.4571332434	1012.40002441406
1670.06749158675	1012.79998779297
1670.67776974062	1009.20001220703
1671.28796771243	1007.40002441406
1671.8980855096	1005.20001220703
1672.50812313954	1005.59997558594
1673.11808060967	1001.20001220703
1673.72795792739	997.400024414063
1674.33775510013	1003.59997558594
1674.9474721353	1005.20001220703
1675.55710904031	1002.20001220703
1676.16666582257	1004
1676.7761424895	992.599975585938
1677.38553904851	999.200012207031
1677.99485550702	995
1678.60409187243	997.599975585938
1679.21324815215	995.200012207031
1679.8223243536	999.400024414063
1680.43132048419	1002.79998779297
1681.04023655132	1002.59997558594
1681.64907256241	1001.40002441406
1682.25782852487	1002.20001220703
1682.86650444611	1003.20001220703
1683.47510033353	1003.79998779297
1684.08361619455	1005
1684.69205203657	1002.20001220703
1685.300407867	996.599975585938
1685.90868369325	1003.20001220703
1686.51687952272	1004.20001220703
1687.12499536283	998.200012207031
1687.73303122098	1003
1688.34098710457	1003.20001220703
1688.94886302101	997
1689.55665897772	1004
1690.16437498208	994.400024414063
1690.77201104152	998
1691.37956716342	992.200012207031
1691.9870433552	996.599975585938
1692.59443962426	994.599975585938
1693.20175597801	994
1693.80899242384	988.799987792969
1694.41614896916	995.200012207031
1695.02322562138	991
1695.63022238789	986.599975585938
1696.23713927609	994.599975585938
1696.8439762934	992.200012207031
1697.4507334472	991
1698.05741074491	994.200012207031
1698.66400819391	991
1699.27052580161	988
1699.87696357542	994
1700.48332152272	997.799987792969
1701.08959965092	995
1701.69579796742	993.400024414063
1702.30191647962	995.400024414063
1702.90795519491	999
1703.51391412069	992.200012207031
1704.11979326437	993.799987792969
1704.72559263332	998.400024414063
1705.33131223496	994.400024414063
1705.93695207668	989.799987792969
1706.54251216588	985.799987792969
1707.14799250994	989.799987792969
1707.75339311628	981.799987792969
1708.35871399227	987.400024414063
1708.96395514532	986
1709.56911658282	985.400024414063
