634.948122577771	1249.59997558594
635.690341530823	1254.59997558594
636.43246851086	1265
637.174503525845	1260
637.916446583745	1259.80004882813
638.658297692538	1247.40002441406
639.400056860179	1247.59997558594
640.141724094637	1248
640.883299403885	1232.59997558594
641.62478279588	1236.40002441406
642.366174278594	1238.19995117188
643.107473859989	1237.59997558594
643.848681548029	1254.80004882813
644.589797350679	1243
645.330821275901	1246.40002441406
646.071753331665	1238
646.812593525922	1248.59997558594
647.553341866646	1247.19995117188
648.293998361798	1247
649.03456301933	1241
649.775035847216	1249.40002441406
650.515416853409	1247.80004882813
651.255706045874	1247.40002441406
651.995903432568	1239.80004882813
652.736009021453	1248.19995117188
653.476022820486	1242.80004882813
654.215944837629	1248
654.955775080842	1254.40002441406
655.695513558081	1258
656.435160277301	1256
657.174715246465	1260.59997558594
657.914178473527	1254
658.653549966449	1250.19995117188
659.392829733176	1247.40002441406
660.132017781678	1240.19995117188
660.871114119901	1246.40002441406
661.610118755803	1249.40002441406
662.349031697343	1238.80004882813
663.087852952468	1242.19995117188
663.826582529139	1251.80004882813
664.565220435305	1248.80004882813
665.30376667892	1251.19995117188
666.04222126794	1248
666.780584210316	1252
667.518855514	1255.59997558594
668.25703518694	1248.59997558594
668.995123237096	1259
669.733119672413	1255.40002441406
670.471024500842	1252.80004882813
671.208837730333	1258.80004882813
671.946559368839	1242.59997558594
672.684189424308	1238.19995117188
673.421727904689	1231.40002441406
674.159174817929	1250.40002441406
674.896530171977	1252.59997558594
675.633793974786	1247.59997558594
676.370966234295	1256
677.108046958461	1250.40002441406
677.845036155219	1257.40002441406
678.581933832528	1263.19995117188
679.318739998323	1256
680.055454660558	1249.19995117188
680.792077827172	1245
681.528609506116	1249.80004882813
682.265049705331	1248.19995117188
683.001398432759	1248
683.737655696349	1256.59997558594
684.47382150404	1251.19995117188
685.20989586378	1262.80004882813
685.945878783503	1257.19995117188
686.68177027116	1264.59997558594
687.417570334688	1253.80004882813
688.153278982032	1252
688.888896221129	1256.80004882813
689.624422059921	1253.19995117188
690.359856506349	1257.19995117188
691.095199568354	1270
691.830451253874	1267
692.565611570844	1259.80004882813
693.300680527212	1257.40002441406
694.03565813091	1263
694.770544389877	1259
695.505339312053	1250.19995117188
696.240042905372	1253.40002441406
696.974655177772	1248.40002441406
697.70917613719	1266.59997558594
698.443605791561	1260.40002441406
699.177944148826	1270
699.912191216909	1264.80004882813
700.646347003755	1257.80004882813
701.380411517295	1273.40002441406
702.114384765465	1273.40002441406
702.848266756195	1278.40002441406
703.582057497421	1271
704.315756997074	1261.59997558594
705.049365263089	1263
705.782882303399	1250.59997558594
706.516308125936	1251.40002441406
707.249642738626	1254
707.982886149403	1263
708.716038366204	1262.19995117188
709.449099396949	1272.19995117188
710.182069249577	1266
710.914947932009	1282.80004882813
711.647735452181	1286.19995117188
712.380431818022	1286.19995117188
713.113037037454	1281.59997558594
713.845551118411	1276.80004882813
714.577974068818	1261
715.310305896604	1248.40002441406
716.042546609694	1245.40002441406
716.774696216013	1239.80004882813
717.506754723493	1255.19995117188
718.238722140053	1248.19995117188
718.970598473624	1261.19995117188
719.702383732127	1266.59997558594
720.43407792349	1268.40002441406
721.165681055634	1279.80004882813
721.897193136486	1276.80004882813
722.628614173966	1279.80004882813
723.359944175997	1275.80004882813
724.091183150505	1272.80004882813
724.822331105412	1273
725.553388048638	1271
726.284353988106	1272.40002441406
727.015228931734	1291.19995117188
727.746012887449	1289.80004882813
728.476705863162	1295.59997558594
729.207307866803	1283.59997558594
729.937818906289	1289.80004882813
730.668238989535	1286
731.398568124459	1283.59997558594
732.128806318986	1265.40002441406
732.858953581034	1255.80004882813
733.589009918514	1255
734.318975339348	1250.59997558594
735.048849851452	1255.59997558594
735.778633462744	1261.59997558594
736.508326181137	1263.19995117188
737.237928014549	1257.80004882813
737.967438970897	1268.59997558594
738.696859058095	1262.19995117188
739.426188284054	1277.59997558594
740.155426656692	1265
740.884574183922	1270.19995117188
741.613630873659	1266.40002441406
742.342596733815	1274.59997558594
743.071471772302	1266.40002441406
743.800255997034	1270.19995117188
744.528949415921	1269.40002441406
745.257552036877	1271
745.986063867811	1264.19995117188
746.714484916638	1276.40002441406
747.442815191261	1264.40002441406
748.171054699597	1276.40002441406
748.899203449554	1253.80004882813
749.627261449039	1249
750.355228705966	1263.80004882813
751.083105228239	1258
751.810891023765	1268.59997558594
752.538586100459	1264.59997558594
753.266190466218	1252.19995117188
753.99370412896	1252.59997558594
754.721127096582	1250.40002441406
755.448459377	1251.40002441406
756.175700978114	1253.59997558594
756.902851907828	1266
757.629912174055	1261.40002441406
758.356881784688	1261.59997558594
759.083760747639	1266
759.810549070817	1272.40002441406
760.537246762113	1278.80004882813
761.263853829442	1276.80004882813
761.990370280698	1279
762.716796123791	1269.40002441406
763.443131366618	1272.40002441406
764.169376017082	1282.59997558594
764.895530083085	1286.59997558594
765.621593572527	1297.59997558594
766.347566493312	1305.59997558594
767.073448853336	1311.80004882813
767.799240660502	1310
768.524941922707	1318.59997558594
769.250552647854	1317.80004882813
769.976072843836	1311.59997558594
770.701502518551	1310.40002441406
771.426841679905	1324.40002441406
772.152090335793	1328.59997558594
772.877248494107	1341.40002441406
773.602316162747	1339.19995117188
774.327293349609	1343.80004882813
775.052180062592	1346.59997558594
775.776976309589	1338.40002441406
776.501682098496	1339.59997558594
777.226297437206	1322.59997558594
777.950822333616	1319.80004882813
778.675256795621	1320.40002441406
779.399600831111	1309.19995117188
780.123854447983	1296.19995117188
780.84801765413	1289
781.572090457441	1284.40002441406
782.296072865811	1278
783.019964887131	1280.19995117188
783.743766529297	1278.19995117188
784.467477800194	1287
785.191098707719	1282
785.914629259756	1278.80004882813
786.638069464194	1291
787.361419328932	1272.40002441406
788.084678861852	1281.40002441406
788.807848070845	1283.19995117188
789.530926963798	1282.80004882813
790.253915548602	1271.19995117188
790.976813833144	1271.40002441406
791.699621825307	1276
792.422339532986	1277.59997558594
793.144966964061	1273.80004882813
793.86750412642	1267.40002441406
794.589951027946	1275.19995117188
795.312307676536	1278.19995117188
796.03457408006	1285.59997558594
796.756750246417	1274
797.478836183477	1284.40002441406
798.200831899137	1271
798.92273740127	1274.80004882813
799.644552697769	1277.40002441406
800.36627779651	1276.19995117188
801.087912705374	1274.80004882813
801.809457432251	1279.59997558594
802.530911985017	1279.80004882813
803.252276371558	1278.59997558594
803.973550599748	1280.19995117188
804.694734677472	1270.19995117188
805.415828612611	1272.59997558594
806.136832413045	1273.80004882813
806.857746086646	1274.59997558594
807.578569641305	1262.19995117188
808.299303084892	1265.19995117188
809.019946425289	1271.59997558594
809.740499670372	1261.19995117188
810.460962828022	1265
811.181335906114	1262
811.901618912524	1266
812.621811855131	1263.59997558594
813.341914741809	1272
814.061927580433	1268.59997558594
814.781850378881	1265.40002441406
815.501683145025	1264.19995117188
816.221425886743	1268.59997558594
816.941078611903	1254.80004882813
817.660641328387	1267
818.380114044065	1267
819.099496766808	1265
819.818789504492	1257.59997558594
820.53799226499	1259.59997558594
821.257105056168	1266
821.976127885904	1282.40002441406
822.695060762064	1263.40002441406
823.413903692525	1272.40002441406
824.132656685151	1272.19995117188
824.851319747817	1271.19995117188
825.569892888388	1266.80004882813
826.288376114739	1265
827.006769434737	1270.80004882813
827.725072856249	1272.80004882813
828.443286387142	1272.59997558594
829.161410035285	1262.59997558594
829.87944380855	1278.40002441406
830.597387714798	1275
831.315241761898	1257.80004882813
832.033005957715	1261.59997558594
832.750680310119	1265.40002441406
833.468264826969	1251
834.18575951614	1260
834.903164385486	1267.19995117188
835.620479442878	1258.19995117188
836.337704696181	1250.19995117188
837.054840153255	1254.59997558594
837.771885821962	1260
838.488841710172	1258.59997558594
839.20570782574	1265.59997558594
839.922484176531	1261.59997558594
840.639170770409	1268.59997558594
841.355767615231	1272
842.072274718864	1263.40002441406
842.788692089164	1260
843.505019733993	1267.59997558594
844.221257661209	1256.59997558594
844.937405878676	1259.80004882813
845.65346439425	1262
846.369433215789	1264.40002441406
847.085312351156	1256
847.801101808205	1262.40002441406
848.516801594793	1264.80004882813
849.232411718781	1265.80004882813
849.947932188021	1258.80004882813
850.663363010376	1259.59997558594
851.378704193698	1264.40002441406
852.093955745842	1271.19995117188
852.809117674669	1260.59997558594
853.524189988028	1273.19995117188
854.239172693778	1266.19995117188
854.954065799768	1248.80004882813
855.668869313857	1247
856.383583243899	1262.80004882813
857.098207597743	1263
857.812742383246	1264.80004882813
858.527187608255	1261
859.241543280628	1260.59997558594
859.955809408218	1257.59997558594
860.669985998868	1246.19995117188
861.384073060437	1257.80004882813
862.098070600772	1263.19995117188
862.811978627724	1246.59997558594
863.52579714914	1247.59997558594
864.239526172873	1252.40002441406
864.953165706776	1247
865.666715758687	1250.59997558594
866.380176336464	1250
867.093547447951	1255.80004882813
867.806829100996	1263.40002441406
868.520021303444	1267.19995117188
869.233124063149	1270.19995117188
869.94613738795	1271.19995117188
870.659061285693	1258.80004882813
871.37189576423	1254.59997558594
872.084640831403	1251.40002441406
872.797296495057	1256.40002441406
873.509862763039	1249.40002441406
874.22233964319	1256.40002441406
874.934727143353	1254.59997558594
875.647025271374	1266
876.359234035097	1256
877.071353442361	1267.40002441406
877.783383501015	1265
878.495324218895	1257.59997558594
879.207175603844	1257.19995117188
879.918937663705	1255.19995117188
880.630610406318	1247
881.342193839524	1238.19995117188
882.053687971161	1236.59997558594
882.765092809069	1252.40002441406
883.476408361091	1242.40002441406
884.187634635066	1242.80004882813
884.898771638828	1244.40002441406
885.609819380221	1242
886.320777867076	1247.59997558594
887.031647107236	1242.40002441406
887.742427108536	1259.40002441406
888.453117878816	1258.59997558594
889.16371942591	1252.40002441406
889.874231757652	1253.80004882813
890.584654881883	1252
891.294988806434	1245.80004882813
892.005233539141	1248.40002441406
892.715389087837	1258.19995117188
893.42545546036	1255.40002441406
894.135432664543	1245.80004882813
894.845320708216	1248
895.555119599216	1239.19995117188
896.264829345375	1248.59997558594
896.974449954526	1249.80004882813
897.683981434496	1249.59997558594
898.393423793125	1250.80004882813
899.102777038235	1259.80004882813
899.812041177664	1265.19995117188
900.521216219239	1254.19995117188
901.230302170793	1260.19995117188
901.939299040155	1261.40002441406
902.64820683515	1268.19995117188
903.357025563612	1272.80004882813
904.065755233368	1262.19995117188
904.774395852247	1254
905.482947428076	1251
906.191409968682	1255.80004882813
906.899783481897	1250.40002441406
907.608067975538	1269.80004882813
908.316263457443	1269.80004882813
909.02436993543	1262.19995117188
909.732387417327	1256.40002441406
910.440315910959	1253.19995117188
911.148155424154	1238.40002441406
911.855905964731	1246.40002441406
912.563567540521	1256.80004882813
913.271140159339	1255.80004882813
913.978623829017	1254.19995117188
914.686018557374	1240.80004882813
915.393324352237	1240.19995117188
916.100541221421	1238
916.807669172752	1251.40002441406
917.514708214054	1250.80004882813
918.221658353142	1255.80004882813
918.928519597843	1253.59997558594
919.635291955976	1248.40002441406
920.341975435358	1251.59997558594
921.048570043813	1253.40002441406
921.75507578916	1248.40002441406
922.461492679212	1246.40002441406
923.167820721795	1245.80004882813
923.874059924726	1240.40002441406
924.58021029582	1234.80004882813
925.286271842893	1230.19995117188
925.992244573769	1248.59997558594
926.698128496262	1228.80004882813
927.403923618184	1230
928.109629947355	1234.59997558594
928.815247491593	1236.19995117188
929.520776258708	1237.19995117188
930.226216256519	1235.40002441406
930.931567492841	1234.80004882813
931.636829975482	1230.19995117188
932.342003712263	1229.80004882813
933.047088710995	1232
933.752084979491	1247.80004882813
934.456992525564	1251
935.161811357024	1246.40002441406
935.866541481688	1234.80004882813
936.571182907363	1235.59997558594
937.275735641861	1225.19995117188
937.980199692995	1235.80004882813
938.684575068572	1232.59997558594
939.388861776411	1243.59997558594
940.093059824311	1239.80004882813
940.797169220085	1248.19995117188
941.501189971544	1254
942.205122086495	1251
942.908965572751	1243.59997558594
943.612720438111	1245.19995117188
944.316386690391	1239.40002441406
945.019964337391	1240.59997558594
945.723453386924	1237.59997558594
946.426853846795	1246.19995117188
947.130165724808	1246.59997558594
947.83338902877	1238.40002441406
948.536523766488	1244.19995117188
949.239569945764	1236.19995117188
949.942527574402	1241
950.64539666021	1231.80004882813
951.348177210993	1233.80004882813
952.050869234548	1241.59997558594
952.753472738683	1246.59997558594
953.455987731199	1245.59997558594
954.158414219898	1245.80004882813
954.860752212587	1234.40002441406
955.563001717061	1234.59997558594
956.265162741124	1230.19995117188
956.967235292576	1233.59997558594
957.669219379224	1221.19995117188
958.371115008857	1228.59997558594
959.072922189283	1234.40002441406
959.774640928301	1246.59997558594
960.476271233708	1251
961.177813113301	1241.19995117188
961.879266574882	1241.59997558594
962.580631626248	1217.59997558594
963.281908275194	1219.40002441406
963.98309652952	1222.80004882813
964.684196397022	1211
965.3852078855	1219.80004882813
966.086131002745	1219.19995117188
966.786965756555	1217.80004882813
967.487712154726	1236.19995117188
968.188370205055	1233.59997558594
968.888939915331	1229
969.589421293352	1230.40002441406
970.289814346909	1232.59997558594
970.990119083801	1235.19995117188
971.690335511819	1231.59997558594
972.39046363875	1220.80004882813
973.090503472398	1227.80004882813
973.790455020545	1218.80004882813
974.490318290987	1228.40002441406
975.190093291516	1226
975.889780029923	1225
976.589378513998	1234.59997558594
977.288888751527	1225.59997558594
977.988310750308	1224.59997558594
978.687644518122	1227.40002441406
979.386890062767	1231.40002441406
980.086047392025	1217.59997558594
980.785116513689	1221
981.484097435542	1212.80004882813
982.182990165377	1221.40002441406
982.88179471098	1227.80004882813
983.580511080137	1224.59997558594
984.279139280632	1232
984.977679320253	1211.59997558594
985.67613120679	1226.80004882813
986.374494948027	1231.40002441406
987.072770551745	1229.40002441406
987.770958025731	1230
988.469057377772	1228.19995117188
989.167068615649	1231
989.864991747145	1224.40002441406
990.562826780047	1230.40002441406
991.260573722134	1211.19995117188
991.958232581195	1215.80004882813
992.655803365003	1218.19995117188
993.353286081346	1225.59997558594
994.050680738006	1221.80004882813
994.74798734276	1231.19995117188
995.44520590339	1223.59997558594
996.142336427681	1223.19995117188
996.839378923407	1234.19995117188
997.536333398348	1226.19995117188
998.233199860289	1213.59997558594
998.929978317004	1222.40002441406
999.626668776274	1219.80004882813
1000.32327124587	1218.40002441406
1001.01978573359	1225.19995117188
1001.71621224718	1222.19995117188
1002.41255079445	1226.40002441406
1003.10880138315	1227.19995117188
1003.80496402107	1227.19995117188
1004.50103871599	1228.59997558594
1005.19702547567	1220.80004882813
1005.8929243079	1217.40002441406
1006.58873522045	1232.59997558594
1007.2844582211	1225.59997558594
1007.98009331761	1217.40002441406
1008.67564051776	1226.40002441406
1009.37109982933	1223.19995117188
1010.06647126009	1220.59997558594
1010.7617548178	1225.59997558594
1011.45695051026	1230.40002441406
1012.15205834522	1230.19995117188
1012.84707833045	1236.19995117188
1013.54201047373	1224
1014.23685478284	1225.80004882813
1014.93161126553	1231.80004882813
1015.62627992959	1223.80004882813
1016.32086078277	1234.59997558594
1017.01535383285	1232.40002441406
1017.70975908761	1234.59997558594
1018.40407655479	1238.80004882813
1019.09830624219	1237.40002441406
1019.79244815755	1229
1020.48650230866	1223
1021.18046870328	1224
1021.87434734917	1214.80004882813
1022.56813825411	1217.80004882813
1023.26184142584	1218.59997558594
1023.95545687216	1217
1024.64898460082	1209.80004882813
1025.34242461957	1213.59997558594
1026.0357769362	1218
1026.72904155846	1216
1027.42221849412	1224.59997558594
1028.11530775094	1228.80004882813
1028.80830933668	1231.40002441406
1029.50122325911	1225
1030.19404952599	1214.19995117188
1030.88678814508	1213.80004882813
1031.57943912414	1211.59997558594
1032.27200247093	1205
1032.96447819323	1215.80004882813
1033.65686629878	1208.80004882813
1034.34916679534	1214.19995117188
1035.04137969068	1221
1035.73350499256	1221
1036.42554270874	1223
1037.11749284697	1232.40002441406
1037.80935541501	1228.80004882813
1038.50113042062	1236.19995117188
1039.19281787156	1225.40002441406
1039.88441777559	1220.80004882813
1040.57593014046	1233.80004882813
1041.26735497393	1224.40002441406
1041.95869228376	1230.80004882813
1042.6499420777	1212.59997558594
1043.3411043635	1212
1044.03217914893	1208.80004882813
1044.72316644174	1219
1045.41406624968	1199.80004882813
1046.1048785805	1206
1046.79560344197	1201.40002441406
1047.48624084182	1206.19995117188
1048.17679078783	1206.80004882813
1048.86725328774	1216.59997558594
1049.55762834929	1203.80004882813
1050.24791598025	1208.19995117188
1050.93811618837	1199
1051.62822898139	1203
1052.31825436707	1191
1053.00819235315	1196.40002441406
1053.6980429474	1195
1054.38780615755	1197.40002441406
1055.07748199136	1197.59997558594
1055.76707045658	1193.59997558594
1056.45657156095	1201.19995117188
1057.14598531222	1209.80004882813
1057.83531171814	1204.80004882813
1058.52455078646	1197.40002441406
1059.21370252494	1206.80004882813
1059.90276694129	1201.40002441406
1060.5917440433	1194.19995117188
1061.28063383868	1195
1061.9694363352	1196.80004882813
1062.65815154059	1192.59997558594
1063.34677946261	1191.19995117188
1064.03532010899	1190.40002441406
1064.72377348748	1205
1065.41213960583	1196
1066.10041847177	1203.19995117188
1066.78861009306	1201.80004882813
1067.47671447743	1202.19995117188
1068.16473163263	1211
1068.85266156639	1198.59997558594
1069.54050428647	1192.19995117188
1070.2282598006	1210.40002441406
1070.91592811652	1209.80004882813
1071.60350924198	1211
1072.29100318471	1210.19995117188
1072.97840995245	1206.59997558594
1073.66572955295	1202.80004882813
1074.35296199394	1202
1075.04010728316	1198.80004882813
1075.72716542836	1198
1076.41413643726	1210.59997558594
1077.10102031761	1210.19995117188
1077.78781707715	1219.80004882813
1078.4745267236	1216.40002441406
1079.16114926471	1208.80004882813
1079.84768470822	1208.19995117188
1080.53413306185	1205.19995117188
1081.22049433336	1194.19995117188
1081.90676853046	1211.19995117188
1082.5929556609	1205
1083.27905573241	1211.19995117188
1083.96506875272	1215.59997558594
1084.65099472957	1209.80004882813
1085.3368336707	1207.19995117188
1086.02258558383	1208.40002441406
1086.70825047669	1205.19995117188
1087.39382835703	1212.59997558594
1088.07931923257	1212
1088.76472311104	1216.40002441406
1089.45004000018	1215.40002441406
1090.13526990771	1210
1090.82041284137	1209.40002441406
1091.50546880889	1200.80004882813
1092.19043781799	1212.19995117188
1092.87531987642	1208.40002441406
1093.56011499188	1211.19995117188
1094.24482317212	1215.40002441406
1094.92944442486	1219.19995117188
1095.61397875783	1208.19995117188
1096.29842617876	1210.19995117188
1096.98278669537	1205.80004882813
1097.6670603154	1212.59997558594
1098.35124704656	1198
1099.03534689659	1195.40002441406
1099.71935987322	1198.59997558594
1100.40328598416	1190.19995117188
1101.08712523713	1190.19995117188
1101.77087763988	1203.19995117188
1102.45454320012	1197
1103.13812192557	1202.19995117188
1103.82161382396	1204.19995117188
1104.50501890301	1200.19995117188
1105.18833717045	1195.19995117188
1105.87156863399	1206
1106.55471330137	1193.59997558594
1107.2377711803	1197
1107.9207422785	1193.80004882813
1108.60362660369	1193
1109.2864241636	1191.40002441406
1109.96913496594	1195.59997558594
1110.65175901844	1202
1111.33429632882	1209.19995117188
1112.01674690479	1199.40002441406
1112.69911075408	1199
1113.38138788439	1191.19995117188
1114.06357830346	1200
1114.745682019	1196.80004882813
1115.42769903872	1196.40002441406
1116.10962937035	1198
1116.7914730216	1191.19995117188
1117.47323000018	1184.19995117188
1118.15490031382	1184
1118.83648397022	1190.59997558594
1119.51798097712	1181.19995117188
1120.1993913422	1184.40002441406
1120.88071507321	1186.40002441406
1121.56195217784	1173.59997558594
1122.24310266381	1182.59997558594
1122.92416653884	1193
1123.60514381064	1187.59997558594
1124.28603448692	1198.40002441406
1124.9668385754	1193.40002441406
1125.64755608378	1202.19995117188
1126.32818701978	1206.80004882813
1127.00873139111	1216.40002441406
1127.68918920548	1205.19995117188
1128.3695604706	1208.19995117188
1129.04984519419	1205
1129.73004338394	1199.59997558594
1130.41015504758	1202.19995117188
1131.09018019281	1204
1131.77011882734	1200
1132.44997095888	1193.59997558594
1133.12973659514	1199.59997558594
1133.80941574381	1200.80004882813
1134.48900841263	1195.59997558594
1135.16851460927	1195.19995117188
1135.84793434147	1190.80004882813
1136.52726761692	1191
1137.20651444333	1198.19995117188
1137.8856748284	1187.80004882813
1138.56474877984	1197.40002441406
1139.24373630536	1191
1139.92263741265	1190.59997558594
1140.60145210943	1188.80004882813
1141.28018040339	1184
1141.95882230225	1179
1142.6373778137	1176.59997558594
1143.31584694545	1174.40002441406
1143.99422970519	1178.19995117188
1144.67252610064	1178
1145.35073613949	1171.19995117188
1146.02885982944	1179.40002441406
1146.7068971782	1190.59997558594
1147.38484819347	1179
1148.06271288294	1180
1148.74049125432	1177.59997558594
1149.41818331531	1171.80004882813
1150.0957890736	1176.59997558594
1150.77330853689	1178.40002441406
1151.45074171289	1183.80004882813
1152.12808860928	1175
1152.80534923378	1178
1153.48252359407	1189
1154.15961169786	1181.80004882813
1154.83661355283	1186
1155.51352916669	1186
1156.19035854713	1170.19995117188
1156.86710170185	1171.59997558594
1157.54375863855	1180.40002441406
1158.22032936491	1167.59997558594
1158.89681388863	1180.59997558594
1159.57321221741	1187.59997558594
1160.24952435894	1181
1160.92575032092	1178.19995117188
1161.60189011103	1180.59997558594
1162.27794373697	1176.80004882813
1162.95391120644	1184.19995117188
1163.62979252712	1179
1164.3055877067	1187
1164.98129675288	1186.59997558594
1165.65691967336	1184.19995117188
1166.33245647581	1188.19995117188
1167.00790716792	1183.19995117188
1167.6832717574	1180
1168.35855025193	1190
1169.0337426592	1186.80004882813
1169.70884898689	1190.19995117188
1170.3838692427	1191
1171.05880343431	1198.80004882813
1171.73365156941	1182.19995117188
1172.40841365569	1181.80004882813
1173.08308970083	1181.40002441406
1173.75767971253	1190
1174.43218369847	1193.19995117188
1175.10660166633	1190.80004882813
1175.7809336238	1190
1176.45517957857	1194
1177.12933953832	1197.59997558594
1177.80341351073	1190.40002441406
1178.47740150349	1203.59997558594
1179.15130352429	1194.80004882813
1179.8251195808	1202.59997558594
1180.49884968071	1194.40002441406
1181.1724938317	1188.40002441406
1181.84605204145	1183.19995117188
1182.51952431766	1192.19995117188
1183.19291066799	1193
1183.86621110013	1192
1184.53942562176	1193.80004882813
1185.21255424057	1205.40002441406
1185.88559696422	1194.80004882813
1186.55855380041	1192.19995117188
1187.2314247568	1194
1187.90420984109	1192.59997558594
1188.57690906095	1173.19995117188
1189.24952242405	1191
1189.92204993808	1190
1190.59449161071	1193.19995117188
1191.26684744962	1186
1191.93911746249	1193.19995117188
1192.61130165699	1185.80004882813
1193.28340004081	1185.40002441406
1193.95541262161	1170.40002441406
1194.62733940707	1174
1195.29918040487	1180.80004882813
1195.97093562269	1184.40002441406
1196.64260506819	1175.80004882813
1197.31418874905	1187
1197.98568667295	1175.80004882813
1198.65709884755	1171.80004882813
1199.32842528053	1176.40002441406
1199.99966597957	1171.40002441406
1200.67082095234	1180.40002441406
1201.3418902065	1169.40002441406
1202.01287374974	1173.19995117188
1202.68377158971	1181.80004882813
1203.3545837341	1184.19995117188
1204.02531019057	1192.80004882813
1204.6959509668	1186
1205.36650607045	1182.40002441406
1206.03697550919	1182.19995117188
1206.70735929069	1191.19995117188
1207.37765742263	1180
1208.04786991266	1183.19995117188
1208.71799676846	1179.80004882813
1209.38803799769	1179.40002441406
1210.05799360803	1175
1210.72786360714	1177.40002441406
1211.39764800268	1173
1212.06734680233	1163
1212.73696001375	1153
1213.4064876446	1162.19995117188
1214.07592970255	1157.80004882813
1214.74528619526	1173.59997558594
1215.4145571304	1162.59997558594
1216.08374251564	1169.19995117188
1216.75284235863	1164.80004882813
1217.42185666704	1160.80004882813
1218.09078544854	1166.19995117188
1218.75962871078	1172
1219.42838646143	1161.59997558594
1220.09705870816	1161.19995117188
1220.76564545861	1158.59997558594
1221.43414672046	1168.80004882813
1222.10256250136	1174.40002441406
1222.77089280898	1165.19995117188
1223.43913765098	1167.59997558594
1224.107297035	1167.19995117188
1224.77537096873	1167.80004882813
1225.44335945981	1173.19995117188
1226.1112625159	1176.40002441406
1226.77908014467	1178
1227.44681235376	1184.80004882813
1228.11445915085	1174
1228.78202054357	1174
1229.44949653961	1174
1230.11688714659	1165.19995117188
1230.7841923722	1185.80004882813
1231.45141222407	1163.80004882813
1232.11854670988	1165.40002441406
1232.78559583726	1155
1233.45255961388	1159.80004882813
1234.1194380474	1161.59997558594
1234.78623114546	1148.40002441406
1235.45293891572	1150.80004882813
1236.11956136583	1153.19995117188
1236.78609850345	1155
1237.45255033623	1148
1238.11891687182	1144
1238.78519811788	1138.19995117188
1239.45139408205	1139
1240.11750477198	1149.59997558594
1240.78353019534	1158.19995117188
1241.44947035976	1169.59997558594
1242.11532527291	1158
1242.78109494242	1159.40002441406
1243.44677937595	1153
1244.11237858115	1155.40002441406
1244.77789256567	1154.80004882813
1245.44332133715	1159.40002441406
1246.10866490325	1158.19995117188
1246.7739232716	1160.40002441406
1247.43909644987	1160
1248.10418444569	1159.19995117188
1248.76918726671	1155.59997558594
1249.43410492059	1149
1250.09893741496	1159.59997558594
1250.76368475747	1156
1251.42834695576	1162.40002441406
1252.09292401749	1160
1252.75741595029	1157.19995117188
1253.42182276182	1156
1254.08614445971	1162.80004882813
1254.75038105161	1152.80004882813
1255.41453254515	1152.40002441406
1256.07859894799	1155.19995117188
1256.74258026777	1166
1257.40647651213	1156
1258.0702876887	1153.19995117188
1258.73401380514	1153.59997558594
1259.39765486908	1152.19995117188
1260.06121088817	1159
1260.72468187004	1158.80004882813
1261.38806782233	1150.80004882813
1262.05136875269	1158.59997558594
1262.71458466875	1153.19995117188
1263.37771557815	1153.80004882813
1264.04076148854	1147
1264.70372240753	1151.40002441406
1265.3665983428	1149.40002441406
1266.02938930195	1140.40002441406
1266.69209529263	1148.80004882813
1267.35471632249	1148
1268.01725239914	1151
1268.67970353024	1147.40002441406
1269.34206972342	1150.19995117188
1270.00435098631	1150.19995117188
1270.66654732655	1153.80004882813
1271.32865875177	1161.59997558594
1271.9906852696	1156.80004882813
1272.65262688768	1158.19995117188
1273.31448361365	1166.40002441406
1273.97625545514	1167.19995117188
1274.63794241978	1162.19995117188
1275.2995445152	1157.59997558594
1275.96106174903	1157
1276.62249412892	1160
1277.28384166248	1165.40002441406
1277.94510435735	1161.40002441406
1278.60628222116	1153.40002441406
1279.26737526155	1161.59997558594
1279.92838348613	1151.80004882813
1280.58930690255	1156.80004882813
1281.25014551842	1159.80004882813
1281.91089934139	1149.80004882813
1282.57156837907	1156.40002441406
1283.2321526391	1155
1283.89265212911	1149.40002441406
1284.55306685671	1151.19995117188
1285.21339682955	1159.80004882813
1285.87364205525	1154.40002441406
1286.53380254142	1158.80004882813
1287.19387829571	1153
1287.85386932573	1163.40002441406
1288.51377563911	1149
1289.17359724348	1150.19995117188
1289.83333414646	1148.80004882813
1290.49298635567	1155.80004882813
1291.15255387874	1150.40002441406
1291.8120367233	1142.59997558594
1292.47143489696	1142.40002441406
1293.13074840736	1146.40002441406
1293.7899772621	1152.40002441406
1294.44912146882	1161.80004882813
1295.10818103513	1153.80004882813
1295.76715596866	1147.80004882813
1296.42604627704	1149
1297.08485196787	1150
1297.74357304878	1152.40002441406
1298.4022095274	1159.40002441406
1299.06076141134	1160.59997558594
1299.71922870821	1154.40002441406
1300.37761142565	1155
1301.03590957126	1148.80004882813
1301.69412315268	1151.40002441406
1302.3522521775	1146.59997558594
1303.01029665336	1153.19995117188
1303.66825658787	1155.19995117188
1304.32613198865	1158.80004882813
1304.98392286332	1157.19995117188
1305.64162921948	1166.19995117188
1306.29925106476	1156.59997558594
1306.95678840677	1150.40002441406
1307.61424125312	1154.19995117188
1308.27160961145	1162.40002441406
1308.92889348934	1153.80004882813
1309.58609289443	1161
1310.24320783432	1150.19995117188
1310.90023831664	1153.80004882813
1311.55718434898	1156
1312.21404593897	1159
1312.87082309421	1163.19995117188
1313.52751582233	1155
1314.18412413092	1157
1314.84064802761	1154.19995117188
1315.49708752	1158
1316.1534426157	1152.40002441406
1316.80971332233	1159
1317.46589964749	1146.40002441406
1318.1220015988	1162.40002441406
1318.77801918386	1171.19995117188
1319.43395241028	1167.19995117188
1320.08980128567	1166.59997558594
1320.74556581764	1157.59997558594
1321.4012460138	1160.80004882813
1322.05684188176	1165.80004882813
1322.71235342911	1160.59997558594
1323.36778066347	1162.80004882813
1324.02312359245	1154.59997558594
1324.67838222365	1154.80004882813
1325.33355656468	1150.59997558594
1325.98864662314	1157.40002441406
1326.64365240663	1148.59997558594
1327.29857392277	1151.59997558594
1327.95341117915	1147.80004882813
1328.60816418339	1133.40002441406
1329.26283294308	1145.80004882813
1329.91741746582	1139
1330.57191775923	1145.59997558594
1331.2263338309	1135.19995117188
1331.88066568843	1131.80004882813
1332.53491333943	1121.59997558594
1333.1890767915	1120.59997558594
1333.84315605224	1124.80004882813
1334.49715112925	1127.59997558594
1335.15106203013	1123.80004882813
1335.80488876249	1130.80004882813
1336.45863133391	1126.40002441406
1337.112289752	1132.40002441406
1337.76586402437	1133.19995117188
1338.4193541586	1133.59997558594
1339.0727601623	1146.40002441406
1339.72608204306	1140.59997558594
1340.37931980849	1136.40002441406
1341.03247346617	1138.59997558594
1341.68554302372	1135.59997558594
1342.33852848871	1144.19995117188
1342.99142986876	1152.40002441406
1343.64424717145	1144
1344.29698040438	1146.80004882813
1344.94962957515	1151.80004882813
1345.60219469135	1150
1346.25467576058	1152.80004882813
1346.90707279042	1152
1347.55938578848	1161.59997558594
1348.21161476235	1165.80004882813
1348.86375971962	1163.40002441406
1349.51582066787	1166.59997558594
1350.16779761472	1168.19995117188
1350.81969056774	1161.59997558594
1351.47149953453	1164.19995117188
1352.12322452269	1168.80004882813
1352.77486553979	1165.59997558594
1353.42642259344	1162.40002441406
1354.07789569122	1173
1354.72928484072	1166.40002441406
1355.38059004953	1177
1356.03181132525	1185.19995117188
1356.68294867545	1187
1357.33400210773	1183.80004882813
1357.98497162968	1178.80004882813
1358.63585724889	1178.80004882813
1359.28665897294	1188.80004882813
1359.93737680942	1187.59997558594
1360.58801076591	1185.40002441406
1361.23856085001	1175.19995117188
1361.88902706929	1181.80004882813
1362.53940943135	1184.19995117188
1363.18970794377	1189.19995117188
1363.83992261413	1186.59997558594
1364.49005345003	1183
1365.14010045904	1170.19995117188
1365.79006364874	1180.40002441406
1366.43994302673	1177.40002441406
1367.08973860058	1179.40002441406
1367.73945037788	1184.59997558594
1368.38907836621	1169
1369.03862257315	1165.40002441406
1369.68808300629	1169.19995117188
1370.3374596732	1161.59997558594
1370.98675258148	1168
1371.63596173868	1159.19995117188
1372.28508715241	1166.40002441406
1372.93412883024	1164.40002441406
1373.58308677974	1160.19995117188
1374.2319610085	1147.40002441406
1374.8807515241	1146.19995117188
1375.52945833412	1144.59997558594
1376.17808144612	1137.40002441406
1376.82662086771	1124.59997558594
1377.47507660644	1142.80004882813
1378.12344866989	1143.59997558594
1378.77173706565	1144.19995117188
1379.41994180129	1149
1380.06806288439	1145.19995117188
1380.71610032252	1139.19995117188
1381.36405412326	1141.80004882813
1382.01192429419	1147.19995117188
1382.65971084287	1140.19995117188
1383.30741377688	1130.80004882813
1383.95503310381	1132.80004882813
1384.60256883121	1139.40002441406
1385.25002096667	1143
1385.89738951775	1134
1386.54467449204	1138.19995117188
1387.19187589709	1136
1387.8389937405	1129.59997558594
1388.48602802982	1124
1389.13297877262	1137.19995117188
1389.77984597649	1136.80004882813
1390.42662964899	1140.19995117188
1391.07332979768	1147.59997558594
1391.71994643015	1135.80004882813
1392.36647955395	1136.19995117188
1393.01292917667	1127.19995117188
1393.65929530586	1128.19995117188
1394.3055779491	1124.19995117188
1394.95177711395	1120
1395.59789280799	1113
1396.24392503877	1118
1396.88987381387	1120
1397.53573914086	1125.59997558594
1398.1815210273	1122.40002441406
1398.82721948075	1123
1399.47283450878	1124
1400.11836611897	1127.80004882813
1400.76381431886	1120.80004882813
1401.40917911603	1129.80004882813
1402.05446051805	1129.80004882813
1402.69965853247	1125.59997558594
1403.34477316686	1122.59997558594
1403.98980442878	1125
1404.6347523258	1127
1405.27961686548	1119
1405.92439805538	1121.40002441406
1406.56909590306	1121.19995117188
1407.21371041608	1122.19995117188
1407.85824160202	1122
1408.50268946841	1113
1409.14705402284	1109.19995117188
1409.79133527285	1116.80004882813
1410.43553322601	1113.80004882813
1411.07964788987	1113.19995117188
1411.723679272	1112
1412.36762737996	1115.59997558594
1413.01149222129	1112.40002441406
1413.65527380357	1112.59997558594
1414.29897213435	1109.59997558594
1414.94258722118	1112.40002441406
1415.58611907163	1110.19995117188
1416.22956769325	1113.59997558594
1416.87293309359	1121
1417.51621528021	1124
1418.15941426067	1126.19995117188
1418.80253004253	1116.40002441406
1419.44556263333	1118.40002441406
1420.08851204063	1119.80004882813
1420.731378272	1124.59997558594
1421.37416133497	1115.80004882813
1422.0168612371	1121.19995117188
1422.65947798596	1124
1423.30201158908	1125
1423.94446205403	1121
1424.58682938835	1114
1425.2291135996	1112.19995117188
1425.87131469532	1114.59997558594
1426.51343268308	1121.40002441406
1427.15546757042	1128.59997558594
1427.79741936488	1123.59997558594
1428.43928807403	1132.80004882813
1429.0810737054	1122.19995117188
1429.72277626656	1123.40002441406
1430.36439576504	1117.40002441406
1431.00593220841	1116.19995117188
1431.64738560419	1104.40002441406
1432.28875595995	1108.19995117188
1432.93004328324	1100
1433.57124758159	1104.40002441406
1434.21236886255	1097.59997558594
1434.85340713368	1102.59997558594
1435.49436240252	1109.80004882813
1436.13523467661	1113.59997558594
1436.77602396349	1112.59997558594
1437.41673027073	1119
1438.05735360585	1115.19995117188
1438.69789397641	1116.59997558594
1439.33835138994	1127.80004882813
1439.978725854	1127.59997558594
1440.61901737612	1121.40002441406
1441.25922596385	1122.19995117188
1441.89935162473	1128.19995117188
1442.53939436631	1124.59997558594
1443.17935419612	1121
1443.81923112171	1121
1444.45902515061	1116.40002441406
1445.09873629038	1117
1445.73836454854	1117.59997558594
1446.37790993265	1117.59997558594
1447.01737245024	1122.80004882813
1447.65675210885	1114.59997558594
1448.29604891602	1123
1448.93526287928	1118.59997558594
1449.57439400618	1119.59997558594
1450.21344230426	1122.80004882813
1450.85240778105	1114.59997558594
1451.49129044409	1118.40002441406
1452.13009030092	1110.59997558594
1452.76880735907	1115.80004882813
1453.40744162608	1116.40002441406
1454.04599310949	1109.19995117188
1454.68446181683	1109.40002441406
1455.32284775564	1120.59997558594
1455.96115093345	1113.40002441406
1456.5993713578	1106.59997558594
1457.23750903623	1114.40002441406
1457.87556397626	1114.80004882813
1458.51353618543	1110.19995117188
1459.15142567127	1125
1459.78923244132	1119.59997558594
1460.42695650311	1124.80004882813
1461.06459786417	1118.40002441406
1461.70215653203	1122.40002441406
1462.33963251423	1119
1462.97702581829	1120
1463.61433645175	1127.40002441406
1464.25156442214	1115
1464.88870973699	1117.40002441406
1465.52577240382	1116.40002441406
1466.16275243017	1115.80004882813
1466.79964982356	1121.40002441406
1467.43646459154	1114.80004882813
1468.07319674161	1116.59997558594
1468.70984628132	1109.40002441406
1469.34641321818	1110.80004882813
1469.98289755974	1119.19995117188
1470.6192993135	1121.80004882813
1471.25561848701	1118.40002441406
1471.89185508779	1116.40002441406
1472.52800912336	1113.40002441406
1473.16408060124	1111.19995117188
1473.80006952897	1115.80004882813
1474.43597591407	1112.80004882813
1475.07179976406	1117.19995117188
1475.70754108647	1118.40002441406
1476.34319988883	1120
1476.97877617865	1121.19995117188
1477.61426996345	1121.40002441406
1478.24968125077	1114.40002441406
1478.88501004812	1114.59997558594
1479.52025636303	1108
1480.15542020302	1117.59997558594
1480.79050157561	1105.40002441406
1481.42550048832	1113.59997558594
1482.06041694867	1113
1482.69525096418	1119
1483.33000254237	1113.80004882813
1483.96467169077	1113
1484.59925841689	1114.40002441406
1485.23376272825	1110.19995117188
1485.86818463237	1111.19995117188
1486.50252413677	1113.59997558594
1487.13678124896	1112
1487.77095597646	1106.59997558594
1488.4050483268	1115.80004882813
1489.03905830749	1114.59997558594
1489.67298592604	1121.80004882813
1490.30683118996	1118.59997558594
1490.9405941068	1120.80004882813
1491.57427468403	1114.19995117188
1492.2078729292	1110.59997558594
1492.84138884981	1107.59997558594
1493.47482245338	1106.40002441406
1494.10817374742	1109.40002441406
1494.74144273944	1104.59997558594
1495.37462943696	1111.40002441406
1496.0077338475	1107.19995117188
1496.64075597856	1104.19995117188
1497.27369583765	1111.80004882813
1497.9065534323	1112.19995117188
1498.53932877001	1118.80004882813
1499.17202185829	1117.19995117188
1499.80463270465	1119
1500.43716131661	1121.59997558594
1501.06960770167	1116.19995117188
1501.70197186735	1114.59997558594
1502.33425382116	1114.40002441406
1502.96645357059	1116
1503.59857112317	1118.19995117188
1504.23060648641	1122.80004882813
1504.8625596678	1111.59997558594
1505.49443067486	1111.59997558594
1506.1262195151	1118
1506.75792619602	1123.40002441406
1507.38955072513	1118.59997558594
1508.02109310993	1120.59997558594
1508.65255335794	1130.19995117188
1509.28393147666	1125.80004882813
1509.91522747359	1133.59997558594
1510.54644135624	1131.19995117188
1511.17757313212	1123
1511.80862280872	1121.40002441406
1512.43959039356	1125.40002441406
1513.07047589413	1123.19995117188
1513.70127931795	1119
1514.33200067251	1125.19995117188
1514.96263996531	1115
1515.59319720386	1112.80004882813
1516.22367239567	1118.59997558594
1516.85406554822	1117.19995117188
1517.48437666903	1119.80004882813
1518.1146057656	1118.59997558594
1518.74475284542	1123.19995117188
1519.374817916	1123.59997558594
1520.00480098483	1111.19995117188
1520.63470205942	1114
1521.26452114726	1111
1521.89425825586	1104.40002441406
1522.52391339271	1106.40002441406
1523.15348656531	1106.59997558594
1523.78297778116	1100.19995117188
1524.41238704775	1101.59997558594
1525.04171437259	1097
1525.67095976317	1102.80004882813
1526.30012322699	1096.19995117188
1526.92920477154	1102.59997558594
1527.55820440432	1109.80004882813
1528.18712213283	1104.40002441406
1528.81595796455	1106.80004882813
1529.44471190699	1106.59997558594
1530.07338396764	1110.19995117188
1530.70197415399	1111.19995117188
1531.33048247353	1099.19995117188
1531.95890893377	1097.19995117188
1532.58725354219	1100.19995117188
1533.21551630629	1098.59997558594
1533.84369723356	1095.59997558594
1534.47179633148	1095.19995117188
1535.09981360757	1100
1535.72774906929	1093.80004882813
1536.35560272415	1089.40002441406
1536.98337457963	1094.59997558594
1537.61106464323	1096.80004882813
1538.23867292243	1100.59997558594
1538.86619942473	1105.19995117188
1539.49364415762	1102.59997558594
1540.12100712857	1100.80004882813
1540.74828834509	1096.80004882813
1541.37548781466	1095.80004882813
1542.00260554478	1092.59997558594
1542.62964154291	1084.80004882813
1543.25659581655	1090
1543.8834683732	1091.59997558594
1544.51025922034	1093.19995117188
1545.13696836544	1099.19995117188
1545.76359581601	1096.19995117188
1546.39014157952	1090.19995117188
1547.01660566345	1098.40002441406
1547.64298807531	1090
1548.26928882255	1091.40002441406
1548.89550791269	1087.19995117188
1549.52164535318	1086.19995117188
1550.14770115153	1091.80004882813
1550.77367531521	1086.40002441406
1551.39956785171	1089
1552.0253787685	1085.59997558594
1552.65110807307	1078.19995117188
1553.2767557729	1079.40002441406
1553.90232187548	1081.40002441406
1554.52780638828	1085.19995117188
1555.15320931879	1084.19995117188
1555.77853067447	1084.40002441406
1556.40377046282	1092.19995117188
1557.02892869132	1089
1557.65400536744	1079.80004882813
1558.27900049866	1083.80004882813
1558.90391409247	1077.19995117188
1559.52874615633	1072.80004882813
1560.15349669773	1073.59997558594
1560.77816572414	1074
1561.40275324305	1078.59997558594
1562.02725926192	1077.40002441406
1562.65168378824	1080.59997558594
1563.27602682948	1072.59997558594
1563.90028839311	1077.59997558594
1564.52446848662	1086.40002441406
1565.14856711748	1086.19995117188
1565.77258429316	1080.19995117188
1566.39652002113	1081.19995117188
1567.02037430887	1085.80004882813
1567.64414716387	1080.59997558594
1568.26783859357	1076.40002441406
1568.89144860547	1083.59997558594
1569.51497720703	1076.80004882813
1570.13842440573	1084.19995117188
1570.76179020904	1086.19995117188
1571.38507462442	1080.59997558594
1572.00827765936	1084.19995117188
1572.63139932132	1083.19995117188
1573.25443961777	1083.80004882813
1573.87739855618	1083.59997558594
1574.50027614402	1083
1575.12307238877	1085.40002441406
1575.74578729789	1080.59997558594
1576.36842087885	1075.19995117188
1576.99097313912	1081.40002441406
1577.61344408616	1083
1578.23583372745	1091.80004882813
1578.85814207046	1093
1579.48036912264	1085.59997558594
1580.10251489147	1089.80004882813
1580.72457938441	1081.40002441406
1581.34656260893	1078.59997558594
1581.9684645725	1074
1582.59028528258	1075.19995117188
1583.21202474663	1071.59997558594
1583.83368297212	1063.59997558594
1584.45525996652	1069.59997558594
1585.07675573728	1070.80004882813
1585.69817029188	1066.40002441406
1586.31950363778	1065.59997558594
1586.94075578243	1067.19995117188
1587.5619267333	1064.40002441406
1588.18301649786	1068
1588.80402508357	1069.59997558594
1589.42495249788	1074.80004882813
1590.04579874826	1069.80004882813
1590.66656384217	1070.40002441406
1591.28724778707	1072
1591.90785059042	1065
1592.52837225968	1065
1593.14881280232	1066.59997558594
1593.76917222578	1061.19995117188
1594.38945053753	1061.40002441406
1595.00964774502	1062
1595.62976385573	1067.40002441406
1596.24979887709	1068
1596.86975281657	1057
1597.48962568164	1060
1598.10941747974	1062.40002441406
1598.72912821832	1060.40002441406
1599.34875790486	1060.80004882813
1599.9683065468	1065.19995117188
1600.58777415159	1067.40002441406
1601.2071607267	1070.19995117188
1601.82646627958	1069.19995117188
1602.44569081769	1068.19995117188
1603.06483434846	1058.59997558594
1603.68389687937	1058.59997558594
1604.30287841786	1057.59997558594
1604.92177897139	1054.80004882813
1605.54059854741	1056
1606.15933715337	1057
1606.77799479672	1064.59997558594
1607.39657148492	1067.59997558594
1608.01506722542	1058.59997558594
1608.63348202566	1064.19995117188
1609.2518158931	1062.40002441406
1609.87006883519	1060.80004882813
1610.48824085939	1056.59997558594
1611.10633197312	1058.19995117188
1611.72434218386	1059.40002441406
1612.34227149904	1060.59997558594
1612.96011992612	1054.59997558594
1613.57788747254	1052.80004882813
1614.19557414575	1059.80004882813
1614.8131799532	1055.19995117188
1615.43070490234	1060.59997558594
1616.04814900061	1059.80004882813
1616.66551225545	1058.80004882813
1617.28279467433	1056.40002441406
1617.89999626467	1053.80004882813
1618.51711703393	1054.59997558594
1619.13415698955	1056
1619.75111613898	1051
1620.36799448966	1061.19995117188
1620.98479204903	1064.80004882813
1621.60150882455	1075
1622.21814482364	1073
1622.83470005376	1069
1623.45117452235	1062.40002441406
1624.06756823685	1062.40002441406
1624.6838812047	1057
1625.30011343335	1055.59997558594
1625.91626493022	1063.19995117188
1626.53233570278	1057.19995117188
1627.14832575845	1066.80004882813
1627.76423510468	1059
1628.38006374891	1066.40002441406
1628.99581169857	1059.59997558594
1629.61147896111	1058.19995117188
1630.22706554397	1055.40002441406
1630.84257145457	1061.59997558594
1631.45799670038	1058.40002441406
1632.07334128881	1055.40002441406
1632.6886052273	1058.19995117188
1633.3037885233	1050.19995117188
1633.91889118425	1049.19995117188
1634.53391321757	1052.59997558594
1635.1488546307	1049.40002441406
1635.76371543108	1049.19995117188
1636.37849562616	1045
1636.99319522335	1047.80004882813
1637.60781423009	1042.40002441406
1638.22235265383	1039.19995117188
1638.83681050198	1033.80004882813
1639.451187782	1038.80004882813
1640.0654845013	1043
1640.67970066734	1048.19995117188
1641.29383628752	1053.80004882813
1641.9078913693	1058.80004882813
1642.5218659201	1050.19995117188
1643.13575994735	1056
1643.74957345849	1057
1644.36330646094	1063.59997558594
1644.97695896213	1062.19995117188
1645.59053096951	1063.40002441406
1646.20402249049	1059.59997558594
1646.8174335325	1065.19995117188
1647.43076410298	1063.59997558594
1648.04401420935	1069.59997558594
1648.65718385905	1063.40002441406
1649.2702730595	1068.59997558594
1649.88328181812	1065.40002441406
1650.49621014236	1065.40002441406
1651.10905803963	1062.80004882813
1651.72182551735	1055.59997558594
1652.33451258297	1069
1652.9471192439	1052
1653.55964550757	1051
1654.1720913814	1049
1654.78445687283	1044.40002441406
1655.39674198926	1041
1656.00894673814	1048.19995117188
1656.62107112688	1037.40002441406
1657.23311516291	1028
1657.84507885365	1032
1658.45696220652	1035.80004882813
1659.06876522895	1026.40002441406
1659.68048792835	1031
1660.29213031217	1027.59997558594
1660.90369238779	1033.19995117188
1661.51517416267	1026.80004882813
1662.12657564421	1025.19995117188
1662.73789683984	1032
1663.34913775697	1027.40002441406
1663.96029840303	1030.40002441406
1664.57137878544	1023.79998779297
1665.18237891161	1031.40002441406
1665.79329878897	1025.80004882813
1666.40413842493	1025
1667.01489782691	1017.40002441406
1667.62557700233	1021.40002441406
1668.2361759586	1018.40002441406
1668.84669470315	1013.59997558594
1669.4571332434	1013.20001220703
1670.06749158675	1014.40002441406
1670.67776974062	1016.20001220703
1671.28796771243	1015
1671.8980855096	1013.20001220703
1672.50812313954	1016.59997558594
1673.11808060967	1013.20001220703
1673.72795792739	1008.40002441406
1674.33775510013	1009.40002441406
1674.9474721353	1010.59997558594
1675.55710904031	1010.40002441406
1676.16666582257	1011.20001220703
1676.7761424895	1015
1677.38553904851	1014.20001220703
1677.99485550702	1016.40002441406
1678.60409187243	1008.40002441406
1679.21324815215	1010.40002441406
1679.8223243536	1012
1680.43132048419	1010.79998779297
1681.04023655132	1010
1681.64907256241	1010.20001220703
1682.25782852487	1010.20001220703
1682.86650444611	1014
1683.47510033353	1013.59997558594
1684.08361619455	1010.40002441406
1684.69205203657	1009.59997558594
1685.300407867	1011.40002441406
1685.90868369325	1012
1686.51687952272	1005.79998779297
1687.12499536283	1011.40002441406
1687.73303122098	1013.79998779297
1688.34098710457	1014.20001220703
1688.94886302101	1015.20001220703
1689.55665897772	1009.40002441406
1690.16437498208	1010.79998779297
1690.77201104152	1007.79998779297
1691.37956716342	1004.59997558594
1691.9870433552	998.599975585938
1692.59443962426	1005.59997558594
1693.20175597801	1006.59997558594
1693.80899242384	1000.59997558594
1694.41614896916	1008.59997558594
1695.02322562138	1008.40002441406
1695.63022238789	1008.20001220703
1696.23713927609	1011
1696.8439762934	1004.79998779297
1697.4507334472	1004.59997558594
1698.05741074491	1002.40002441406
1698.66400819391	1004
1699.27052580161	997.400024414063
1699.87696357542	997.599975585938
1700.48332152272	1000
1701.08959965092	992.599975585938
1701.69579796742	992
1702.30191647962	994
1702.90795519491	993.400024414063
1703.51391412069	993.599975585938
1704.11979326437	990.400024414063
1704.72559263332	990.200012207031
1705.33131223496	987.200012207031
1705.93695207668	988.200012207031
1706.54251216588	989.200012207031
1707.14799250994	986.200012207031
1707.75339311628	990.200012207031
1708.35871399227	986.799987792969
1708.96395514532	991.799987792969
1709.56911658282	989.400024414063
