634.948122577771	1290.40002441406
635.690341530823	1298.80004882813
636.43246851086	1309.80004882813
637.174503525845	1325.59997558594
637.916446583745	1326.59997558594
638.658297692538	1317.59997558594
639.400056860179	1333.80004882813
640.141724094637	1322.80004882813
640.883299403885	1319.59997558594
641.62478279588	1312.40002441406
642.366174278594	1313.40002441406
643.107473859989	1308
643.848681548029	1301.80004882813
644.589797350679	1301.80004882813
645.330821275901	1295.40002441406
646.071753331665	1299.80004882813
646.812593525922	1298.19995117188
647.553341866646	1311.40002441406
648.293998361798	1305.80004882813
649.03456301933	1309.19995117188
649.775035847216	1329.19995117188
650.515416853409	1312.19995117188
651.255706045874	1336.19995117188
651.995903432568	1326.59997558594
652.736009021453	1331.80004882813
653.476022820486	1331.59997558594
654.215944837629	1326.40002441406
654.955775080842	1331.19995117188
655.695513558081	1331.80004882813
656.435160277301	1331.40002441406
657.174715246465	1322
657.914178473527	1332
658.653549966449	1332.59997558594
659.392829733176	1352.40002441406
660.132017781678	1335.19995117188
660.871114119901	1345
661.610118755803	1349.80004882813
662.349031697343	1338.80004882813
663.087852952468	1350.59997558594
663.826582529139	1333.80004882813
664.565220435305	1338.80004882813
665.30376667892	1343
666.04222126794	1337.80004882813
666.780584210316	1334
667.518855514	1334.59997558594
668.25703518694	1330
668.995123237096	1330.40002441406
669.733119672413	1323.80004882813
670.471024500842	1329
671.208837730333	1335.80004882813
671.946559368839	1336.59997558594
672.684189424308	1345
673.421727904689	1333.40002441406
674.159174817929	1347
674.896530171977	1347.19995117188
675.633793974786	1348.59997558594
676.370966234295	1344.59997558594
677.108046958461	1333
677.845036155219	1333.59997558594
678.581933832528	1332
679.318739998323	1320.40002441406
680.055454660558	1326.19995117188
680.792077827172	1330
681.528609506116	1343.19995117188
682.265049705331	1332.40002441406
683.001398432759	1339.80004882813
683.737655696349	1340.59997558594
684.47382150404	1337
685.20989586378	1334.80004882813
685.945878783503	1325.40002441406
686.68177027116	1313.40002441406
687.417570334688	1314.80004882813
688.153278982032	1316.40002441406
688.888896221129	1317.80004882813
689.624422059921	1324
690.359856506349	1333.40002441406
691.095199568354	1333.19995117188
691.830451253874	1333.40002441406
692.565611570844	1331.80004882813
693.300680527212	1337.19995117188
694.03565813091	1334.40002441406
694.770544389877	1342.80004882813
695.505339312053	1319.80004882813
696.240042905372	1330.40002441406
696.974655177772	1321.19995117188
697.70917613719	1328
698.443605791561	1326.80004882813
699.177944148826	1326
699.912191216909	1340.40002441406
700.646347003755	1330.80004882813
701.380411517295	1336.59997558594
702.114384765465	1337
702.848266756195	1341.59997558594
703.582057497421	1334.40002441406
704.315756997074	1352.80004882813
705.049365263089	1342.19995117188
705.782882303399	1345
706.516308125936	1352.80004882813
707.249642738626	1349.40002441406
707.982886149403	1334
708.716038366204	1335.59997558594
709.449099396949	1331.40002441406
710.182069249577	1325
710.914947932009	1333
711.647735452181	1338.19995117188
712.380431818022	1343.59997558594
713.113037037454	1352
713.845551118411	1342.80004882813
714.577974068818	1319.40002441406
715.310305896604	1331
716.042546609694	1337.40002441406
716.774696216013	1330.59997558594
717.506754723493	1346.19995117188
718.238722140053	1343.59997558594
718.970598473624	1354.80004882813
719.702383732127	1354.40002441406
720.43407792349	1362.80004882813
721.165681055634	1359.19995117188
721.897193136486	1350.59997558594
722.628614173966	1342.40002441406
723.359944175997	1351
724.091183150505	1340.40002441406
724.822331105412	1348.59997558594
725.553388048638	1348
726.284353988106	1360.19995117188
727.015228931734	1365.80004882813
727.746012887449	1368.80004882813
728.476705863162	1375.59997558594
729.207307866803	1367.59997558594
729.937818906289	1352.80004882813
730.668238989535	1340.59997558594
731.398568124459	1337.40002441406
732.128806318986	1348.59997558594
732.858953581034	1327.59997558594
733.589009918514	1335
734.318975339348	1342
735.048849851452	1341.19995117188
735.778633462744	1361.40002441406
736.508326181137	1350.19995117188
737.237928014549	1359
737.967438970897	1354.80004882813
738.696859058095	1358.19995117188
739.426188284054	1346.40002441406
740.155426656692	1355.19995117188
740.884574183922	1349.59997558594
741.613630873659	1331.40002441406
742.342596733815	1345
743.071471772302	1344
743.800255997034	1344
744.528949415921	1357.19995117188
745.257552036877	1345
745.986063867811	1352.80004882813
746.714484916638	1343.59997558594
747.442815191261	1350.19995117188
748.171054699597	1346.59997558594
748.899203449554	1336.80004882813
749.627261449039	1339.80004882813
750.355228705966	1335.80004882813
751.083105228239	1331.40002441406
751.810891023765	1339
752.538586100459	1335.59997558594
753.266190466218	1351.40002441406
753.99370412896	1340.80004882813
754.721127096582	1352.80004882813
755.448459377	1347.59997558594
756.175700978114	1345
756.902851907828	1350
757.629912174055	1348.19995117188
758.356881784688	1355.80004882813
759.083760747639	1360.19995117188
759.810549070817	1365.59997558594
760.537246762113	1357.59997558594
761.263853829442	1351.40002441406
761.990370280698	1356
762.716796123791	1356.80004882813
763.443131366618	1364.19995117188
764.169376017082	1371
764.895530083085	1370.40002441406
765.621593572527	1392.80004882813
766.347566493312	1414
767.073448853336	1415.40002441406
767.799240660502	1436.40002441406
768.524941922707	1443
769.250552647854	1431.19995117188
769.976072843836	1417.80004882813
770.701502518551	1438.19995117188
771.426841679905	1443.40002441406
772.152090335793	1473
772.877248494107	1468.80004882813
773.602316162747	1475.19995117188
774.327293349609	1471.80004882813
775.052180062592	1447
775.776976309589	1451.40002441406
776.501682098496	1439.19995117188
777.226297437206	1431.40002441406
777.950822333616	1435.59997558594
778.675256795621	1422.40002441406
779.399600831111	1418.80004882813
780.123854447983	1405.59997558594
780.84801765413	1402.40002441406
781.572090457441	1381.80004882813
782.296072865811	1385.59997558594
783.019964887131	1378.19995117188
783.743766529297	1378.19995117188
784.467477800194	1389.40002441406
785.191098707719	1368.40002441406
785.914629259756	1379.40002441406
786.638069464194	1378.80004882813
787.361419328932	1362.59997558594
788.084678861852	1362.40002441406
788.807848070845	1367.19995117188
789.530926963798	1354.40002441406
790.253915548602	1365.19995117188
790.976813833144	1371.80004882813
791.699621825307	1365.80004882813
792.422339532986	1361.80004882813
793.144966964061	1347
793.86750412642	1350.40002441406
794.589951027946	1344.59997558594
795.312307676536	1329.40002441406
796.03457408006	1332.40002441406
796.756750246417	1343.80004882813
797.478836183477	1347.59997558594
798.200831899137	1368.19995117188
798.92273740127	1370.40002441406
799.644552697769	1359
800.36627779651	1369.59997558594
801.087912705374	1345.19995117188
801.809457432251	1342.40002441406
802.530911985017	1341.80004882813
803.252276371558	1340
803.973550599748	1361.19995117188
804.694734677472	1359.40002441406
805.415828612611	1361.59997558594
806.136832413045	1346.59997558594
806.857746086646	1346.19995117188
807.578569641305	1345.80004882813
808.299303084892	1360
809.019946425289	1351.80004882813
809.740499670372	1357
810.460962828022	1359.59997558594
811.181335906114	1349.19995117188
811.901618912524	1355.59997558594
812.621811855131	1366.80004882813
813.341914741809	1356
814.061927580433	1354.59997558594
814.781850378881	1351.19995117188
815.501683145025	1361.59997558594
816.221425886743	1363.19995117188
816.941078611903	1360
817.660641328387	1365.59997558594
818.380114044065	1359.59997558594
819.099496766808	1363.59997558594
819.818789504492	1364.80004882813
820.53799226499	1351
821.257105056168	1342.40002441406
821.976127885904	1352.59997558594
822.695060762064	1351.80004882813
823.413903692525	1356
824.132656685151	1341.19995117188
824.851319747817	1338.19995117188
825.569892888388	1343.40002441406
826.288376114739	1348.40002441406
827.006769434737	1356.80004882813
827.725072856249	1351
828.443286387142	1362.40002441406
829.161410035285	1353.19995117188
829.87944380855	1358.19995117188
830.597387714798	1351.19995117188
831.315241761898	1353.59997558594
832.033005957715	1350.40002441406
832.750680310119	1349.80004882813
833.468264826969	1352.80004882813
834.18575951614	1348
834.903164385486	1358.19995117188
835.620479442878	1351.80004882813
836.337704696181	1345.19995117188
837.054840153255	1351.40002441406
837.771885821962	1342
838.488841710172	1342.19995117188
839.20570782574	1351
839.922484176531	1339.80004882813
840.639170770409	1336.59997558594
841.355767615231	1334.19995117188
842.072274718864	1330.59997558594
842.788692089164	1332.80004882813
843.505019733993	1330.80004882813
844.221257661209	1329.40002441406
844.937405878676	1325
845.65346439425	1322.19995117188
846.369433215789	1315.80004882813
847.085312351156	1324.19995117188
847.801101808205	1322.59997558594
848.516801594793	1320.40002441406
849.232411718781	1342.80004882813
849.947932188021	1338.19995117188
850.663363010376	1340.19995117188
851.378704193698	1343
852.093955745842	1338.59997558594
852.809117674669	1337.40002441406
853.524189988028	1329.80004882813
854.239172693778	1331.59997558594
854.954065799768	1330.80004882813
855.668869313857	1351.59997558594
856.383583243899	1352.19995117188
857.098207597743	1352
857.812742383246	1352.59997558594
858.527187608255	1345.59997558594
859.241543280628	1336.40002441406
859.955809408218	1333.40002441406
860.669985998868	1341.59997558594
861.384073060437	1333.40002441406
862.098070600772	1333.59997558594
862.811978627724	1344.40002441406
863.52579714914	1317
864.239526172873	1329.19995117188
864.953165706776	1325.80004882813
865.666715758687	1338.80004882813
866.380176336464	1335.40002441406
867.093547447951	1335.80004882813
867.806829100996	1334.19995117188
868.520021303444	1340.40002441406
869.233124063149	1330.19995117188
869.94613738795	1346.80004882813
870.659061285693	1341.80004882813
871.37189576423	1346.40002441406
872.084640831403	1360
872.797296495057	1351.80004882813
873.509862763039	1348
874.22233964319	1347.40002441406
874.934727143353	1354.19995117188
875.647025271374	1347.59997558594
876.359234035097	1358.40002441406
877.071353442361	1345
877.783383501015	1341
878.495324218895	1343.80004882813
879.207175603844	1339.80004882813
879.918937663705	1343.19995117188
880.630610406318	1345.59997558594
881.342193839524	1336.80004882813
882.053687971161	1335
882.765092809069	1342.40002441406
883.476408361091	1340.19995117188
884.187634635066	1337
884.898771638828	1335.59997558594
885.609819380221	1338.19995117188
886.320777867076	1337.59997558594
887.031647107236	1334
887.742427108536	1326.59997558594
888.453117878816	1330.40002441406
889.16371942591	1327
889.874231757652	1331.19995117188
890.584654881883	1337.59997558594
891.294988806434	1348.19995117188
892.005233539141	1337.40002441406
892.715389087837	1334
893.42545546036	1346.59997558594
894.135432664543	1345.40002441406
894.845320708216	1351
895.555119599216	1353
896.264829345375	1350.19995117188
896.974449954526	1354.80004882813
897.683981434496	1347
898.393423793125	1343.40002441406
899.102777038235	1336
899.812041177664	1334.80004882813
900.521216219239	1333.80004882813
901.230302170793	1336.80004882813
901.939299040155	1329.40002441406
902.64820683515	1336.40002441406
903.357025563612	1353.40002441406
904.065755233368	1341
904.774395852247	1354.40002441406
905.482947428076	1349
906.191409968682	1335
906.899783481897	1330.19995117188
907.608067975538	1325.40002441406
908.316263457443	1314.59997558594
909.02436993543	1331.80004882813
909.732387417327	1343
910.440315910959	1333.80004882813
911.148155424154	1348.59997558594
911.855905964731	1340
912.563567540521	1341.80004882813
913.271140159339	1336.40002441406
913.978623829017	1335.59997558594
914.686018557374	1330
915.393324352237	1319.19995117188
916.100541221421	1326.80004882813
916.807669172752	1324.40002441406
917.514708214054	1329.59997558594
918.221658353142	1329.59997558594
918.928519597843	1326.80004882813
919.635291955976	1342
920.341975435358	1335.19995117188
921.048570043813	1333.59997558594
921.75507578916	1338.40002441406
922.461492679212	1334.59997558594
923.167820721795	1335.59997558594
923.874059924726	1339.19995117188
924.58021029582	1340.19995117188
925.286271842893	1346.80004882813
925.992244573769	1349
926.698128496262	1357
927.403923618184	1342.40002441406
928.109629947355	1339.80004882813
928.815247491593	1339.19995117188
929.520776258708	1323
930.226216256519	1330.19995117188
930.931567492841	1320.40002441406
931.636829975482	1327.19995117188
932.342003712263	1325.80004882813
933.047088710995	1334.80004882813
933.752084979491	1351.59997558594
934.456992525564	1340
935.161811357024	1329
935.866541481688	1340.59997558594
936.571182907363	1329.40002441406
937.275735641861	1334.40002441406
937.980199692995	1341.19995117188
938.684575068572	1334.80004882813
939.388861776411	1329.80004882813
940.093059824311	1339.59997558594
940.797169220085	1327.19995117188
941.501189971544	1318.80004882813
942.205122086495	1325.40002441406
942.908965572751	1324.59997558594
943.612720438111	1321
944.316386690391	1321.59997558594
945.019964337391	1318.59997558594
945.723453386924	1329.19995117188
946.426853846795	1323.19995117188
947.130165724808	1310.40002441406
947.83338902877	1309.40002441406
948.536523766488	1309.40002441406
949.239569945764	1305.19995117188
949.942527574402	1321.80004882813
950.64539666021	1315.59997558594
951.348177210993	1323.80004882813
952.050869234548	1340.19995117188
952.753472738683	1338.40002441406
953.455987731199	1339.40002441406
954.158414219898	1327.80004882813
954.860752212587	1336
955.563001717061	1332
956.265162741124	1319.80004882813
956.967235292576	1319.40002441406
957.669219379224	1323.40002441406
958.371115008857	1324.19995117188
959.072922189283	1312.19995117188
959.774640928301	1319.59997558594
960.476271233708	1320.19995117188
961.177813113301	1323.40002441406
961.879266574882	1315.19995117188
962.580631626248	1319.40002441406
963.281908275194	1317.80004882813
963.98309652952	1324.59997558594
964.684196397022	1329
965.3852078855	1318.40002441406
966.086131002745	1326.59997558594
966.786965756555	1313.19995117188
967.487712154726	1323.59997558594
968.188370205055	1318.19995117188
968.888939915331	1325
969.589421293352	1319.40002441406
970.289814346909	1323.80004882813
970.990119083801	1306.80004882813
971.690335511819	1318.59997558594
972.39046363875	1320.19995117188
973.090503472398	1306.59997558594
973.790455020545	1293.40002441406
974.490318290987	1307.19995117188
975.190093291516	1313.40002441406
975.889780029923	1306.19995117188
976.589378513998	1314.40002441406
977.288888751527	1307.19995117188
977.988310750308	1299.59997558594
978.687644518122	1295.80004882813
979.386890062767	1300.59997558594
980.086047392025	1299.40002441406
980.785116513689	1316.80004882813
981.484097435542	1328.59997558594
982.182990165377	1330.59997558594
982.88179471098	1331.80004882813
983.580511080137	1334.40002441406
984.279139280632	1314.19995117188
984.977679320253	1315.80004882813
985.67613120679	1302.80004882813
986.374494948027	1298.40002441406
987.072770551745	1293
987.770958025731	1294.19995117188
988.469057377772	1300.59997558594
989.167068615649	1305.19995117188
989.864991747145	1306.19995117188
990.562826780047	1316.40002441406
991.260573722134	1320
991.958232581195	1317.19995117188
992.655803365003	1307.19995117188
993.353286081346	1302.59997558594
994.050680738006	1303.59997558594
994.74798734276	1307.40002441406
995.44520590339	1305
996.142336427681	1300.80004882813
996.839378923407	1322.19995117188
997.536333398348	1317.59997558594
998.233199860289	1312.59997558594
998.929978317004	1308.59997558594
999.626668776274	1311.80004882813
1000.32327124587	1318
1001.01978573359	1307
1001.71621224718	1314.19995117188
1002.41255079445	1312.40002441406
1003.10880138315	1317.59997558594
1003.80496402107	1327
1004.50103871599	1323.40002441406
1005.19702547567	1315.59997558594
1005.8929243079	1308.40002441406
1006.58873522045	1309.40002441406
1007.2844582211	1294
1007.98009331761	1302.40002441406
1008.67564051776	1310.59997558594
1009.37109982933	1306.40002441406
1010.06647126009	1314.40002441406
1010.7617548178	1326
1011.45695051026	1321.40002441406
1012.15205834522	1316.59997558594
1012.84707833045	1311.80004882813
1013.54201047373	1301.59997558594
1014.23685478284	1307
1014.93161126553	1311.19995117188
1015.62627992959	1302.59997558594
1016.32086078277	1306.19995117188
1017.01535383285	1313.19995117188
1017.70975908761	1304.59997558594
1018.40407655479	1322.19995117188
1019.09830624219	1315.40002441406
1019.79244815755	1318.40002441406
1020.48650230866	1316.59997558594
1021.18046870328	1316.80004882813
1021.87434734917	1323.80004882813
1022.56813825411	1317.59997558594
1023.26184142584	1310.19995117188
1023.95545687216	1304.80004882813
1024.64898460082	1302
1025.34242461957	1298.80004882813
1026.0357769362	1310
1026.72904155846	1309.80004882813
1027.42221849412	1314.40002441406
1028.11530775094	1311.59997558594
1028.80830933668	1312.59997558594
1029.50122325911	1321.59997558594
1030.19404952599	1307.80004882813
1030.88678814508	1298.40002441406
1031.57943912414	1308
1032.27200247093	1309.59997558594
1032.96447819323	1306.59997558594
1033.65686629878	1300.19995117188
1034.34916679534	1302
1035.04137969068	1314.19995117188
1035.73350499256	1286.40002441406
1036.42554270874	1291.80004882813
1037.11749284697	1292.19995117188
1037.80935541501	1301
1038.50113042062	1299.59997558594
1039.19281787156	1309.80004882813
1039.88441777559	1298.59997558594
1040.57593014046	1304
1041.26735497393	1315.19995117188
1041.95869228376	1313.59997558594
1042.6499420777	1302.80004882813
1043.3411043635	1295.40002441406
1044.03217914893	1299.80004882813
1044.72316644174	1310.19995117188
1045.41406624968	1310.80004882813
1046.1048785805	1301.40002441406
1046.79560344197	1298.40002441406
1047.48624084182	1293.19995117188
1048.17679078783	1291
1048.86725328774	1298
1049.55762834929	1291
1050.24791598025	1289
1050.93811618837	1294.19995117188
1051.62822898139	1303.40002441406
1052.31825436707	1288
1053.00819235315	1299.80004882813
1053.6980429474	1311
1054.38780615755	1292.80004882813
1055.07748199136	1303
1055.76707045658	1289.59997558594
1056.45657156095	1301.80004882813
1057.14598531222	1302.59997558594
1057.83531171814	1285
1058.52455078646	1292
1059.21370252494	1271.59997558594
1059.90276694129	1287.19995117188
1060.5917440433	1274.40002441406
1061.28063383868	1271.40002441406
1061.9694363352	1282.19995117188
1062.65815154059	1279.80004882813
1063.34677946261	1282.40002441406
1064.03532010899	1287
1064.72377348748	1287.80004882813
1065.41213960583	1295.19995117188
1066.10041847177	1284.19995117188
1066.78861009306	1280.40002441406
1067.47671447743	1278.80004882813
1068.16473163263	1283.59997558594
1068.85266156639	1278.40002441406
1069.54050428647	1281.59997558594
1070.2282598006	1290.40002441406
1070.91592811652	1289.40002441406
1071.60350924198	1298.19995117188
1072.29100318471	1283.59997558594
1072.97840995245	1293.19995117188
1073.66572955295	1284.19995117188
1074.35296199394	1288.59997558594
1075.04010728316	1286
1075.72716542836	1296.40002441406
1076.41413643726	1294.80004882813
1077.10102031761	1292
1077.78781707715	1286
1078.4745267236	1295
1079.16114926471	1289.19995117188
1079.84768470822	1302
1080.53413306185	1296.59997558594
1081.22049433336	1286.59997558594
1081.90676853046	1295
1082.5929556609	1293.59997558594
1083.27905573241	1293.59997558594
1083.96506875272	1290.19995117188
1084.65099472957	1287
1085.3368336707	1291.80004882813
1086.02258558383	1289.40002441406
1086.70825047669	1300.59997558594
1087.39382835703	1299
1088.07931923257	1292.40002441406
1088.76472311104	1289.40002441406
1089.45004000018	1288.40002441406
1090.13526990771	1294.19995117188
1090.82041284137	1293.59997558594
1091.50546880889	1301.59997558594
1092.19043781799	1297.59997558594
1092.87531987642	1299
1093.56011499188	1295
1094.24482317212	1289
1094.92944442486	1296.59997558594
1095.61397875783	1284.80004882813
1096.29842617876	1279.19995117188
1096.98278669537	1292
1097.6670603154	1289.59997558594
1098.35124704656	1293.40002441406
1099.03534689659	1282
1099.71935987322	1287.40002441406
1100.40328598416	1287
1101.08712523713	1273.19995117188
1101.77087763988	1269.59997558594
1102.45454320012	1260.19995117188
1103.13812192557	1277.19995117188
1103.82161382396	1272
1104.50501890301	1281.59997558594
1105.18833717045	1286.40002441406
1105.87156863399	1277
1106.55471330137	1277
1107.2377711803	1273.59997558594
1107.9207422785	1281
1108.60362660369	1283.40002441406
1109.2864241636	1285.59997558594
1109.96913496594	1289.59997558594
1110.65175901844	1287.40002441406
1111.33429632882	1296.40002441406
1112.01674690479	1293.59997558594
1112.69911075408	1293
1113.38138788439	1291.40002441406
1114.06357830346	1281.59997558594
1114.745682019	1292.59997558594
1115.42769903872	1291
1116.10962937035	1286.80004882813
1116.7914730216	1287.40002441406
1117.47323000018	1282.19995117188
1118.15490031382	1271.80004882813
1118.83648397022	1267
1119.51798097712	1281
1120.1993913422	1275.80004882813
1120.88071507321	1277
1121.56195217784	1289.59997558594
1122.24310266381	1291.19995117188
1122.92416653884	1296.59997558594
1123.60514381064	1294.80004882813
1124.28603448692	1298.40002441406
1124.9668385754	1295.19995117188
1125.64755608378	1294.59997558594
1126.32818701978	1286
1127.00873139111	1285.80004882813
1127.68918920548	1289.59997558594
1128.3695604706	1280.40002441406
1129.04984519419	1272.80004882813
1129.73004338394	1280.80004882813
1130.41015504758	1287
1131.09018019281	1288.59997558594
1131.77011882734	1282.80004882813
1132.44997095888	1276.80004882813
1133.12973659514	1293.80004882813
1133.80941574381	1282.59997558594
1134.48900841263	1288.59997558594
1135.16851460927	1293.19995117188
1135.84793434147	1288.19995117188
1136.52726761692	1294.59997558594
1137.20651444333	1293.19995117188
1137.8856748284	1288.59997558594
1138.56474877984	1283.40002441406
1139.24373630536	1282.19995117188
1139.92263741265	1276.19995117188
1140.60145210943	1276.40002441406
1141.28018040339	1275.19995117188
1141.95882230225	1281
1142.6373778137	1282.80004882813
1143.31584694545	1281.59997558594
1143.99422970519	1275.19995117188
1144.67252610064	1285
1145.35073613949	1277.59997558594
1146.02885982944	1260.40002441406
1146.7068971782	1285.40002441406
1147.38484819347	1276.19995117188
1148.06271288294	1287
1148.74049125432	1284
1149.41818331531	1288.80004882813
1150.0957890736	1283.80004882813
1150.77330853689	1277
1151.45074171289	1271.19995117188
1152.12808860928	1268.19995117188
1152.80534923378	1272.80004882813
1153.48252359407	1272.40002441406
1154.15961169786	1280.59997558594
1154.83661355283	1270.80004882813
1155.51352916669	1268.59997558594
1156.19035854713	1273.40002441406
1156.86710170185	1275.19995117188
1157.54375863855	1275
1158.22032936491	1265
1158.89681388863	1272.80004882813
1159.57321221741	1262.80004882813
1160.24952435894	1270.59997558594
1160.92575032092	1276
1161.60189011103	1276.59997558594
1162.27794373697	1280.59997558594
1162.95391120644	1282.59997558594
1163.62979252712	1283.19995117188
1164.3055877067	1274.40002441406
1164.98129675288	1283.80004882813
1165.65691967336	1284.19995117188
1166.33245647581	1278
1167.00790716792	1276.40002441406
1167.6832717574	1269.59997558594
1168.35855025193	1285.80004882813
1169.0337426592	1289.59997558594
1169.70884898689	1297
1170.3838692427	1292
1171.05880343431	1285.80004882813
1171.73365156941	1278.80004882813
1172.40841365569	1292
1173.08308970083	1277.80004882813
1173.75767971253	1277.59997558594
1174.43218369847	1278.80004882813
1175.10660166633	1274.40002441406
1175.7809336238	1270.80004882813
1176.45517957857	1288.80004882813
1177.12933953832	1293
1177.80341351073	1287.59997558594
1178.47740150349	1288.59997558594
1179.15130352429	1299
1179.8251195808	1298.80004882813
1180.49884968071	1299
1181.1724938317	1296.59997558594
1181.84605204145	1294.19995117188
1182.51952431766	1304
1183.19291066799	1307.59997558594
1183.86621110013	1292.59997558594
1184.53942562176	1300.19995117188
1185.21255424057	1298.19995117188
1185.88559696422	1309.19995117188
1186.55855380041	1307.19995117188
1187.2314247568	1311.40002441406
1187.90420984109	1302.59997558594
1188.57690906095	1312.80004882813
1189.24952242405	1312
1189.92204993808	1327.40002441406
1190.59449161071	1309.80004882813
1191.26684744962	1322.80004882813
1191.93911746249	1310.80004882813
1192.61130165699	1301
1193.28340004081	1309
1193.95541262161	1299
1194.62733940707	1304.59997558594
1195.29918040487	1291.40002441406
1195.97093562269	1289.40002441406
1196.64260506819	1287.19995117188
1197.31418874905	1286
1197.98568667295	1285.19995117188
1198.65709884755	1277.19995117188
1199.32842528053	1287.80004882813
1199.99966597957	1285.40002441406
1200.67082095234	1296.59997558594
1201.3418902065	1288.19995117188
1202.01287374974	1295.19995117188
1202.68377158971	1291.80004882813
1203.3545837341	1281
1204.02531019057	1272.40002441406
1204.6959509668	1280
1205.36650607045	1269
1206.03697550919	1264
1206.70735929069	1254.80004882813
1207.37765742263	1266.19995117188
1208.04786991266	1265.59997558594
1208.71799676846	1276.40002441406
1209.38803799769	1278.40002441406
1210.05799360803	1277.80004882813
1210.72786360714	1278.59997558594
1211.39764800268	1276
1212.06734680233	1256
1212.73696001375	1264.59997558594
1213.4064876446	1262
1214.07592970255	1273.40002441406
1214.74528619526	1276.40002441406
1215.4145571304	1277.80004882813
1216.08374251564	1278.19995117188
1216.75284235863	1257.19995117188
1217.42185666704	1264.59997558594
1218.09078544854	1246
1218.75962871078	1261.19995117188
1219.42838646143	1262.80004882813
1220.09705870816	1274.19995117188
1220.76564545861	1277.80004882813
1221.43414672046	1281
1222.10256250136	1278.40002441406
1222.77089280898	1272.19995117188
1223.43913765098	1282
1224.107297035	1269.80004882813
1224.77537096873	1277
1225.44335945981	1259.40002441406
1226.1112625159	1258.59997558594
1226.77908014467	1241.59997558594
1227.44681235376	1235.80004882813
1228.11445915085	1249.80004882813
1228.78202054357	1258.19995117188
1229.44949653961	1259.40002441406
1230.11688714659	1261.40002441406
1230.7841923722	1253.40002441406
1231.45141222407	1262.19995117188
1232.11854670988	1258.80004882813
1232.78559583726	1253
1233.45255961388	1257.19995117188
1234.1194380474	1257.19995117188
1234.78623114546	1266.19995117188
1235.45293891572	1255
1236.11956136583	1246.59997558594
1236.78609850345	1256.59997558594
1237.45255033623	1249
1238.11891687182	1250.59997558594
1238.78519811788	1247.59997558594
1239.45139408205	1247.19995117188
1240.11750477198	1246.19995117188
1240.78353019534	1254.40002441406
1241.44947035976	1266.59997558594
1242.11532527291	1254.80004882813
1242.78109494242	1271.19995117188
1243.44677937595	1270
1244.11237858115	1255.40002441406
1244.77789256567	1254
1245.44332133715	1250.80004882813
1246.10866490325	1262.19995117188
1246.7739232716	1253.19995117188
1247.43909644987	1256.80004882813
1248.10418444569	1257
1248.76918726671	1262.80004882813
1249.43410492059	1265.59997558594
1250.09893741496	1244.19995117188
1250.76368475747	1256
1251.42834695576	1257.80004882813
1252.09292401749	1266
1252.75741595029	1256.80004882813
1253.42182276182	1262.40002441406
1254.08614445971	1252.59997558594
1254.75038105161	1257.40002441406
1255.41453254515	1250
1256.07859894799	1248.80004882813
1256.74258026777	1248.40002441406
1257.40647651213	1245.59997558594
1258.0702876887	1261.59997558594
1258.73401380514	1256.40002441406
1259.39765486908	1257.80004882813
1260.06121088817	1268.19995117188
1260.72468187004	1266.19995117188
1261.38806782233	1267.59997558594
1262.05136875269	1256.59997558594
1262.71458466875	1254.40002441406
1263.37771557815	1255.80004882813
1264.04076148854	1257
1264.70372240753	1253.59997558594
1265.3665983428	1246
1266.02938930195	1233.59997558594
1266.69209529263	1247.19995117188
1267.35471632249	1252.40002441406
1268.01725239914	1258.40002441406
1268.67970353024	1260
1269.34206972342	1245.40002441406
1270.00435098631	1251.19995117188
1270.66654732655	1254.40002441406
1271.32865875177	1255
1271.9906852696	1258.40002441406
1272.65262688768	1260.19995117188
1273.31448361365	1251.80004882813
1273.97625545514	1261.59997558594
1274.63794241978	1257.40002441406
1275.2995445152	1253.59997558594
1275.96106174903	1259.40002441406
1276.62249412892	1255.19995117188
1277.28384166248	1265.19995117188
1277.94510435735	1264.59997558594
1278.60628222116	1262.40002441406
1279.26737526155	1259.80004882813
1279.92838348613	1255.59997558594
1280.58930690255	1254.40002441406
1281.25014551842	1255.19995117188
1281.91089934139	1251.80004882813
1282.57156837907	1255.80004882813
1283.2321526391	1261.40002441406
1283.89265212911	1260
1284.55306685671	1248.59997558594
1285.21339682955	1252.59997558594
1285.87364205525	1254.40002441406
1286.53380254142	1252.40002441406
1287.19387829571	1252
1287.85386932573	1252.19995117188
1288.51377563911	1246.40002441406
1289.17359724348	1245.59997558594
1289.83333414646	1242.80004882813
1290.49298635567	1246.80004882813
1291.15255387874	1253.40002441406
1291.8120367233	1248
1292.47143489696	1253.80004882813
1293.13074840736	1248.19995117188
1293.7899772621	1258.80004882813
1294.44912146882	1261.40002441406
1295.10818103513	1265
1295.76715596866	1270.40002441406
1296.42604627704	1265.80004882813
1297.08485196787	1258
1297.74357304878	1260.19995117188
1298.4022095274	1262.19995117188
1299.06076141134	1254
1299.71922870821	1259.80004882813
1300.37761142565	1258.40002441406
1301.03590957126	1265.19995117188
1301.69412315268	1251
1302.3522521775	1259.80004882813
1303.01029665336	1268.40002441406
1303.66825658787	1251.80004882813
1304.32613198865	1263.80004882813
1304.98392286332	1258.19995117188
1305.64162921948	1265.19995117188
1306.29925106476	1262.59997558594
1306.95678840677	1260.40002441406
1307.61424125312	1278.59997558594
1308.27160961145	1279.80004882813
1308.92889348934	1286.19995117188
1309.58609289443	1271.40002441406
1310.24320783432	1277.80004882813
1310.90023831664	1276
1311.55718434898	1275.80004882813
1312.21404593897	1266.40002441406
1312.87082309421	1264
1313.52751582233	1253.59997558594
1314.18412413092	1251
1314.84064802761	1255.19995117188
1315.49708752	1258.80004882813
1316.1534426157	1267.80004882813
1316.80971332233	1275.80004882813
1317.46589964749	1267
1318.1220015988	1270.40002441406
1318.77801918386	1258.19995117188
1319.43395241028	1274.59997558594
1320.08980128567	1272.19995117188
1320.74556581764	1274
1321.4012460138	1274
1322.05684188176	1276.59997558594
1322.71235342911	1280.59997558594
1323.36778066347	1270.80004882813
1324.02312359245	1280.40002441406
1324.67838222365	1272.80004882813
1325.33355656468	1277.59997558594
1325.98864662314	1266
1326.64365240663	1272.40002441406
1327.29857392277	1260.19995117188
1327.95341117915	1256
1328.60816418339	1253.80004882813
1329.26283294308	1246.40002441406
1329.91741746582	1254.19995117188
1330.57191775923	1259.80004882813
1331.2263338309	1259.59997558594
1331.88066568843	1261
1332.53491333943	1250.40002441406
1333.1890767915	1264.19995117188
1333.84315605224	1247.19995117188
1334.49715112925	1250.40002441406
1335.15106203013	1246
1335.80488876249	1254
1336.45863133391	1252.59997558594
1337.112289752	1248.80004882813
1337.76586402437	1260.40002441406
1338.4193541586	1266.59997558594
1339.0727601623	1271.80004882813
1339.72608204306	1273.40002441406
1340.37931980849	1269.59997558594
1341.03247346617	1261.59997558594
1341.68554302372	1258.80004882813
1342.33852848871	1273
1342.99142986876	1275.40002441406
1343.64424717145	1270.40002441406
1344.29698040438	1267.59997558594
1344.94962957515	1258.19995117188
1345.60219469135	1262
1346.25467576058	1263.19995117188
1346.90707279042	1266
1347.55938578848	1261.19995117188
1348.21161476235	1264.40002441406
1348.86375971962	1265.40002441406
1349.51582066787	1279.40002441406
1350.16779761472	1289
1350.81969056774	1283.80004882813
1351.47149953453	1289.40002441406
1352.12322452269	1291
1352.77486553979	1304.40002441406
1353.42642259344	1305.80004882813
1354.07789569122	1313.80004882813
1354.72928484072	1315.19995117188
1355.38059004953	1313.59997558594
1356.03181132525	1316
1356.68294867545	1329.80004882813
1357.33400210773	1324.59997558594
1357.98497162968	1326
1358.63585724889	1329.19995117188
1359.28665897294	1323
1359.93737680942	1319
1360.58801076591	1326
1361.23856085001	1331.59997558594
1361.88902706929	1337.40002441406
1362.53940943135	1340
1363.18970794377	1346
1363.83992261413	1349.59997558594
1364.49005345003	1344.19995117188
1365.14010045904	1340.40002441406
1365.79006364874	1324
1366.43994302673	1310.59997558594
1367.08973860058	1309
1367.73945037788	1302.19995117188
1368.38907836621	1302.80004882813
1369.03862257315	1297.80004882813
1369.68808300629	1287
1370.3374596732	1284.80004882813
1370.98675258148	1287.80004882813
1371.63596173868	1286
1372.28508715241	1288.80004882813
1372.93412883024	1274
1373.58308677974	1271
1374.2319610085	1259.80004882813
1374.8807515241	1260.19995117188
1375.52945833412	1266.80004882813
1376.17808144612	1264
1376.82662086771	1258.59997558594
1377.47507660644	1256.19995117188
1378.12344866989	1252.80004882813
1378.77173706565	1250.19995117188
1379.41994180129	1255.59997558594
1380.06806288439	1247.59997558594
1380.71610032252	1246
1381.36405412326	1254.59997558594
1382.01192429419	1243.40002441406
1382.65971084287	1246.19995117188
1383.30741377688	1243.19995117188
1383.95503310381	1241.19995117188
1384.60256883121	1252.19995117188
1385.25002096667	1250.40002441406
1385.89738951775	1256.59997558594
1386.54467449204	1246
1387.19187589709	1255.19995117188
1387.8389937405	1246.80004882813
1388.48602802982	1237.19995117188
1389.13297877262	1245.80004882813
1389.77984597649	1236
1390.42662964899	1240
1391.07332979768	1242
1391.71994643015	1236
1392.36647955395	1235.80004882813
1393.01292917667	1237.59997558594
1393.65929530586	1244.80004882813
1394.3055779491	1234.40002441406
1394.95177711395	1230
1395.59789280799	1243.40002441406
1396.24392503877	1233.40002441406
1396.88987381387	1236.59997558594
1397.53573914086	1225
1398.1815210273	1230.40002441406
1398.82721948075	1220
1399.47283450878	1215
1400.11836611897	1218.80004882813
1400.76381431886	1216.80004882813
1401.40917911603	1212.19995117188
1402.05446051805	1206
1402.69965853247	1208.80004882813
1403.34477316686	1213.19995117188
1403.98980442878	1220.40002441406
1404.6347523258	1224.59997558594
1405.27961686548	1217.80004882813
1405.92439805538	1216.19995117188
1406.56909590306	1211
1407.21371041608	1216
1407.85824160202	1215.59997558594
1408.50268946841	1210.59997558594
1409.14705402284	1214.40002441406
1409.79133527285	1215.59997558594
1410.43553322601	1218.59997558594
1411.07964788987	1217.80004882813
1411.723679272	1219.40002441406
1412.36762737996	1213
1413.01149222129	1211.40002441406
1413.65527380357	1210
1414.29897213435	1201.59997558594
1414.94258722118	1220.40002441406
1415.58611907163	1220.59997558594
1416.22956769325	1230.59997558594
1416.87293309359	1232.59997558594
1417.51621528021	1223.19995117188
1418.15941426067	1228
1418.80253004253	1228.19995117188
1419.44556263333	1223
1420.08851204063	1223.80004882813
1420.731378272	1237.19995117188
1421.37416133497	1234.19995117188
1422.0168612371	1228.19995117188
1422.65947798596	1222
1423.30201158908	1229.59997558594
1423.94446205403	1223.19995117188
1424.58682938835	1216.19995117188
1425.2291135996	1207.40002441406
1425.87131469532	1216.59997558594
1426.51343268308	1223.19995117188
1427.15546757042	1219.59997558594
1427.79741936488	1234.19995117188
1428.43928807403	1232.59997558594
1429.0810737054	1232.40002441406
1429.72277626656	1229.80004882813
1430.36439576504	1222.59997558594
1431.00593220841	1228.19995117188
1431.64738560419	1223.40002441406
1432.28875595995	1233.59997558594
1432.93004328324	1235
1433.57124758159	1233.19995117188
1434.21236886255	1238.59997558594
1434.85340713368	1237.19995117188
1435.49436240252	1241.80004882813
1436.13523467661	1236.80004882813
1436.77602396349	1231
1437.41673027073	1232.59997558594
1438.05735360585	1232.59997558594
1438.69789397641	1221.59997558594
1439.33835138994	1227.40002441406
1439.978725854	1230.80004882813
1440.61901737612	1232
1441.25922596385	1226
1441.89935162473	1221.59997558594
1442.53939436631	1217.40002441406
1443.17935419612	1210.40002441406
1443.81923112171	1217.59997558594
1444.45902515061	1208.80004882813
1445.09873629038	1217.80004882813
1445.73836454854	1217.80004882813
1446.37790993265	1229
1447.01737245024	1227.40002441406
1447.65675210885	1220.59997558594
1448.29604891602	1232.40002441406
1448.93526287928	1232.59997558594
1449.57439400618	1235.80004882813
1450.21344230426	1226
1450.85240778105	1230.59997558594
1451.49129044409	1232
1452.13009030092	1224.80004882813
1452.76880735907	1218.80004882813
1453.40744162608	1218.80004882813
1454.04599310949	1219.19995117188
1454.68446181683	1220
1455.32284775564	1221.80004882813
1455.96115093345	1223.40002441406
1456.5993713578	1224.59997558594
1457.23750903623	1210.19995117188
1457.87556397626	1214
1458.51353618543	1207.59997558594
1459.15142567127	1207.59997558594
1459.78923244132	1197.59997558594
1460.42695650311	1199.80004882813
1461.06459786417	1210.19995117188
1461.70215653203	1210
1462.33963251423	1218.40002441406
1462.97702581829	1216.19995117188
1463.61433645175	1206
1464.25156442214	1218.19995117188
1464.88870973699	1210.59997558594
1465.52577240382	1202.40002441406
1466.16275243017	1207.59997558594
1466.79964982356	1204.80004882813
1467.43646459154	1206.80004882813
1468.07319674161	1200.19995117188
1468.70984628132	1197
1469.34641321818	1206.40002441406
1469.98289755974	1199.19995117188
1470.6192993135	1186.80004882813
1471.25561848701	1184.59997558594
1471.89185508779	1182.59997558594
1472.52800912336	1189.40002441406
1473.16408060124	1195
1473.80006952897	1187.59997558594
1474.43597591407	1183.80004882813
1475.07179976406	1194.40002441406
1475.70754108647	1205.19995117188
1476.34319988883	1204.80004882813
1476.97877617865	1209.59997558594
1477.61426996345	1203
1478.24968125077	1199.19995117188
1478.88501004812	1207.19995117188
1479.52025636303	1205.80004882813
1480.15542020302	1203.59997558594
1480.79050157561	1204.40002441406
1481.42550048832	1213.40002441406
1482.06041694867	1213.59997558594
1482.69525096418	1203.59997558594
1483.33000254237	1209.19995117188
1483.96467169077	1203
1484.59925841689	1206.80004882813
1485.23376272825	1215
1485.86818463237	1211.40002441406
1486.50252413677	1222.80004882813
1487.13678124896	1210.80004882813
1487.77095597646	1217.80004882813
1488.4050483268	1212.59997558594
1489.03905830749	1221.19995117188
1489.67298592604	1213.80004882813
1490.30683118996	1219
1490.9405941068	1219.59997558594
1491.57427468403	1220.59997558594
1492.2078729292	1215.80004882813
1492.84138884981	1223.59997558594
1493.47482245338	1227.59997558594
1494.10817374742	1236.19995117188
1494.74144273944	1234.59997558594
1495.37462943696	1222.80004882813
1496.0077338475	1227.40002441406
1496.64075597856	1224.40002441406
1497.27369583765	1220.40002441406
1497.9065534323	1221.19995117188
1498.53932877001	1226
1499.17202185829	1231.19995117188
1499.80463270465	1220
1500.43716131661	1227.40002441406
1501.06960770167	1245
1501.70197186735	1237
1502.33425382116	1241.40002441406
1502.96645357059	1251.40002441406
1503.59857112317	1245
1504.23060648641	1257.40002441406
1504.8625596678	1243
1505.49443067486	1256.40002441406
1506.1262195151	1259
1506.75792619602	1246.80004882813
1507.38955072513	1249.40002441406
1508.02109310993	1240.80004882813
1508.65255335794	1253.19995117188
1509.28393147666	1238
1509.91522747359	1241
1510.54644135624	1228
1511.17757313212	1226
1511.80862280872	1227.40002441406
1512.43959039356	1224
1513.07047589413	1231.59997558594
1513.70127931795	1226.59997558594
1514.33200067251	1225.19995117188
1514.96263996531	1229.59997558594
1515.59319720386	1214.59997558594
1516.22367239567	1208.80004882813
1516.85406554822	1213
1517.48437666903	1204.59997558594
1518.1146057656	1204.59997558594
1518.74475284542	1201.19995117188
1519.374817916	1200.80004882813
1520.00480098483	1200
1520.63470205942	1204.80004882813
1521.26452114726	1199
1521.89425825586	1194.80004882813
1522.52391339271	1189.59997558594
1523.15348656531	1188
1523.78297778116	1185.40002441406
1524.41238704775	1190
1525.04171437259	1186
1525.67095976317	1190.80004882813
1526.30012322699	1182
1526.92920477154	1186.40002441406
1527.55820440432	1187.59997558594
1528.18712213283	1196.80004882813
1528.81595796455	1207.80004882813
1529.44471190699	1194.80004882813
1530.07338396764	1193.80004882813
1530.70197415399	1198.80004882813
1531.33048247353	1198.59997558594
1531.95890893377	1196.19995117188
1532.58725354219	1200
1533.21551630629	1210.80004882813
1533.84369723356	1203.59997558594
1534.47179633148	1201.59997558594
1535.09981360757	1206.19995117188
1535.72774906929	1209
1536.35560272415	1206.80004882813
1536.98337457963	1202.80004882813
1537.61106464323	1209.40002441406
1538.23867292243	1201
1538.86619942473	1192.59997558594
1539.49364415762	1184
1540.12100712857	1187.59997558594
1540.74828834509	1190.80004882813
1541.37548781466	1194.59997558594
1542.00260554478	1189
1542.62964154291	1193.19995117188
1543.25659581655	1192
1543.8834683732	1185.19995117188
1544.51025922034	1186.19995117188
1545.13696836544	1175.80004882813
1545.76359581601	1171.40002441406
1546.39014157952	1177.19995117188
1547.01660566345	1178.40002441406
1547.64298807531	1178.59997558594
1548.26928882255	1179
1548.89550791269	1174.40002441406
1549.52164535318	1170.19995117188
1550.14770115153	1157.80004882813
1550.77367531521	1168.59997558594
1551.39956785171	1171
1552.0253787685	1173.80004882813
1552.65110807307	1172
1553.2767557729	1168.19995117188
1553.90232187548	1175
1554.52780638828	1166.59997558594
1555.15320931879	1174.59997558594
1555.77853067447	1179
1556.40377046282	1176.80004882813
1557.02892869132	1173.80004882813
1557.65400536744	1162.19995117188
1558.27900049866	1164.59997558594
1558.90391409247	1156.40002441406
1559.52874615633	1168.59997558594
1560.15349669773	1170.59997558594
1560.77816572414	1172.59997558594
1561.40275324305	1163.19995117188
1562.02725926192	1163.59997558594
1562.65168378824	1160.19995117188
1563.27602682948	1165.59997558594
1563.90028839311	1179
1564.52446848662	1182.80004882813
1565.14856711748	1179.59997558594
1565.77258429316	1176.59997558594
1566.39652002113	1184.40002441406
1567.02037430887	1193
1567.64414716387	1203.40002441406
1568.26783859357	1193.59997558594
1568.89144860547	1194.59997558594
1569.51497720703	1202
1570.13842440573	1195.80004882813
1570.76179020904	1198
1571.38507462442	1187.19995117188
1572.00827765936	1183.80004882813
1572.63139932132	1190.59997558594
1573.25443961777	1191.19995117188
1573.87739855618	1190.80004882813
1574.50027614402	1198.19995117188
1575.12307238877	1199.40002441406
1575.74578729789	1192
1576.36842087885	1184.59997558594
1576.99097313912	1188.80004882813
1577.61344408616	1183.80004882813
1578.23583372745	1175
1578.85814207046	1183
1579.48036912264	1184.40002441406
1580.10251489147	1178
1580.72457938441	1184.19995117188
1581.34656260893	1175.59997558594
1581.9684645725	1172.80004882813
1582.59028528258	1177.59997558594
1583.21202474663	1166.80004882813
1583.83368297212	1166.19995117188
1584.45525996652	1168.40002441406
1585.07675573728	1154
1585.69817029188	1161
1586.31950363778	1162.59997558594
1586.94075578243	1156.59997558594
1587.5619267333	1160.80004882813
1588.18301649786	1151.59997558594
1588.80402508357	1150.40002441406
1589.42495249788	1151.40002441406
1590.04579874826	1153.40002441406
1590.66656384217	1141
1591.28724778707	1149.80004882813
1591.90785059042	1154.19995117188
1592.52837225968	1141.19995117188
1593.14881280232	1152.59997558594
1593.76917222578	1143.59997558594
1594.38945053753	1150.19995117188
1595.00964774502	1154
1595.62976385573	1161.40002441406
1596.24979887709	1165.80004882813
1596.86975281657	1171.40002441406
1597.48962568164	1171.19995117188
1598.10941747974	1162.40002441406
1598.72912821832	1168.19995117188
1599.34875790486	1176
1599.9683065468	1174
1600.58777415159	1175.80004882813
1601.2071607267	1166.59997558594
1601.82646627958	1159.80004882813
1602.44569081769	1156
1603.06483434846	1152
1603.68389687937	1150
1604.30287841786	1140.40002441406
1604.92177897139	1136.80004882813
1605.54059854741	1138.40002441406
1606.15933715337	1131
1606.77799479672	1139.40002441406
1607.39657148492	1136.59997558594
1608.01506722542	1141.80004882813
1608.63348202566	1137.59997558594
1609.2518158931	1133.59997558594
1609.87006883519	1136.59997558594
1610.48824085939	1141.40002441406
1611.10633197312	1137.40002441406
1611.72434218386	1137.40002441406
1612.34227149904	1132.40002441406
1612.96011992612	1137.59997558594
1613.57788747254	1142.19995117188
1614.19557414575	1145.19995117188
1614.8131799532	1133.80004882813
1615.43070490234	1139
1616.04814900061	1142.59997558594
1616.66551225545	1134.19995117188
1617.28279467433	1143
1617.89999626467	1143
1618.51711703393	1145.59997558594
1619.13415698955	1146.59997558594
1619.75111613898	1146
1620.36799448966	1153.40002441406
1620.98479204903	1163.80004882813
1621.60150882455	1159.40002441406
1622.21814482364	1157.19995117188
1622.83470005376	1160
1623.45117452235	1166.80004882813
1624.06756823685	1178.40002441406
1624.6838812047	1170.40002441406
1625.30011343335	1168.40002441406
1625.91626493022	1148.80004882813
1626.53233570278	1136.19995117188
1627.14832575845	1145
1627.76423510468	1141.19995117188
1628.38006374891	1140
1628.99581169857	1136.40002441406
1629.61147896111	1137.80004882813
1630.22706554397	1129.19995117188
1630.84257145457	1136
1631.45799670038	1136.80004882813
1632.07334128881	1134
1632.6886052273	1126
1633.3037885233	1129.59997558594
1633.91889118425	1133.40002441406
1634.53391321757	1127.40002441406
1635.1488546307	1124.80004882813
1635.76371543108	1138.40002441406
1636.37849562616	1127.59997558594
1636.99319522335	1131.19995117188
1637.60781423009	1130.40002441406
1638.22235265383	1132.59997558594
1638.83681050198	1133.40002441406
1639.451187782	1126.59997558594
1640.0654845013	1133.80004882813
1640.67970066734	1134.40002441406
1641.29383628752	1131.40002441406
1641.9078913693	1135.80004882813
1642.5218659201	1141.80004882813
1643.13575994735	1143.80004882813
1643.74957345849	1133.19995117188
1644.36330646094	1141.80004882813
1644.97695896213	1137.59997558594
1645.59053096951	1154.59997558594
1646.20402249049	1143.19995117188
1646.8174335325	1143.19995117188
1647.43076410298	1151.59997558594
1648.04401420935	1161.19995117188
1648.65718385905	1162.19995117188
1649.2702730595	1162.80004882813
1649.88328181812	1153
1650.49621014236	1163.19995117188
1651.10905803963	1164.40002441406
1651.72182551735	1154.59997558594
1652.33451258297	1153
1652.9471192439	1145.80004882813
1653.55964550757	1137.19995117188
1654.1720913814	1140.19995117188
1654.78445687283	1138
1655.39674198926	1138.59997558594
1656.00894673814	1135.59997558594
1656.62107112688	1131.19995117188
1657.23311516291	1128.80004882813
1657.84507885365	1119.19995117188
1658.45696220652	1113.40002441406
1659.06876522895	1116.80004882813
1659.68048792835	1103.19995117188
1660.29213031217	1103.59997558594
1660.90369238779	1108.80004882813
1661.51517416267	1113.80004882813
1662.12657564421	1103.40002441406
1662.73789683984	1101
1663.34913775697	1095.80004882813
1663.96029840303	1093.80004882813
1664.57137878544	1088.80004882813
1665.18237891161	1082.19995117188
1665.79329878897	1081.19995117188
1666.40413842493	1076.19995117188
1667.01489782691	1069.59997558594
1667.62557700233	1074
1668.2361759586	1076
1668.84669470315	1072
1669.4571332434	1062.59997558594
1670.06749158675	1075
1670.67776974062	1075.80004882813
1671.28796771243	1076.19995117188
1671.8980855096	1072.59997558594
1672.50812313954	1079.19995117188
1673.11808060967	1077.19995117188
1673.72795792739	1071.80004882813
1674.33775510013	1067.80004882813
1674.9474721353	1065.40002441406
1675.55710904031	1058
1676.16666582257	1063.19995117188
1676.7761424895	1064.19995117188
1677.38553904851	1060.40002441406
1677.99485550702	1070.80004882813
1678.60409187243	1064.40002441406
1679.21324815215	1077.19995117188
1679.8223243536	1078
1680.43132048419	1075.40002441406
1681.04023655132	1072.59997558594
1681.64907256241	1073.19995117188
1682.25782852487	1065.40002441406
1682.86650444611	1065.59997558594
1683.47510033353	1064.40002441406
1684.08361619455	1061
1684.69205203657	1067.40002441406
1685.300407867	1067
1685.90868369325	1077.59997558594
1686.51687952272	1074.80004882813
1687.12499536283	1070.40002441406
1687.73303122098	1061.59997558594
1688.34098710457	1065.40002441406
1688.94886302101	1054.19995117188
1689.55665897772	1057.40002441406
1690.16437498208	1056.80004882813
1690.77201104152	1054.59997558594
1691.37956716342	1052.80004882813
1691.9870433552	1050.80004882813
1692.59443962426	1049.59997558594
1693.20175597801	1052.59997558594
1693.80899242384	1057.80004882813
1694.41614896916	1061
1695.02322562138	1056.59997558594
1695.63022238789	1055.40002441406
1696.23713927609	1062.80004882813
1696.8439762934	1060.19995117188
1697.4507334472	1058
1698.05741074491	1064.80004882813
1698.66400819391	1051.40002441406
1699.27052580161	1040.40002441406
1699.87696357542	1043.19995117188
1700.48332152272	1043.80004882813
1701.08959965092	1040
1701.69579796742	1039
1702.30191647962	1042.80004882813
1702.90795519491	1041.19995117188
1703.51391412069	1043
1704.11979326437	1038.59997558594
1704.72559263332	1037.19995117188
1705.33131223496	1033.59997558594
1705.93695207668	1040.59997558594
1706.54251216588	1039.80004882813
1707.14799250994	1040.59997558594
1707.75339311628	1039.80004882813
1708.35871399227	1036.40002441406
1708.96395514532	1038
1709.56911658282	1034.80004882813
