634.948122577771	1298
635.690341530823	1297
636.43246851086	1275.59997558594
637.174503525845	1301
637.916446583745	1306.80004882813
638.658297692538	1312.19995117188
639.400056860179	1325.19995117188
640.141724094637	1314.59997558594
640.883299403885	1317.40002441406
641.62478279588	1329
642.366174278594	1316.40002441406
643.107473859989	1323.19995117188
643.848681548029	1313.19995117188
644.589797350679	1300
645.330821275901	1292.59997558594
646.071753331665	1309.80004882813
646.812593525922	1304.19995117188
647.553341866646	1295.59997558594
648.293998361798	1302.40002441406
649.03456301933	1300.80004882813
649.775035847216	1299.40002441406
650.515416853409	1310.80004882813
651.255706045874	1316.19995117188
651.995903432568	1314.40002441406
652.736009021453	1332.59997558594
653.476022820486	1329
654.215944837629	1322.40002441406
654.955775080842	1332.59997558594
655.695513558081	1321.59997558594
656.435160277301	1330
657.174715246465	1343.40002441406
657.914178473527	1345.80004882813
658.653549966449	1338.80004882813
659.392829733176	1338.40002441406
660.132017781678	1338.40002441406
660.871114119901	1328.80004882813
661.610118755803	1329.19995117188
662.349031697343	1337
663.087852952468	1339
663.826582529139	1347
664.565220435305	1339.19995117188
665.30376667892	1334.80004882813
666.04222126794	1330.19995117188
666.780584210316	1330.19995117188
667.518855514	1342
668.25703518694	1338
668.995123237096	1339.59997558594
669.733119672413	1322.80004882813
670.471024500842	1320.59997558594
671.208837730333	1321.19995117188
671.946559368839	1327.19995117188
672.684189424308	1336.19995117188
673.421727904689	1327.80004882813
674.159174817929	1332.80004882813
674.896530171977	1332.19995117188
675.633793974786	1332.80004882813
676.370966234295	1326.40002441406
677.108046958461	1337.19995117188
677.845036155219	1330
678.581933832528	1326
679.318739998323	1321.19995117188
680.055454660558	1328.59997558594
680.792077827172	1333.80004882813
681.528609506116	1344.40002441406
682.265049705331	1348.40002441406
683.001398432759	1356.19995117188
683.737655696349	1355
684.47382150404	1346
685.20989586378	1336.40002441406
685.945878783503	1322.19995117188
686.68177027116	1316
687.417570334688	1321.19995117188
688.153278982032	1313
688.888896221129	1327.19995117188
689.624422059921	1327.40002441406
690.359856506349	1324.80004882813
691.095199568354	1319
691.830451253874	1327.19995117188
692.565611570844	1334.19995117188
693.300680527212	1326.19995117188
694.03565813091	1329.80004882813
694.770544389877	1335.40002441406
695.505339312053	1325.40002441406
696.240042905372	1331.80004882813
696.974655177772	1338.80004882813
697.70917613719	1333.19995117188
698.443605791561	1327
699.177944148826	1330.80004882813
699.912191216909	1331
700.646347003755	1329.19995117188
701.380411517295	1332.40002441406
702.114384765465	1332.40002441406
702.848266756195	1330.80004882813
703.582057497421	1325.40002441406
704.315756997074	1325.19995117188
705.049365263089	1331
705.782882303399	1349.19995117188
706.516308125936	1349.80004882813
707.249642738626	1350
707.982886149403	1352.19995117188
708.716038366204	1343.80004882813
709.449099396949	1340.59997558594
710.182069249577	1328.40002441406
710.914947932009	1328
711.647735452181	1338.59997558594
712.380431818022	1337
713.113037037454	1348.40002441406
713.845551118411	1340.19995117188
714.577974068818	1328
715.310305896604	1331.80004882813
716.042546609694	1324.59997558594
716.774696216013	1340.19995117188
717.506754723493	1349
718.238722140053	1349.59997558594
718.970598473624	1359.40002441406
719.702383732127	1355.40002441406
720.43407792349	1349.40002441406
721.165681055634	1345.19995117188
721.897193136486	1361
722.628614173966	1338.40002441406
723.359944175997	1342
724.091183150505	1348.59997558594
724.822331105412	1343.80004882813
725.553388048638	1344
726.284353988106	1357.80004882813
727.015228931734	1346.80004882813
727.746012887449	1353.19995117188
728.476705863162	1361.59997558594
729.207307866803	1352.40002441406
729.937818906289	1354.19995117188
730.668238989535	1350.19995117188
731.398568124459	1332.80004882813
732.128806318986	1333.40002441406
732.858953581034	1321.80004882813
733.589009918514	1326
734.318975339348	1334.40002441406
735.048849851452	1334
735.778633462744	1343.40002441406
736.508326181137	1344.80004882813
737.237928014549	1351.59997558594
737.967438970897	1359.59997558594
738.696859058095	1357.19995117188
739.426188284054	1365.59997558594
740.155426656692	1370.40002441406
740.884574183922	1357.59997558594
741.613630873659	1348.80004882813
742.342596733815	1345.59997558594
743.071471772302	1357.40002441406
743.800255997034	1343.80004882813
744.528949415921	1356.80004882813
745.257552036877	1342
745.986063867811	1351.59997558594
746.714484916638	1362.80004882813
747.442815191261	1351
748.171054699597	1332.19995117188
748.899203449554	1352.19995117188
749.627261449039	1338.19995117188
750.355228705966	1339.59997558594
751.083105228239	1336.59997558594
751.810891023765	1342.80004882813
752.538586100459	1347
753.266190466218	1349.80004882813
753.99370412896	1346
754.721127096582	1354.40002441406
755.448459377	1356.59997558594
756.175700978114	1361.40002441406
756.902851907828	1355
757.629912174055	1357.19995117188
758.356881784688	1348
759.083760747639	1353.59997558594
759.810549070817	1355.80004882813
760.537246762113	1358.19995117188
761.263853829442	1370.40002441406
761.990370280698	1364
762.716796123791	1355
763.443131366618	1355.59997558594
764.169376017082	1365.59997558594
764.895530083085	1361.80004882813
765.621593572527	1363.19995117188
766.347566493312	1383.40002441406
767.073448853336	1388
767.799240660502	1417.40002441406
768.524941922707	1420.80004882813
769.250552647854	1424
769.976072843836	1429
770.701502518551	1425.80004882813
771.426841679905	1422.19995117188
772.152090335793	1443.80004882813
772.877248494107	1432
773.602316162747	1443.59997558594
774.327293349609	1445.40002441406
775.052180062592	1439.59997558594
775.776976309589	1452
776.501682098496	1431
777.226297437206	1425.59997558594
777.950822333616	1416
778.675256795621	1412.40002441406
779.399600831111	1414.19995117188
780.123854447983	1390.80004882813
780.84801765413	1385
781.572090457441	1381
782.296072865811	1379.80004882813
783.019964887131	1360
783.743766529297	1368.40002441406
784.467477800194	1365.59997558594
785.191098707719	1364.40002441406
785.914629259756	1356.40002441406
786.638069464194	1368.19995117188
787.361419328932	1357.19995117188
788.084678861852	1360.19995117188
788.807848070845	1355.40002441406
789.530926963798	1356.59997558594
790.253915548602	1368
790.976813833144	1361.59997558594
791.699621825307	1371.19995117188
792.422339532986	1373.40002441406
793.144966964061	1372.80004882813
793.86750412642	1346
794.589951027946	1340.59997558594
795.312307676536	1336.59997558594
796.03457408006	1330.59997558594
796.756750246417	1337
797.478836183477	1351.80004882813
798.200831899137	1360.19995117188
798.92273740127	1361
799.644552697769	1354.19995117188
800.36627779651	1350
801.087912705374	1357
801.809457432251	1346.80004882813
802.530911985017	1349.40002441406
803.252276371558	1348.40002441406
803.973550599748	1350.19995117188
804.694734677472	1356
805.415828612611	1350.59997558594
806.136832413045	1365.59997558594
806.857746086646	1349
807.578569641305	1346.19995117188
808.299303084892	1346.59997558594
809.019946425289	1348.19995117188
809.740499670372	1360.40002441406
810.460962828022	1347.19995117188
811.181335906114	1346.59997558594
811.901618912524	1359
812.621811855131	1350
813.341914741809	1348.59997558594
814.061927580433	1354.80004882813
814.781850378881	1350.59997558594
815.501683145025	1348.40002441406
816.221425886743	1342.59997558594
816.941078611903	1346.40002441406
817.660641328387	1354.40002441406
818.380114044065	1365
819.099496766808	1357.19995117188
819.818789504492	1362
820.53799226499	1360.80004882813
821.257105056168	1357.80004882813
821.976127885904	1366.59997558594
822.695060762064	1357.40002441406
823.413903692525	1367
824.132656685151	1348.80004882813
824.851319747817	1357.80004882813
825.569892888388	1350.40002441406
826.288376114739	1358.80004882813
827.006769434737	1358.59997558594
827.725072856249	1352
828.443286387142	1352.40002441406
829.161410035285	1355.80004882813
829.87944380855	1345.59997558594
830.597387714798	1364.80004882813
831.315241761898	1352.40002441406
832.033005957715	1336.40002441406
832.750680310119	1351.80004882813
833.468264826969	1338
834.18575951614	1336
834.903164385486	1344.59997558594
835.620479442878	1344.80004882813
836.337704696181	1352
837.054840153255	1358.80004882813
837.771885821962	1354
838.488841710172	1356.80004882813
839.20570782574	1348.80004882813
839.922484176531	1342.80004882813
840.639170770409	1334.40002441406
841.355767615231	1329.19995117188
842.072274718864	1337.40002441406
842.788692089164	1332
843.505019733993	1337.59997558594
844.221257661209	1340
844.937405878676	1325
845.65346439425	1319.40002441406
846.369433215789	1314.59997558594
847.085312351156	1317.40002441406
847.801101808205	1310.19995117188
848.516801594793	1323
849.232411718781	1326.59997558594
849.947932188021	1331.59997558594
850.663363010376	1332.59997558594
851.378704193698	1328
852.093955745842	1326.19995117188
852.809117674669	1325.40002441406
853.524189988028	1312
854.239172693778	1325.19995117188
854.954065799768	1318.19995117188
855.668869313857	1331.19995117188
856.383583243899	1331
857.098207597743	1335.80004882813
857.812742383246	1334.80004882813
858.527187608255	1339.40002441406
859.241543280628	1343.40002441406
859.955809408218	1343
860.669985998868	1326.19995117188
861.384073060437	1339
862.098070600772	1334.40002441406
862.811978627724	1335
863.52579714914	1331.19995117188
864.239526172873	1326.59997558594
864.953165706776	1325.40002441406
865.666715758687	1328.19995117188
866.380176336464	1319.80004882813
867.093547447951	1324.19995117188
867.806829100996	1340.80004882813
868.520021303444	1336.19995117188
869.233124063149	1331.40002441406
869.94613738795	1339.40002441406
870.659061285693	1332.40002441406
871.37189576423	1336.80004882813
872.084640831403	1344.80004882813
872.797296495057	1352.59997558594
873.509862763039	1351
874.22233964319	1329
874.934727143353	1343.59997558594
875.647025271374	1339.40002441406
876.359234035097	1339.80004882813
877.071353442361	1347.59997558594
877.783383501015	1338.80004882813
878.495324218895	1339.40002441406
879.207175603844	1345.40002441406
879.918937663705	1340.59997558594
880.630610406318	1341.80004882813
881.342193839524	1327.40002441406
882.053687971161	1328
882.765092809069	1330.19995117188
883.476408361091	1330.19995117188
884.187634635066	1344.40002441406
884.898771638828	1328.40002441406
885.609819380221	1335.40002441406
886.320777867076	1336.80004882813
887.031647107236	1352.19995117188
887.742427108536	1338.80004882813
888.453117878816	1350.40002441406
889.16371942591	1326.80004882813
889.874231757652	1322.59997558594
890.584654881883	1326
891.294988806434	1324
892.005233539141	1335.40002441406
892.715389087837	1326.59997558594
893.42545546036	1334.59997558594
894.135432664543	1321.59997558594
894.845320708216	1334.40002441406
895.555119599216	1328.59997558594
896.264829345375	1328.40002441406
896.974449954526	1343.59997558594
897.683981434496	1347.59997558594
898.393423793125	1333.19995117188
899.102777038235	1327.19995117188
899.812041177664	1332.19995117188
900.521216219239	1339
901.230302170793	1340.59997558594
901.939299040155	1329.40002441406
902.64820683515	1331.80004882813
903.357025563612	1332
904.065755233368	1328.59997558594
904.774395852247	1334.80004882813
905.482947428076	1337.40002441406
906.191409968682	1327.59997558594
906.899783481897	1338.59997558594
907.608067975538	1337.19995117188
908.316263457443	1320.80004882813
909.02436993543	1321.40002441406
909.732387417327	1325.19995117188
910.440315910959	1311.19995117188
911.148155424154	1316
911.855905964731	1311
912.563567540521	1330.80004882813
913.271140159339	1326
913.978623829017	1314
914.686018557374	1318.59997558594
915.393324352237	1322.80004882813
916.100541221421	1327.40002441406
916.807669172752	1327.19995117188
917.514708214054	1335
918.221658353142	1319
918.928519597843	1318.59997558594
919.635291955976	1323.40002441406
920.341975435358	1311.80004882813
921.048570043813	1328
921.75507578916	1325.19995117188
922.461492679212	1322
923.167820721795	1316.59997558594
923.874059924726	1313.40002441406
924.58021029582	1331.40002441406
925.286271842893	1323.59997558594
925.992244573769	1342.59997558594
926.698128496262	1336.80004882813
927.403923618184	1335.80004882813
928.109629947355	1328.40002441406
928.815247491593	1329
929.520776258708	1315.59997558594
930.226216256519	1316.40002441406
930.931567492841	1315
931.636829975482	1319.59997558594
932.342003712263	1324.80004882813
933.047088710995	1314.40002441406
933.752084979491	1320.40002441406
934.456992525564	1311
935.161811357024	1320
935.866541481688	1318.59997558594
936.571182907363	1322
937.275735641861	1330.19995117188
937.980199692995	1327.40002441406
938.684575068572	1332.40002441406
939.388861776411	1334.80004882813
940.093059824311	1326.80004882813
940.797169220085	1331.80004882813
941.501189971544	1323.19995117188
942.205122086495	1325.59997558594
942.908965572751	1328.59997558594
943.612720438111	1323
944.316386690391	1330
945.019964337391	1319.40002441406
945.723453386924	1332.19995117188
946.426853846795	1328.59997558594
947.130165724808	1314.40002441406
947.83338902877	1315.80004882813
948.536523766488	1311.19995117188
949.239569945764	1299
949.942527574402	1303
950.64539666021	1307.19995117188
951.348177210993	1307.59997558594
952.050869234548	1323
952.753472738683	1325.80004882813
953.455987731199	1321.59997558594
954.158414219898	1317.80004882813
954.860752212587	1321.59997558594
955.563001717061	1316.59997558594
956.265162741124	1312.80004882813
956.967235292576	1310.19995117188
957.669219379224	1309.80004882813
958.371115008857	1315.40002441406
959.072922189283	1326.19995117188
959.774640928301	1320.40002441406
960.476271233708	1325.59997558594
961.177813113301	1324.40002441406
961.879266574882	1317.80004882813
962.580631626248	1311.80004882813
963.281908275194	1314
963.98309652952	1323.19995117188
964.684196397022	1317.80004882813
965.3852078855	1310.80004882813
966.086131002745	1311.59997558594
966.786965756555	1306.19995117188
967.487712154726	1306.80004882813
968.188370205055	1313.59997558594
968.888939915331	1317.80004882813
969.589421293352	1324.80004882813
970.289814346909	1325
970.990119083801	1302.19995117188
971.690335511819	1307.59997558594
972.39046363875	1314
973.090503472398	1321
973.790455020545	1301.19995117188
974.490318290987	1300.80004882813
975.190093291516	1297.80004882813
975.889780029923	1290.19995117188
976.589378513998	1299
977.288888751527	1296.40002441406
977.988310750308	1302.40002441406
978.687644518122	1292.80004882813
979.386890062767	1306.59997558594
980.086047392025	1306
980.785116513689	1301
981.484097435542	1297
982.182990165377	1315.80004882813
982.88179471098	1306
983.580511080137	1308.59997558594
984.279139280632	1308.59997558594
984.977679320253	1309.59997558594
985.67613120679	1306.59997558594
986.374494948027	1300.80004882813
987.072770551745	1308.19995117188
987.770958025731	1291.19995117188
988.469057377772	1295
989.167068615649	1301
989.864991747145	1302
990.562826780047	1297
991.260573722134	1292.40002441406
991.958232581195	1294.19995117188
992.655803365003	1297
993.353286081346	1298.80004882813
994.050680738006	1291.19995117188
994.74798734276	1294.40002441406
995.44520590339	1301
996.142336427681	1310.40002441406
996.839378923407	1305.19995117188
997.536333398348	1303.19995117188
998.233199860289	1305.19995117188
998.929978317004	1305.19995117188
999.626668776274	1309.19995117188
1000.32327124587	1301.19995117188
1001.01978573359	1301
1001.71621224718	1298
1002.41255079445	1313.19995117188
1003.10880138315	1308.59997558594
1003.80496402107	1322
1004.50103871599	1318.80004882813
1005.19702547567	1306.80004882813
1005.8929243079	1299.19995117188
1006.58873522045	1306.59997558594
1007.2844582211	1298.19995117188
1007.98009331761	1295.59997558594
1008.67564051776	1284.19995117188
1009.37109982933	1285.40002441406
1010.06647126009	1287.59997558594
1010.7617548178	1281.40002441406
1011.45695051026	1306.80004882813
1012.15205834522	1301.80004882813
1012.84707833045	1286.19995117188
1013.54201047373	1302
1014.23685478284	1289
1014.93161126553	1291
1015.62627992959	1298
1016.32086078277	1291.80004882813
1017.01535383285	1302.59997558594
1017.70975908761	1305.80004882813
1018.40407655479	1291
1019.09830624219	1289
1019.79244815755	1279.40002441406
1020.48650230866	1291.19995117188
1021.18046870328	1294.59997558594
1021.87434734917	1293.80004882813
1022.56813825411	1289.40002441406
1023.26184142584	1288.19995117188
1023.95545687216	1292.19995117188
1024.64898460082	1283
1025.34242461957	1280.59997558594
1026.0357769362	1282.59997558594
1026.72904155846	1289.19995117188
1027.42221849412	1283.19995117188
1028.11530775094	1291.19995117188
1028.80830933668	1294
1029.50122325911	1294
1030.19404952599	1286.19995117188
1030.88678814508	1280.59997558594
1031.57943912414	1282.59997558594
1032.27200247093	1287.80004882813
1032.96447819323	1298.40002441406
1033.65686629878	1293.59997558594
1034.34916679534	1295.80004882813
1035.04137969068	1289.80004882813
1035.73350499256	1287.40002441406
1036.42554270874	1275.80004882813
1037.11749284697	1283.19995117188
1037.80935541501	1279.80004882813
1038.50113042062	1271.80004882813
1039.19281787156	1282
1039.88441777559	1285.19995117188
1040.57593014046	1276.19995117188
1041.26735497393	1286
1041.95869228376	1290.19995117188
1042.6499420777	1300.80004882813
1043.3411043635	1289.80004882813
1044.03217914893	1284.80004882813
1044.72316644174	1288.80004882813
1045.41406624968	1298.59997558594
1046.1048785805	1290.19995117188
1046.79560344197	1292.80004882813
1047.48624084182	1283.59997558594
1048.17679078783	1280.40002441406
1048.86725328774	1284
1049.55762834929	1273
1050.24791598025	1285.59997558594
1050.93811618837	1265.19995117188
1051.62822898139	1279.19995117188
1052.31825436707	1279
1053.00819235315	1275.40002441406
1053.6980429474	1279.40002441406
1054.38780615755	1277.59997558594
1055.07748199136	1284
1055.76707045658	1276.59997558594
1056.45657156095	1275.80004882813
1057.14598531222	1291
1057.83531171814	1294.80004882813
1058.52455078646	1279.59997558594
1059.21370252494	1281.59997558594
1059.90276694129	1276.80004882813
1060.5917440433	1275.40002441406
1061.28063383868	1268
1061.9694363352	1275.80004882813
1062.65815154059	1274.59997558594
1063.34677946261	1270.40002441406
1064.03532010899	1277.59997558594
1064.72377348748	1281.40002441406
1065.41213960583	1281
1066.10041847177	1272
1066.78861009306	1275.80004882813
1067.47671447743	1273.40002441406
1068.16473163263	1282
1068.85266156639	1270.40002441406
1069.54050428647	1271.40002441406
1070.2282598006	1266.59997558594
1070.91592811652	1272.80004882813
1071.60350924198	1265
1072.29100318471	1269.19995117188
1072.97840995245	1270.40002441406
1073.66572955295	1283.59997558594
1074.35296199394	1275.59997558594
1075.04010728316	1287.19995117188
1075.72716542836	1290
1076.41413643726	1285.40002441406
1077.10102031761	1270.80004882813
1077.78781707715	1268
1078.4745267236	1282
1079.16114926471	1277.59997558594
1079.84768470822	1279.80004882813
1080.53413306185	1275.80004882813
1081.22049433336	1283
1081.90676853046	1278
1082.5929556609	1282.40002441406
1083.27905573241	1278.80004882813
1083.96506875272	1275.59997558594
1084.65099472957	1275.59997558594
1085.3368336707	1278
1086.02258558383	1267.80004882813
1086.70825047669	1271.59997558594
1087.39382835703	1280
1088.07931923257	1266.59997558594
1088.76472311104	1271.19995117188
1089.45004000018	1273.59997558594
1090.13526990771	1279.80004882813
1090.82041284137	1269.19995117188
1091.50546880889	1282
1092.19043781799	1279.19995117188
1092.87531987642	1281
1093.56011499188	1271.19995117188
1094.24482317212	1276.40002441406
1094.92944442486	1270.40002441406
1095.61397875783	1279.59997558594
1096.29842617876	1265.80004882813
1096.98278669537	1275.40002441406
1097.6670603154	1269.19995117188
1098.35124704656	1264.59997558594
1099.03534689659	1262
1099.71935987322	1270.80004882813
1100.40328598416	1268.40002441406
1101.08712523713	1263
1101.77087763988	1255.80004882813
1102.45454320012	1248.19995117188
1103.13812192557	1253.40002441406
1103.82161382396	1239.19995117188
1104.50501890301	1241.59997558594
1105.18833717045	1261.80004882813
1105.87156863399	1255.40002441406
1106.55471330137	1258.19995117188
1107.2377711803	1268.40002441406
1107.9207422785	1267.40002441406
1108.60362660369	1258.59997558594
1109.2864241636	1252.40002441406
1109.96913496594	1255
1110.65175901844	1262.59997558594
1111.33429632882	1274.40002441406
1112.01674690479	1274.19995117188
1112.69911075408	1274
1113.38138788439	1277.80004882813
1114.06357830346	1268
1114.745682019	1277.59997558594
1115.42769903872	1274
1116.10962937035	1274.40002441406
1116.7914730216	1282.40002441406
1117.47323000018	1263.19995117188
1118.15490031382	1261.80004882813
1118.83648397022	1267.59997558594
1119.51798097712	1271.40002441406
1120.1993913422	1264.40002441406
1120.88071507321	1276.40002441406
1121.56195217784	1272.40002441406
1122.24310266381	1275.59997558594
1122.92416653884	1275.40002441406
1123.60514381064	1269.59997558594
1124.28603448692	1274.80004882813
1124.9668385754	1265
1125.64755608378	1265.80004882813
1126.32818701978	1271.80004882813
1127.00873139111	1265.19995117188
1127.68918920548	1265.19995117188
1128.3695604706	1259.59997558594
1129.04984519419	1257.80004882813
1129.73004338394	1262.19995117188
1130.41015504758	1258.19995117188
1131.09018019281	1255
1131.77011882734	1262.59997558594
1132.44997095888	1257.19995117188
1133.12973659514	1264.80004882813
1133.80941574381	1271.80004882813
1134.48900841263	1271.80004882813
1135.16851460927	1280.80004882813
1135.84793434147	1289.80004882813
1136.52726761692	1265.40002441406
1137.20651444333	1262
1137.8856748284	1260.40002441406
1138.56474877984	1253.19995117188
1139.24373630536	1253.40002441406
1139.92263741265	1250
1140.60145210943	1236.59997558594
1141.28018040339	1252.19995117188
1141.95882230225	1253.59997558594
1142.6373778137	1248.19995117188
1143.31584694545	1251
1143.99422970519	1263.59997558594
1144.67252610064	1264.59997558594
1145.35073613949	1253.40002441406
1146.02885982944	1252.40002441406
1146.7068971782	1253
1147.38484819347	1258
1148.06271288294	1258.40002441406
1148.74049125432	1250.19995117188
1149.41818331531	1251.59997558594
1150.0957890736	1257
1150.77330853689	1257.80004882813
1151.45074171289	1256.40002441406
1152.12808860928	1247.40002441406
1152.80534923378	1256.80004882813
1153.48252359407	1253.59997558594
1154.15961169786	1247.19995117188
1154.83661355283	1255.19995117188
1155.51352916669	1245
1156.19035854713	1249.80004882813
1156.86710170185	1249
1157.54375863855	1243
1158.22032936491	1250.19995117188
1158.89681388863	1254.59997558594
1159.57321221741	1228.40002441406
1160.24952435894	1233.19995117188
1160.92575032092	1228.80004882813
1161.60189011103	1233.80004882813
1162.27794373697	1240
1162.95391120644	1241.40002441406
1163.62979252712	1247.80004882813
1164.3055877067	1249.19995117188
1164.98129675288	1251.40002441406
1165.65691967336	1248.80004882813
1166.33245647581	1257.59997558594
1167.00790716792	1249.80004882813
1167.6832717574	1255.19995117188
1168.35855025193	1264.40002441406
1169.0337426592	1263.19995117188
1169.70884898689	1264.40002441406
1170.3838692427	1266.40002441406
1171.05880343431	1266.59997558594
1171.73365156941	1263.40002441406
1172.40841365569	1254.80004882813
1173.08308970083	1259
1173.75767971253	1250
1174.43218369847	1251.40002441406
1175.10660166633	1244.19995117188
1175.7809336238	1243.59997558594
1176.45517957857	1241
1177.12933953832	1246
1177.80341351073	1255.80004882813
1178.47740150349	1255
1179.15130352429	1266
1179.8251195808	1264
1180.49884968071	1263.40002441406
1181.1724938317	1263.19995117188
1181.84605204145	1253.80004882813
1182.51952431766	1258.59997558594
1183.19291066799	1248.80004882813
1183.86621110013	1257.59997558594
1184.53942562176	1256
1185.21255424057	1258.59997558594
1185.88559696422	1258.80004882813
1186.55855380041	1259.80004882813
1187.2314247568	1257
1187.90420984109	1255
1188.57690906095	1270.59997558594
1189.24952242405	1259
1189.92204993808	1269.19995117188
1190.59449161071	1257
1191.26684744962	1257.59997558594
1191.93911746249	1277.80004882813
1192.61130165699	1265.40002441406
1193.28340004081	1264.40002441406
1193.95541262161	1270.59997558594
1194.62733940707	1271
1195.29918040487	1266.59997558594
1195.97093562269	1249.40002441406
1196.64260506819	1248.59997558594
1197.31418874905	1252.80004882813
1197.98568667295	1244.59997558594
1198.65709884755	1241.80004882813
1199.32842528053	1241.80004882813
1199.99966597957	1246
1200.67082095234	1251.19995117188
1201.3418902065	1248.80004882813
1202.01287374974	1244
1202.68377158971	1242.80004882813
1203.3545837341	1252.59997558594
1204.02531019057	1243
1204.6959509668	1249.80004882813
1205.36650607045	1238.19995117188
1206.03697550919	1231.80004882813
1206.70735929069	1222.19995117188
1207.37765742263	1226.40002441406
1208.04786991266	1228.19995117188
1208.71799676846	1219
1209.38803799769	1239.19995117188
1210.05799360803	1237.59997558594
1210.72786360714	1233.19995117188
1211.39764800268	1239.80004882813
1212.06734680233	1240.59997558594
1212.73696001375	1237.59997558594
1213.4064876446	1232.19995117188
1214.07592970255	1230.40002441406
1214.74528619526	1231.80004882813
1215.4145571304	1230.59997558594
1216.08374251564	1227.40002441406
1216.75284235863	1233.59997558594
1217.42185666704	1224
1218.09078544854	1227.40002441406
1218.75962871078	1232.40002441406
1219.42838646143	1240.40002441406
1220.09705870816	1227.80004882813
1220.76564545861	1243.40002441406
1221.43414672046	1241.59997558594
1222.10256250136	1228
1222.77089280898	1235.19995117188
1223.43913765098	1237.80004882813
1224.107297035	1236.40002441406
1224.77537096873	1235.40002441406
1225.44335945981	1243.19995117188
1226.1112625159	1224.80004882813
1226.77908014467	1211.19995117188
1227.44681235376	1209
1228.11445915085	1210.59997558594
1228.78202054357	1215
1229.44949653961	1232
1230.11688714659	1218.80004882813
1230.7841923722	1233.40002441406
1231.45141222407	1212.19995117188
1232.11854670988	1227.40002441406
1232.78559583726	1227
1233.45255961388	1224.40002441406
1234.1194380474	1218.40002441406
1234.78623114546	1224.80004882813
1235.45293891572	1212.80004882813
1236.11956136583	1221.40002441406
1236.78609850345	1221
1237.45255033623	1217.40002441406
1238.11891687182	1219
1238.78519811788	1220.59997558594
1239.45139408205	1227
1240.11750477198	1215.19995117188
1240.78353019534	1219.59997558594
1241.44947035976	1228.19995117188
1242.11532527291	1221.59997558594
1242.78109494242	1212
1243.44677937595	1224.40002441406
1244.11237858115	1222.19995117188
1244.77789256567	1216.80004882813
1245.44332133715	1211.59997558594
1246.10866490325	1214.19995117188
1246.7739232716	1215.40002441406
1247.43909644987	1215.80004882813
1248.10418444569	1226
1248.76918726671	1216.80004882813
1249.43410492059	1224.59997558594
1250.09893741496	1220.19995117188
1250.76368475747	1225
1251.42834695576	1224
1252.09292401749	1218.40002441406
1252.75741595029	1211.40002441406
1253.42182276182	1215.80004882813
1254.08614445971	1215.19995117188
1254.75038105161	1213
1255.41453254515	1207.40002441406
1256.07859894799	1214.19995117188
1256.74258026777	1214.80004882813
1257.40647651213	1209.80004882813
1258.0702876887	1217.80004882813
1258.73401380514	1225.40002441406
1259.39765486908	1218
1260.06121088817	1229
1260.72468187004	1223
1261.38806782233	1224.80004882813
1262.05136875269	1219.19995117188
1262.71458466875	1219.40002441406
1263.37771557815	1225.80004882813
1264.04076148854	1208.59997558594
1264.70372240753	1210.80004882813
1265.3665983428	1208.40002441406
1266.02938930195	1202.40002441406
1266.69209529263	1205.59997558594
1267.35471632249	1208.40002441406
1268.01725239914	1212.59997558594
1268.67970353024	1212.80004882813
1269.34206972342	1217
1270.00435098631	1207
1270.66654732655	1212.80004882813
1271.32865875177	1219.19995117188
1271.9906852696	1219.40002441406
1272.65262688768	1229.19995117188
1273.31448361365	1214.19995117188
1273.97625545514	1222.80004882813
1274.63794241978	1220
1275.2995445152	1217.80004882813
1275.96106174903	1213
1276.62249412892	1211.40002441406
1277.28384166248	1220.80004882813
1277.94510435735	1221
1278.60628222116	1223
1279.26737526155	1223.80004882813
1279.92838348613	1218.19995117188
1280.58930690255	1222.59997558594
1281.25014551842	1224.59997558594
1281.91089934139	1206.19995117188
1282.57156837907	1212.19995117188
1283.2321526391	1217.80004882813
1283.89265212911	1219.40002441406
1284.55306685671	1218.19995117188
1285.21339682955	1214.40002441406
1285.87364205525	1205
1286.53380254142	1211
1287.19387829571	1209
1287.85386932573	1212.40002441406
1288.51377563911	1208.40002441406
1289.17359724348	1214.40002441406
1289.83333414646	1209
1290.49298635567	1214.40002441406
1291.15255387874	1210
1291.8120367233	1209.80004882813
1292.47143489696	1216.59997558594
1293.13074840736	1214.19995117188
1293.7899772621	1209
1294.44912146882	1213.80004882813
1295.10818103513	1213
1295.76715596866	1225.19995117188
1296.42604627704	1218.80004882813
1297.08485196787	1211
1297.74357304878	1213.19995117188
1298.4022095274	1214.40002441406
1299.06076141134	1205.40002441406
1299.71922870821	1216.40002441406
1300.37761142565	1212.19995117188
1301.03590957126	1211.19995117188
1301.69412315268	1223.80004882813
1302.3522521775	1213.40002441406
1303.01029665336	1219.59997558594
1303.66825658787	1206.19995117188
1304.32613198865	1205.19995117188
1304.98392286332	1210.80004882813
1305.64162921948	1206.59997558594
1306.29925106476	1212
1306.95678840677	1216
1307.61424125312	1224.40002441406
1308.27160961145	1219.40002441406
1308.92889348934	1234.40002441406
1309.58609289443	1233.80004882813
1310.24320783432	1237
1310.90023831664	1223
1311.55718434898	1225
1312.21404593897	1229.80004882813
1312.87082309421	1223.19995117188
1313.52751582233	1215.59997558594
1314.18412413092	1208.80004882813
1314.84064802761	1205.40002441406
1315.49708752	1204.40002441406
1316.1534426157	1208.59997558594
1316.80971332233	1213.80004882813
1317.46589964749	1207.40002441406
1318.1220015988	1212.40002441406
1318.77801918386	1220
1319.43395241028	1216
1320.08980128567	1218.40002441406
1320.74556581764	1214.80004882813
1321.4012460138	1216.40002441406
1322.05684188176	1200.19995117188
1322.71235342911	1209.80004882813
1323.36778066347	1208.59997558594
1324.02312359245	1213.40002441406
1324.67838222365	1216.59997558594
1325.33355656468	1215.80004882813
1325.98864662314	1219.80004882813
1326.64365240663	1224.40002441406
1327.29857392277	1223
1327.95341117915	1220.40002441406
1328.60816418339	1213.19995117188
1329.26283294308	1205.40002441406
1329.91741746582	1195
1330.57191775923	1206.80004882813
1331.2263338309	1212.59997558594
1331.88066568843	1206.19995117188
1332.53491333943	1205.19995117188
1333.1890767915	1200.59997558594
1333.84315605224	1195.40002441406
1334.49715112925	1189.40002441406
1335.15106203013	1197.59997558594
1335.80488876249	1189.59997558594
1336.45863133391	1198.19995117188
1337.112289752	1184
1337.76586402437	1193.80004882813
1338.4193541586	1201.80004882813
1339.0727601623	1200
1339.72608204306	1201.19995117188
1340.37931980849	1206
1341.03247346617	1211.59997558594
1341.68554302372	1205
1342.33852848871	1204.59997558594
1342.99142986876	1211.80004882813
1343.64424717145	1211
1344.29698040438	1212.19995117188
1344.94962957515	1208.40002441406
1345.60219469135	1204.40002441406
1346.25467576058	1204.19995117188
1346.90707279042	1193.19995117188
1347.55938578848	1204.19995117188
1348.21161476235	1206.40002441406
1348.86375971962	1206.40002441406
1349.51582066787	1205.40002441406
1350.16779761472	1207.59997558594
1350.81969056774	1214.19995117188
1351.47149953453	1215.40002441406
1352.12322452269	1225
1352.77486553979	1235.80004882813
1353.42642259344	1232.19995117188
1354.07789569122	1250.40002441406
1354.72928484072	1252
1355.38059004953	1253.80004882813
1356.03181132525	1251.80004882813
1356.68294867545	1253.40002441406
1357.33400210773	1260.19995117188
1357.98497162968	1259.19995117188
1358.63585724889	1269.40002441406
1359.28665897294	1256.40002441406
1359.93737680942	1260.80004882813
1360.58801076591	1258.59997558594
1361.23856085001	1265
1361.88902706929	1265.40002441406
1362.53940943135	1264.40002441406
1363.18970794377	1261.19995117188
1363.83992261413	1272.59997558594
1364.49005345003	1264.80004882813
1365.14010045904	1271.80004882813
1365.79006364874	1265
1366.43994302673	1257
1367.08973860058	1247.19995117188
1367.73945037788	1246
1368.38907836621	1239.19995117188
1369.03862257315	1233.19995117188
1369.68808300629	1234
1370.3374596732	1213.59997558594
1370.98675258148	1221.59997558594
1371.63596173868	1223.40002441406
1372.28508715241	1220.80004882813
1372.93412883024	1214.59997558594
1373.58308677974	1210
1374.2319610085	1209.19995117188
1374.8807515241	1207.59997558594
1375.52945833412	1200
1376.17808144612	1204.19995117188
1376.82662086771	1211
1377.47507660644	1198.19995117188
1378.12344866989	1205.19995117188
1378.77173706565	1193.59997558594
1379.41994180129	1186.80004882813
1380.06806288439	1194.59997558594
1380.71610032252	1190
1381.36405412326	1194
1382.01192429419	1195.40002441406
1382.65971084287	1194.80004882813
1383.30741377688	1193
1383.95503310381	1188.40002441406
1384.60256883121	1187
1385.25002096667	1193.40002441406
1385.89738951775	1195.80004882813
1386.54467449204	1190.40002441406
1387.19187589709	1205
1387.8389937405	1202.19995117188
1388.48602802982	1195.80004882813
1389.13297877262	1195.59997558594
1389.77984597649	1185.80004882813
1390.42662964899	1189.80004882813
1391.07332979768	1198.19995117188
1391.71994643015	1193
1392.36647955395	1193
1393.01292917667	1192.40002441406
1393.65929530586	1185.19995117188
1394.3055779491	1184.59997558594
1394.95177711395	1185.19995117188
1395.59789280799	1186.40002441406
1396.24392503877	1190.19995117188
1396.88987381387	1191.40002441406
1397.53573914086	1189.40002441406
1398.1815210273	1192
1398.82721948075	1181.19995117188
1399.47283450878	1177.80004882813
1400.11836611897	1170.19995117188
1400.76381431886	1167.40002441406
1401.40917911603	1171.40002441406
1402.05446051805	1168
1402.69965853247	1161.59997558594
1403.34477316686	1173.80004882813
1403.98980442878	1165.40002441406
1404.6347523258	1166.40002441406
1405.27961686548	1173
1405.92439805538	1162.59997558594
1406.56909590306	1152.19995117188
1407.21371041608	1156.80004882813
1407.85824160202	1160.80004882813
1408.50268946841	1163
1409.14705402284	1164
1409.79133527285	1162.59997558594
1410.43553322601	1160
1411.07964788987	1168
1411.723679272	1162.59997558594
1412.36762737996	1157.19995117188
1413.01149222129	1155.59997558594
1413.65527380357	1156.59997558594
1414.29897213435	1159.59997558594
1414.94258722118	1160
1415.58611907163	1162.59997558594
1416.22956769325	1165.40002441406
1416.87293309359	1164
1417.51621528021	1167.40002441406
1418.15941426067	1182.19995117188
1418.80253004253	1167.19995117188
1419.44556263333	1174
1420.08851204063	1179.19995117188
1420.731378272	1190.80004882813
1421.37416133497	1189
1422.0168612371	1185.40002441406
1422.65947798596	1189
1423.30201158908	1179.40002441406
1423.94446205403	1174
1424.58682938835	1169.19995117188
1425.2291135996	1164.80004882813
1425.87131469532	1161.59997558594
1426.51343268308	1163
1427.15546757042	1168.80004882813
1427.79741936488	1165.40002441406
1428.43928807403	1160
1429.0810737054	1174.80004882813
1429.72277626656	1168.19995117188
1430.36439576504	1165.19995117188
1431.00593220841	1163.59997558594
1431.64738560419	1163
1432.28875595995	1162
1432.93004328324	1162.19995117188
1433.57124758159	1172.40002441406
1434.21236886255	1168.40002441406
1434.85340713368	1179.80004882813
1435.49436240252	1179.40002441406
1436.13523467661	1178.40002441406
1436.77602396349	1176.80004882813
1437.41673027073	1179.40002441406
1438.05735360585	1183.40002441406
1438.69789397641	1172.19995117188
1439.33835138994	1170.40002441406
1439.978725854	1165
1440.61901737612	1174.80004882813
1441.25922596385	1162.59997558594
1441.89935162473	1169.40002441406
1442.53939436631	1167.80004882813
1443.17935419612	1160.40002441406
1443.81923112171	1160.19995117188
1444.45902515061	1151.80004882813
1445.09873629038	1150.40002441406
1445.73836454854	1151
1446.37790993265	1159.80004882813
1447.01737245024	1167.40002441406
1447.65675210885	1158.40002441406
1448.29604891602	1155
1448.93526287928	1164
1449.57439400618	1170.19995117188
1450.21344230426	1163
1450.85240778105	1171
1451.49129044409	1167.80004882813
1452.13009030092	1176.19995117188
1452.76880735907	1178
1453.40744162608	1161.19995117188
1454.04599310949	1164.40002441406
1454.68446181683	1161
1455.32284775564	1166.80004882813
1455.96115093345	1164.19995117188
1456.5993713578	1164.19995117188
1457.23750903623	1161
1457.87556397626	1163.19995117188
1458.51353618543	1158.80004882813
1459.15142567127	1156.80004882813
1459.78923244132	1154.80004882813
1460.42695650311	1156.40002441406
1461.06459786417	1150.19995117188
1461.70215653203	1151
1462.33963251423	1158.59997558594
1462.97702581829	1149
1463.61433645175	1163.80004882813
1464.25156442214	1158
1464.88870973699	1162.19995117188
1465.52577240382	1156.80004882813
1466.16275243017	1159.80004882813
1466.79964982356	1156.40002441406
1467.43646459154	1156.80004882813
1468.07319674161	1154.19995117188
1468.70984628132	1149.40002441406
1469.34641321818	1150.80004882813
1469.98289755974	1145.19995117188
1470.6192993135	1149.19995117188
1471.25561848701	1135.19995117188
1471.89185508779	1134
1472.52800912336	1137.40002441406
1473.16408060124	1137.59997558594
1473.80006952897	1138.80004882813
1474.43597591407	1144.19995117188
1475.07179976406	1134.59997558594
1475.70754108647	1143
1476.34319988883	1152.59997558594
1476.97877617865	1148.40002441406
1477.61426996345	1146.19995117188
1478.24968125077	1149.80004882813
1478.88501004812	1149.19995117188
1479.52025636303	1149
1480.15542020302	1146.59997558594
1480.79050157561	1144.19995117188
1481.42550048832	1152
1482.06041694867	1151.80004882813
1482.69525096418	1145.59997558594
1483.33000254237	1142.40002441406
1483.96467169077	1151
1484.59925841689	1149.40002441406
1485.23376272825	1151.59997558594
1485.86818463237	1158.40002441406
1486.50252413677	1147.80004882813
1487.13678124896	1150.19995117188
1487.77095597646	1148.59997558594
1488.4050483268	1153.59997558594
1489.03905830749	1163.80004882813
1489.67298592604	1161.19995117188
1490.30683118996	1157.59997558594
1490.9405941068	1152.59997558594
1491.57427468403	1148.19995117188
1492.2078729292	1149
1492.84138884981	1149.40002441406
1493.47482245338	1151.40002441406
1494.10817374742	1162.59997558594
1494.74144273944	1165.40002441406
1495.37462943696	1166.80004882813
1496.0077338475	1166.59997558594
1496.64075597856	1161.19995117188
1497.27369583765	1164.80004882813
1497.9065534323	1162.40002441406
1498.53932877001	1163.19995117188
1499.17202185829	1166.40002441406
1499.80463270465	1173.59997558594
1500.43716131661	1163.80004882813
1501.06960770167	1166
1501.70197186735	1168.19995117188
1502.33425382116	1177.19995117188
1502.96645357059	1180.19995117188
1503.59857112317	1178.40002441406
1504.23060648641	1173.80004882813
1504.8625596678	1178.80004882813
1505.49443067486	1180
1506.1262195151	1185
1506.75792619602	1182.80004882813
1507.38955072513	1188
1508.02109310993	1188.19995117188
1508.65255335794	1174.19995117188
1509.28393147666	1180.40002441406
1509.91522747359	1180.80004882813
1510.54644135624	1174.19995117188
1511.17757313212	1171.59997558594
1511.80862280872	1175.19995117188
1512.43959039356	1162.40002441406
1513.07047589413	1170.19995117188
1513.70127931795	1170.40002441406
1514.33200067251	1160.59997558594
1514.96263996531	1162
1515.59319720386	1165.59997558594
1516.22367239567	1165.40002441406
1516.85406554822	1157.19995117188
1517.48437666903	1156.80004882813
1518.1146057656	1148.59997558594
1518.74475284542	1145.40002441406
1519.374817916	1136.19995117188
1520.00480098483	1137.40002441406
1520.63470205942	1142.80004882813
1521.26452114726	1136.19995117188
1521.89425825586	1144.40002441406
1522.52391339271	1147.40002441406
1523.15348656531	1143.59997558594
1523.78297778116	1137.19995117188
1524.41238704775	1132.19995117188
1525.04171437259	1137.40002441406
1525.67095976317	1132.40002441406
1526.30012322699	1122.40002441406
1526.92920477154	1126.80004882813
1527.55820440432	1136.59997558594
1528.18712213283	1142.59997558594
1528.81595796455	1147.59997558594
1529.44471190699	1138
1530.07338396764	1134.19995117188
1530.70197415399	1131.40002441406
1531.33048247353	1131.40002441406
1531.95890893377	1131
1532.58725354219	1136.80004882813
1533.21551630629	1138.59997558594
1533.84369723356	1139.59997558594
1534.47179633148	1149.40002441406
1535.09981360757	1135
1535.72774906929	1150.80004882813
1536.35560272415	1147.59997558594
1536.98337457963	1150.19995117188
1537.61106464323	1152
1538.23867292243	1151.80004882813
1538.86619942473	1140.40002441406
1539.49364415762	1134.40002441406
1540.12100712857	1132.19995117188
1540.74828834509	1131.80004882813
1541.37548781466	1125.80004882813
1542.00260554478	1122.80004882813
1542.62964154291	1127
1543.25659581655	1134.80004882813
1543.8834683732	1124
1544.51025922034	1130.59997558594
1545.13696836544	1123.59997558594
1545.76359581601	1121.19995117188
1546.39014157952	1121.19995117188
1547.01660566345	1123
1547.64298807531	1121
1548.26928882255	1122.40002441406
1548.89550791269	1115.19995117188
1549.52164535318	1108.80004882813
1550.14770115153	1108.80004882813
1550.77367531521	1110.40002441406
1551.39956785171	1113.80004882813
1552.0253787685	1112.19995117188
1552.65110807307	1119
1553.2767557729	1111.59997558594
1553.90232187548	1112.80004882813
1554.52780638828	1119.59997558594
1555.15320931879	1113.19995117188
1555.77853067447	1116.40002441406
1556.40377046282	1122.40002441406
1557.02892869132	1118
1557.65400536744	1110.59997558594
1558.27900049866	1118.19995117188
1558.90391409247	1111.59997558594
1559.52874615633	1111
1560.15349669773	1113
1560.77816572414	1118
1561.40275324305	1117.19995117188
1562.02725926192	1120.59997558594
1562.65168378824	1118.19995117188
1563.27602682948	1127
1563.90028839311	1124
1564.52446848662	1123.80004882813
1565.14856711748	1126.40002441406
1565.77258429316	1134.19995117188
1566.39652002113	1133.59997558594
1567.02037430887	1134.40002441406
1567.64414716387	1138.19995117188
1568.26783859357	1137.59997558594
1568.89144860547	1143
1569.51497720703	1137.80004882813
1570.13842440573	1148.19995117188
1570.76179020904	1135.59997558594
1571.38507462442	1136
1572.00827765936	1137.59997558594
1572.63139932132	1133.80004882813
1573.25443961777	1139
1573.87739855618	1141.40002441406
1574.50027614402	1141.59997558594
1575.12307238877	1140.40002441406
1575.74578729789	1138
1576.36842087885	1136.40002441406
1576.99097313912	1130.80004882813
1577.61344408616	1131.80004882813
1578.23583372745	1124.40002441406
1578.85814207046	1122
1579.48036912264	1123.40002441406
1580.10251489147	1127
1580.72457938441	1122
1581.34656260893	1127
1581.9684645725	1123.19995117188
1582.59028528258	1121.59997558594
1583.21202474663	1118.19995117188
1583.83368297212	1115.59997558594
1584.45525996652	1119.80004882813
1585.07675573728	1100.59997558594
1585.69817029188	1104.40002441406
1586.31950363778	1101.19995117188
1586.94075578243	1102.19995117188
1587.5619267333	1108
1588.18301649786	1100.80004882813
1588.80402508357	1104.80004882813
1589.42495249788	1107.59997558594
1590.04579874826	1107
1590.66656384217	1111.19995117188
1591.28724778707	1105
1591.90785059042	1111.59997558594
1592.52837225968	1107.40002441406
1593.14881280232	1099
1593.76917222578	1100
1594.38945053753	1101.40002441406
1595.00964774502	1099.80004882813
1595.62976385573	1109
1596.24979887709	1106.80004882813
1596.86975281657	1115.59997558594
1597.48962568164	1110.19995117188
1598.10941747974	1116.80004882813
1598.72912821832	1116
1599.34875790486	1115.80004882813
1599.9683065468	1123.19995117188
1600.58777415159	1119.59997558594
1601.2071607267	1113.19995117188
1601.82646627958	1107
1602.44569081769	1105
1603.06483434846	1110.80004882813
1603.68389687937	1102
1604.30287841786	1107.80004882813
1604.92177897139	1101
1605.54059854741	1099.80004882813
1606.15933715337	1090.80004882813
1606.77799479672	1100.40002441406
1607.39657148492	1095.80004882813
1608.01506722542	1093.80004882813
1608.63348202566	1096.40002441406
1609.2518158931	1089
1609.87006883519	1086.40002441406
1610.48824085939	1091.40002441406
1611.10633197312	1089.40002441406
1611.72434218386	1084
1612.34227149904	1098
1612.96011992612	1081.40002441406
1613.57788747254	1092.80004882813
1614.19557414575	1093.80004882813
1614.8131799532	1098
1615.43070490234	1098
1616.04814900061	1097.40002441406
1616.66551225545	1094
1617.28279467433	1088.40002441406
1617.89999626467	1095.80004882813
1618.51711703393	1090.80004882813
1619.13415698955	1091.80004882813
1619.75111613898	1086.40002441406
1620.36799448966	1095.80004882813
1620.98479204903	1090.19995117188
1621.60150882455	1100.80004882813
1622.21814482364	1099.80004882813
1622.83470005376	1101.80004882813
1623.45117452235	1105.40002441406
1624.06756823685	1107.19995117188
1624.6838812047	1117.19995117188
1625.30011343335	1115.59997558594
1625.91626493022	1108.80004882813
1626.53233570278	1107.40002441406
1627.14832575845	1108.59997558594
1627.76423510468	1101.19995117188
1628.38006374891	1110.19995117188
1628.99581169857	1094.19995117188
1629.61147896111	1100.59997558594
1630.22706554397	1089.80004882813
1630.84257145457	1095.80004882813
1631.45799670038	1088
1632.07334128881	1088
1632.6886052273	1091.80004882813
1633.3037885233	1094
1633.91889118425	1094.59997558594
1634.53391321757	1092.80004882813
1635.1488546307	1096.19995117188
1635.76371543108	1092.80004882813
1636.37849562616	1094.59997558594
1636.99319522335	1100
1637.60781423009	1097
1638.22235265383	1098.59997558594
1638.83681050198	1093.59997558594
1639.451187782	1096.40002441406
1640.0654845013	1091.40002441406
1640.67970066734	1092.80004882813
1641.29383628752	1088.19995117188
1641.9078913693	1091.19995117188
1642.5218659201	1097.40002441406
1643.13575994735	1093
1643.74957345849	1096.80004882813
1644.36330646094	1097.59997558594
1644.97695896213	1101
1645.59053096951	1096.59997558594
1646.20402249049	1102.40002441406
1646.8174335325	1104.40002441406
1647.43076410298	1107.80004882813
1648.04401420935	1103.40002441406
1648.65718385905	1117.80004882813
1649.2702730595	1123
1649.88328181812	1113.80004882813
1650.49621014236	1118.40002441406
1651.10905803963	1116.40002441406
1651.72182551735	1115.40002441406
1652.33451258297	1117.40002441406
1652.9471192439	1108.19995117188
1653.55964550757	1101.40002441406
1654.1720913814	1099.59997558594
1654.78445687283	1099
1655.39674198926	1097.80004882813
1656.00894673814	1095.19995117188
1656.62107112688	1096.19995117188
1657.23311516291	1094
1657.84507885365	1092
1658.45696220652	1088.59997558594
1659.06876522895	1076.19995117188
1659.68048792835	1074.80004882813
1660.29213031217	1069.80004882813
1660.90369238779	1074.19995117188
1661.51517416267	1069.40002441406
1662.12657564421	1070
1662.73789683984	1075
1663.34913775697	1065.19995117188
1663.96029840303	1074
1664.57137878544	1063
1665.18237891161	1063.19995117188
1665.79329878897	1059
1666.40413842493	1056
1667.01489782691	1056.59997558594
1667.62557700233	1050.59997558594
1668.2361759586	1051.40002441406
1668.84669470315	1042
1669.4571332434	1049.80004882813
1670.06749158675	1055.40002441406
1670.67776974062	1054
1671.28796771243	1057.40002441406
1671.8980855096	1055.80004882813
1672.50812313954	1049.80004882813
1673.11808060967	1053
1673.72795792739	1051.19995117188
1674.33775510013	1090.59997558594
1674.9474721353	1038.19995117188
1675.55710904031	1036.80004882813
1676.16666582257	1032.59997558594
1676.7761424895	1032.80004882813
1677.38553904851	1028.59997558594
1677.99485550702	1030.19995117188
1678.60409187243	1031.80004882813
1679.21324815215	1039.59997558594
1679.8223243536	1040.80004882813
1680.43132048419	1050.59997558594
1681.04023655132	1053.19995117188
1681.64907256241	1048
1682.25782852487	1041.19995117188
1682.86650444611	1045.40002441406
1683.47510033353	1035.59997558594
1684.08361619455	1041.19995117188
1684.69205203657	1038.59997558594
1685.300407867	1044
1685.90868369325	1042.80004882813
1686.51687952272	1050.40002441406
1687.12499536283	1047.80004882813
1687.73303122098	1046.59997558594
1688.34098710457	1039
1688.94886302101	1034.40002441406
1689.55665897772	1034.19995117188
1690.16437498208	1030
1690.77201104152	1033.40002441406
1691.37956716342	1031
1691.9870433552	1027.19995117188
1692.59443962426	1025.80004882813
1693.20175597801	1024.59997558594
1693.80899242384	1025.80004882813
1694.41614896916	1031.59997558594
1695.02322562138	1033.40002441406
1695.63022238789	1038.19995117188
1696.23713927609	1034
1696.8439762934	1042.80004882813
1697.4507334472	1038.80004882813
1698.05741074491	1032.80004882813
1698.66400819391	1030.80004882813
1699.27052580161	1032
1699.87696357542	1026.19995117188
1700.48332152272	1021.20001220703
1701.08959965092	1025
1701.69579796742	1019.79998779297
1702.30191647962	1014.20001220703
1702.90795519491	1016.40002441406
1703.51391412069	1013.59997558594
1704.11979326437	1014
1704.72559263332	1014.59997558594
1705.33131223496	1016.20001220703
1705.93695207668	1016.40002441406
1706.54251216588	1019.59997558594
1707.14799250994	1023.40002441406
1707.75339311628	1028
1708.35871399227	1017
1708.96395514532	1025.19995117188
1709.56911658282	1019.20001220703
