634.948122577771	1361.40002441406
635.690341530823	1360.40002441406
636.43246851086	1344.19995117188
637.174503525845	1347.80004882813
637.916446583745	1341.40002441406
638.658297692538	1333.19995117188
639.400056860179	1356
640.141724094637	1360.80004882813
640.883299403885	1360
641.62478279588	1353.40002441406
642.366174278594	1361.40002441406
643.107473859989	1359.59997558594
643.848681548029	1362.80004882813
644.589797350679	1368
645.330821275901	1350
646.071753331665	1345.19995117188
646.812593525922	1352
647.553341866646	1339
648.293998361798	1336
649.03456301933	1341.59997558594
649.775035847216	1334.80004882813
650.515416853409	1332.59997558594
651.255706045874	1330.40002441406
651.995903432568	1344.80004882813
652.736009021453	1353.19995117188
653.476022820486	1351.40002441406
654.215944837629	1343
654.955775080842	1337
655.695513558081	1337
656.435160277301	1345.59997558594
657.174715246465	1359.40002441406
657.914178473527	1380.80004882813
658.653549966449	1404.19995117188
659.392829733176	1398.19995117188
660.132017781678	1389.59997558594
660.871114119901	1396.19995117188
661.610118755803	1389.59997558594
662.349031697343	1380.59997558594
663.087852952468	1375.19995117188
663.826582529139	1390.40002441406
664.565220435305	1382.80004882813
665.30376667892	1380.59997558594
666.04222126794	1373.59997558594
666.780584210316	1375.19995117188
667.518855514	1388
668.25703518694	1397
668.995123237096	1387.59997558594
669.733119672413	1385.59997558594
670.471024500842	1380.59997558594
671.208837730333	1381.40002441406
671.946559368839	1381.80004882813
672.684189424308	1382.59997558594
673.421727904689	1388
674.159174817929	1380.59997558594
674.896530171977	1379.59997558594
675.633793974786	1384.80004882813
676.370966234295	1369.80004882813
677.108046958461	1367
677.845036155219	1376.80004882813
678.581933832528	1370.19995117188
679.318739998323	1361
680.055454660558	1364.19995117188
680.792077827172	1370.19995117188
681.528609506116	1360
682.265049705331	1374.19995117188
683.001398432759	1390
683.737655696349	1398
684.47382150404	1393.59997558594
685.20989586378	1391.59997558594
685.945878783503	1393.19995117188
686.68177027116	1383.80004882813
687.417570334688	1390.40002441406
688.153278982032	1391.40002441406
688.888896221129	1368
689.624422059921	1367.19995117188
690.359856506349	1368.80004882813
691.095199568354	1375.19995117188
691.830451253874	1379.59997558594
692.565611570844	1372
693.300680527212	1372.19995117188
694.03565813091	1384.19995117188
694.770544389877	1380.80004882813
695.505339312053	1378.40002441406
696.240042905372	1379.40002441406
696.974655177772	1385.80004882813
697.70917613719	1384
698.443605791561	1387.59997558594
699.177944148826	1383.40002441406
699.912191216909	1393
700.646347003755	1386.59997558594
701.380411517295	1382.59997558594
702.114384765465	1379.40002441406
702.848266756195	1382.40002441406
703.582057497421	1365.40002441406
704.315756997074	1373.40002441406
705.049365263089	1377.19995117188
705.782882303399	1377.59997558594
706.516308125936	1391.80004882813
707.249642738626	1406.59997558594
707.982886149403	1395.40002441406
708.716038366204	1388
709.449099396949	1402.80004882813
710.182069249577	1386.40002441406
710.914947932009	1403.19995117188
711.647735452181	1388.80004882813
712.380431818022	1381.80004882813
713.113037037454	1390.40002441406
713.845551118411	1388.59997558594
714.577974068818	1378.80004882813
715.310305896604	1387
716.042546609694	1364
716.774696216013	1365.19995117188
717.506754723493	1375.40002441406
718.238722140053	1389.59997558594
718.970598473624	1392
719.702383732127	1387.40002441406
720.43407792349	1390
721.165681055634	1401.80004882813
721.897193136486	1393
722.628614173966	1391.80004882813
723.359944175997	1402.19995117188
724.091183150505	1393.59997558594
724.822331105412	1384.59997558594
725.553388048638	1390.80004882813
726.284353988106	1380.40002441406
727.015228931734	1355.19995117188
727.746012887449	1363.59997558594
728.476705863162	1379
729.207307866803	1386.40002441406
729.937818906289	1390.80004882813
730.668238989535	1393.80004882813
731.398568124459	1383.59997558594
732.128806318986	1359.40002441406
732.858953581034	1367.80004882813
733.589009918514	1372.59997558594
734.318975339348	1363.40002441406
735.048849851452	1373.19995117188
735.778633462744	1368.19995117188
736.508326181137	1366.80004882813
737.237928014549	1383.19995117188
737.967438970897	1389.59997558594
738.696859058095	1394
739.426188284054	1383.40002441406
740.155426656692	1391.19995117188
740.884574183922	1405.40002441406
741.613630873659	1405.80004882813
742.342596733815	1401.40002441406
743.071471772302	1408
743.800255997034	1403.40002441406
744.528949415921	1399.40002441406
745.257552036877	1404.59997558594
745.986063867811	1399.80004882813
746.714484916638	1404.80004882813
747.442815191261	1403.80004882813
748.171054699597	1399.40002441406
748.899203449554	1408
749.627261449039	1397.40002441406
750.355228705966	1396
751.083105228239	1392.19995117188
751.810891023765	1384
752.538586100459	1397
753.266190466218	1388.19995117188
753.99370412896	1382.19995117188
754.721127096582	1374.40002441406
755.448459377	1395
756.175700978114	1390.40002441406
756.902851907828	1400
757.629912174055	1397.59997558594
758.356881784688	1386.59997558594
759.083760747639	1385.80004882813
759.810549070817	1397.59997558594
760.537246762113	1412.80004882813
761.263853829442	1412.80004882813
761.990370280698	1423.59997558594
762.716796123791	1414.80004882813
763.443131366618	1415.59997558594
764.169376017082	1410
764.895530083085	1422.19995117188
765.621593572527	1436.40002441406
766.347566493312	1429.40002441406
767.073448853336	1433.59997558594
767.799240660502	1459
768.524941922707	1480.19995117188
769.250552647854	1485.80004882813
769.976072843836	1486
770.701502518551	1490.80004882813
771.426841679905	1485.59997558594
772.152090335793	1483.80004882813
772.877248494107	1487.40002441406
773.602316162747	1491
774.327293349609	1493
775.052180062592	1495.59997558594
775.776976309589	1499.80004882813
776.501682098496	1476.40002441406
777.226297437206	1482.19995117188
777.950822333616	1484.59997558594
778.675256795621	1473.19995117188
779.399600831111	1481.80004882813
780.123854447983	1457
780.84801765413	1441.59997558594
781.572090457441	1427
782.296072865811	1416.59997558594
783.019964887131	1416.59997558594
783.743766529297	1408.80004882813
784.467477800194	1415.40002441406
785.191098707719	1414.19995117188
785.914629259756	1416.40002441406
786.638069464194	1415
787.361419328932	1411
788.084678861852	1405.19995117188
788.807848070845	1402.80004882813
789.530926963798	1400
790.253915548602	1402.19995117188
790.976813833144	1400.19995117188
791.699621825307	1396
792.422339532986	1412.19995117188
793.144966964061	1408.40002441406
793.86750412642	1392
794.589951027946	1395.40002441406
795.312307676536	1380
796.03457408006	1377.40002441406
796.756750246417	1392
797.478836183477	1391
798.200831899137	1387.19995117188
798.92273740127	1390.80004882813
799.644552697769	1403.80004882813
800.36627779651	1407.80004882813
801.087912705374	1404.19995117188
801.809457432251	1399.80004882813
802.530911985017	1397
803.252276371558	1389.59997558594
803.973550599748	1399.40002441406
804.694734677472	1397.59997558594
805.415828612611	1398.59997558594
806.136832413045	1388.59997558594
806.857746086646	1406.19995117188
807.578569641305	1387.19995117188
808.299303084892	1392.80004882813
809.019946425289	1388.40002441406
809.740499670372	1400.59997558594
810.460962828022	1389.40002441406
811.181335906114	1405.19995117188
811.901618912524	1391.40002441406
812.621811855131	1387.40002441406
813.341914741809	1384.19995117188
814.061927580433	1397.19995117188
814.781850378881	1388.19995117188
815.501683145025	1385.80004882813
816.221425886743	1388.80004882813
816.941078611903	1388.80004882813
817.660641328387	1397.80004882813
818.380114044065	1388.40002441406
819.099496766808	1403.80004882813
819.818789504492	1398.59997558594
820.53799226499	1401.19995117188
821.257105056168	1393.19995117188
821.976127885904	1389.19995117188
822.695060762064	1389.59997558594
823.413903692525	1389
824.132656685151	1386.59997558594
824.851319747817	1391.59997558594
825.569892888388	1401.59997558594
826.288376114739	1402
827.006769434737	1405.19995117188
827.725072856249	1390.59997558594
828.443286387142	1391.40002441406
829.161410035285	1395.80004882813
829.87944380855	1387
830.597387714798	1381
831.315241761898	1386.19995117188
832.033005957715	1374.80004882813
832.750680310119	1376.40002441406
833.468264826969	1367.40002441406
834.18575951614	1367
834.903164385486	1358.40002441406
835.620479442878	1365
836.337704696181	1365
837.054840153255	1378.59997558594
837.771885821962	1397.59997558594
838.488841710172	1383.40002441406
839.20570782574	1391
839.922484176531	1383
840.639170770409	1388.80004882813
841.355767615231	1395
842.072274718864	1393
842.788692089164	1387.19995117188
843.505019733993	1380.19995117188
844.221257661209	1389.40002441406
844.937405878676	1384.80004882813
845.65346439425	1386.80004882813
846.369433215789	1366
847.085312351156	1359.19995117188
847.801101808205	1364.40002441406
848.516801594793	1364.80004882813
849.232411718781	1352.80004882813
849.947932188021	1355.59997558594
850.663363010376	1361.80004882813
851.378704193698	1372.19995117188
852.093955745842	1356.80004882813
852.809117674669	1354.59997558594
853.524189988028	1348.19995117188
854.239172693778	1351
854.954065799768	1354.80004882813
855.668869313857	1360.59997558594
856.383583243899	1361.19995117188
857.098207597743	1359.19995117188
857.812742383246	1362.80004882813
858.527187608255	1362.80004882813
859.241543280628	1369.59997558594
859.955809408218	1365
860.669985998868	1376.80004882813
861.384073060437	1363.80004882813
862.098070600772	1366.59997558594
862.811978627724	1370
863.52579714914	1376.80004882813
864.239526172873	1367.19995117188
864.953165706776	1370
865.666715758687	1379.80004882813
866.380176336464	1375.19995117188
867.093547447951	1368.40002441406
867.806829100996	1370.59997558594
868.520021303444	1372.80004882813
869.233124063149	1375.80004882813
869.94613738795	1376.19995117188
870.659061285693	1373.80004882813
871.37189576423	1370
872.084640831403	1374.19995117188
872.797296495057	1376.59997558594
873.509862763039	1384.59997558594
874.22233964319	1374.80004882813
874.934727143353	1369.59997558594
875.647025271374	1367.80004882813
876.359234035097	1376.19995117188
877.071353442361	1381
877.783383501015	1380.59997558594
878.495324218895	1370.19995117188
879.207175603844	1366.80004882813
879.918937663705	1374.59997558594
880.630610406318	1382
881.342193839524	1381.59997558594
882.053687971161	1370.59997558594
882.765092809069	1374.19995117188
883.476408361091	1370
884.187634635066	1365.19995117188
884.898771638828	1382
885.609819380221	1393.19995117188
886.320777867076	1390.19995117188
887.031647107236	1388.40002441406
887.742427108536	1399.59997558594
888.453117878816	1385.59997558594
889.16371942591	1375.80004882813
889.874231757652	1367
890.584654881883	1370.59997558594
891.294988806434	1367.40002441406
892.005233539141	1375.80004882813
892.715389087837	1364.40002441406
893.42545546036	1369.80004882813
894.135432664543	1366.59997558594
894.845320708216	1361.80004882813
895.555119599216	1366.59997558594
896.264829345375	1354.40002441406
896.974449954526	1367.80004882813
897.683981434496	1385
898.393423793125	1382.59997558594
899.102777038235	1371
899.812041177664	1373.19995117188
900.521216219239	1377.19995117188
901.230302170793	1374.59997558594
901.939299040155	1380.59997558594
902.64820683515	1371.19995117188
903.357025563612	1376.40002441406
904.065755233368	1369.59997558594
904.774395852247	1370.40002441406
905.482947428076	1366.19995117188
906.191409968682	1366
906.899783481897	1366.19995117188
907.608067975538	1379.19995117188
908.316263457443	1362.80004882813
909.02436993543	1365
909.732387417327	1372.80004882813
910.440315910959	1369.19995117188
911.148155424154	1363.40002441406
911.855905964731	1371.80004882813
912.563567540521	1358.80004882813
913.271140159339	1363.40002441406
913.978623829017	1364.80004882813
914.686018557374	1368.80004882813
915.393324352237	1372.40002441406
916.100541221421	1370.80004882813
916.807669172752	1375.19995117188
917.514708214054	1373.59997558594
918.221658353142	1369.19995117188
918.928519597843	1369.19995117188
919.635291955976	1378.40002441406
920.341975435358	1382
921.048570043813	1380.19995117188
921.75507578916	1380.59997558594
922.461492679212	1370.80004882813
923.167820721795	1371.59997558594
923.874059924726	1364.19995117188
924.58021029582	1365.19995117188
925.286271842893	1366.80004882813
925.992244573769	1359
926.698128496262	1362.80004882813
927.403923618184	1359
928.109629947355	1366.19995117188
928.815247491593	1353
929.520776258708	1357
930.226216256519	1362.80004882813
930.931567492841	1361.40002441406
931.636829975482	1351.40002441406
932.342003712263	1366.59997558594
933.047088710995	1363.40002441406
933.752084979491	1363
934.456992525564	1364
935.161811357024	1360.59997558594
935.866541481688	1355.40002441406
936.571182907363	1351.19995117188
937.275735641861	1358.19995117188
937.980199692995	1358.59997558594
938.684575068572	1366
939.388861776411	1360.59997558594
940.093059824311	1367
940.797169220085	1376.19995117188
941.501189971544	1372
942.205122086495	1371
942.908965572751	1366.40002441406
943.612720438111	1362.80004882813
944.316386690391	1364.19995117188
945.019964337391	1359.40002441406
945.723453386924	1360.59997558594
946.426853846795	1362.80004882813
947.130165724808	1361.59997558594
947.83338902877	1351.80004882813
948.536523766488	1344.19995117188
949.239569945764	1348.80004882813
949.942527574402	1331.40002441406
950.64539666021	1322.19995117188
951.348177210993	1333.80004882813
952.050869234548	1326.59997558594
952.753472738683	1336.59997558594
953.455987731199	1343.59997558594
954.158414219898	1356.40002441406
954.860752212587	1350.59997558594
955.563001717061	1347.19995117188
956.265162741124	1338.40002441406
956.967235292576	1336.59997558594
957.669219379224	1340.40002441406
958.371115008857	1331.19995117188
959.072922189283	1343.59997558594
959.774640928301	1345.80004882813
960.476271233708	1356.40002441406
961.177813113301	1363.80004882813
961.879266574882	1351
962.580631626248	1357.40002441406
963.281908275194	1347.40002441406
963.98309652952	1345.40002441406
964.684196397022	1360
965.3852078855	1343.80004882813
966.086131002745	1337.59997558594
966.786965756555	1330
967.487712154726	1324.19995117188
968.188370205055	1318
968.888939915331	1324.19995117188
969.589421293352	1322.80004882813
970.289814346909	1327.80004882813
970.990119083801	1325
971.690335511819	1337.59997558594
972.39046363875	1346
973.090503472398	1344.80004882813
973.790455020545	1348.80004882813
974.490318290987	1339
975.190093291516	1331
975.889780029923	1325.40002441406
976.589378513998	1329.59997558594
977.288888751527	1319.59997558594
977.988310750308	1331.80004882813
978.687644518122	1322.59997558594
979.386890062767	1336.59997558594
980.086047392025	1332.40002441406
980.785116513689	1320.19995117188
981.484097435542	1337
982.182990165377	1341.40002441406
982.88179471098	1342.19995117188
983.580511080137	1345
984.279139280632	1337.40002441406
984.977679320253	1341.80004882813
985.67613120679	1333.80004882813
986.374494948027	1339
987.072770551745	1345.59997558594
987.770958025731	1336
988.469057377772	1333.59997558594
989.167068615649	1345.59997558594
989.864991747145	1334.59997558594
990.562826780047	1344.80004882813
991.260573722134	1337
991.958232581195	1331
992.655803365003	1329.59997558594
993.353286081346	1341.80004882813
994.050680738006	1336.40002441406
994.74798734276	1336
995.44520590339	1339
996.142336427681	1340
996.839378923407	1344
997.536333398348	1338.59997558594
998.233199860289	1344.40002441406
998.929978317004	1342
999.626668776274	1333.59997558594
1000.32327124587	1334.80004882813
1001.01978573359	1332
1001.71621224718	1324.80004882813
1002.41255079445	1334
1003.10880138315	1339.19995117188
1003.80496402107	1342.80004882813
1004.50103871599	1339.59997558594
1005.19702547567	1334.80004882813
1005.8929243079	1343.40002441406
1006.58873522045	1350.59997558594
1007.2844582211	1338.59997558594
1007.98009331761	1335
1008.67564051776	1328.40002441406
1009.37109982933	1315.59997558594
1010.06647126009	1316.40002441406
1010.7617548178	1321.80004882813
1011.45695051026	1316.40002441406
1012.15205834522	1323.59997558594
1012.84707833045	1318.40002441406
1013.54201047373	1306
1014.23685478284	1307.80004882813
1014.93161126553	1308.59997558594
1015.62627992959	1319.59997558594
1016.32086078277	1323
1017.01535383285	1327
1017.70975908761	1323.59997558594
1018.40407655479	1335
1019.09830624219	1328.19995117188
1019.79244815755	1326.80004882813
1020.48650230866	1316.80004882813
1021.18046870328	1303
1021.87434734917	1305
1022.56813825411	1303.19995117188
1023.26184142584	1299.19995117188
1023.95545687216	1295.19995117188
1024.64898460082	1299.80004882813
1025.34242461957	1307.19995117188
1026.0357769362	1306.19995117188
1026.72904155846	1302.19995117188
1027.42221849412	1305.59997558594
1028.11530775094	1309.80004882813
1028.80830933668	1315
1029.50122325911	1315.80004882813
1030.19404952599	1318.59997558594
1030.88678814508	1324.40002441406
1031.57943912414	1315
1032.27200247093	1304.19995117188
1032.96447819323	1323.40002441406
1033.65686629878	1324.40002441406
1034.34916679534	1325.40002441406
1035.04137969068	1334
1035.73350499256	1332.59997558594
1036.42554270874	1323
1037.11749284697	1321.19995117188
1037.80935541501	1316.80004882813
1038.50113042062	1314.40002441406
1039.19281787156	1313.19995117188
1039.88441777559	1317
1040.57593014046	1321.40002441406
1041.26735497393	1316.19995117188
1041.95869228376	1312.59997558594
1042.6499420777	1319
1043.3411043635	1316.40002441406
1044.03217914893	1316
1044.72316644174	1316.59997558594
1045.41406624968	1316.40002441406
1046.1048785805	1301.59997558594
1046.79560344197	1316.80004882813
1047.48624084182	1317
1048.17679078783	1315.80004882813
1048.86725328774	1320.59997558594
1049.55762834929	1321
1050.24791598025	1328.80004882813
1050.93811618837	1316.80004882813
1051.62822898139	1321.80004882813
1052.31825436707	1317
1053.00819235315	1308.19995117188
1053.6980429474	1309.59997558594
1054.38780615755	1310.19995117188
1055.07748199136	1299.40002441406
1055.76707045658	1293.80004882813
1056.45657156095	1298.19995117188
1057.14598531222	1310.19995117188
1057.83531171814	1315.80004882813
1058.52455078646	1322.19995117188
1059.21370252494	1322.40002441406
1059.90276694129	1328
1060.5917440433	1320
1061.28063383868	1318.59997558594
1061.9694363352	1308.40002441406
1062.65815154059	1303
1063.34677946261	1307.80004882813
1064.03532010899	1311.80004882813
1064.72377348748	1315.59997558594
1065.41213960583	1310.19995117188
1066.10041847177	1310.19995117188
1066.78861009306	1312.59997558594
1067.47671447743	1314.19995117188
1068.16473163263	1316
1068.85266156639	1313.40002441406
1069.54050428647	1316.19995117188
1070.2282598006	1311.80004882813
1070.91592811652	1297.59997558594
1071.60350924198	1292.59997558594
1072.29100318471	1288.80004882813
1072.97840995245	1295.19995117188
1073.66572955295	1298.80004882813
1074.35296199394	1309.80004882813
1075.04010728316	1306.59997558594
1075.72716542836	1316
1076.41413643726	1311.80004882813
1077.10102031761	1300.80004882813
1077.78781707715	1313
1078.4745267236	1306.80004882813
1079.16114926471	1308.40002441406
1079.84768470822	1314.40002441406
1080.53413306185	1311.19995117188
1081.22049433336	1312
1081.90676853046	1307.80004882813
1082.5929556609	1306.59997558594
1083.27905573241	1299.59997558594
1083.96506875272	1306.19995117188
1084.65099472957	1313.19995117188
1085.3368336707	1326.80004882813
1086.02258558383	1308
1086.70825047669	1309
1087.39382835703	1291
1088.07931923257	1288.80004882813
1088.76472311104	1294.19995117188
1089.45004000018	1295.80004882813
1090.13526990771	1298
1090.82041284137	1302.19995117188
1091.50546880889	1296.19995117188
1092.19043781799	1299.19995117188
1092.87531987642	1303
1093.56011499188	1304.80004882813
1094.24482317212	1307.80004882813
1094.92944442486	1304.19995117188
1095.61397875783	1310
1096.29842617876	1300
1096.98278669537	1300.59997558594
1097.6670603154	1299.80004882813
1098.35124704656	1300.40002441406
1099.03534689659	1289.40002441406
1099.71935987322	1297.19995117188
1100.40328598416	1298
1101.08712523713	1307.19995117188
1101.77087763988	1302.80004882813
1102.45454320012	1297.40002441406
1103.13812192557	1304.59997558594
1103.82161382396	1293.80004882813
1104.50501890301	1292
1105.18833717045	1280.19995117188
1105.87156863399	1295.40002441406
1106.55471330137	1294.19995117188
1107.2377711803	1301.19995117188
1107.9207422785	1301.40002441406
1108.60362660369	1299.19995117188
1109.2864241636	1301
1109.96913496594	1297.80004882813
1110.65175901844	1298.59997558594
1111.33429632882	1285.19995117188
1112.01674690479	1280.40002441406
1112.69911075408	1293.40002441406
1113.38138788439	1294.40002441406
1114.06357830346	1280
1114.745682019	1282.59997558594
1115.42769903872	1280.80004882813
1116.10962937035	1292
1116.7914730216	1285.40002441406
1117.47323000018	1297.19995117188
1118.15490031382	1287
1118.83648397022	1296.19995117188
1119.51798097712	1302.59997558594
1120.1993913422	1298.19995117188
1120.88071507321	1300.19995117188
1121.56195217784	1295.19995117188
1122.24310266381	1316
1122.92416653884	1317.40002441406
1123.60514381064	1306
1124.28603448692	1316.80004882813
1124.9668385754	1304.59997558594
1125.64755608378	1316.80004882813
1126.32818701978	1309.80004882813
1127.00873139111	1301.40002441406
1127.68918920548	1297.59997558594
1128.3695604706	1306
1129.04984519419	1295.80004882813
1129.73004338394	1284.80004882813
1130.41015504758	1293.19995117188
1131.09018019281	1289
1131.77011882734	1284.40002441406
1132.44997095888	1275.19995117188
1133.12973659514	1283.40002441406
1133.80941574381	1292.40002441406
1134.48900841263	1303
1135.16851460927	1295.59997558594
1135.84793434147	1309.80004882813
1136.52726761692	1300.59997558594
1137.20651444333	1301.80004882813
1137.8856748284	1313.59997558594
1138.56474877984	1300.59997558594
1139.24373630536	1298.59997558594
1139.92263741265	1295.80004882813
1140.60145210943	1288.19995117188
1141.28018040339	1290.59997558594
1141.95882230225	1284.40002441406
1142.6373778137	1286
1143.31584694545	1280.40002441406
1143.99422970519	1294.59997558594
1144.67252610064	1302.80004882813
1145.35073613949	1302.80004882813
1146.02885982944	1306.19995117188
1146.7068971782	1292.19995117188
1147.38484819347	1295.40002441406
1148.06271288294	1280.59997558594
1148.74049125432	1278.40002441406
1149.41818331531	1284.59997558594
1150.0957890736	1290.40002441406
1150.77330853689	1289.80004882813
1151.45074171289	1290
1152.12808860928	1293
1152.80534923378	1287.59997558594
1153.48252359407	1292
1154.15961169786	1288.19995117188
1154.83661355283	1293
1155.51352916669	1285.40002441406
1156.19035854713	1292
1156.86710170185	1284
1157.54375863855	1285.80004882813
1158.22032936491	1288
1158.89681388863	1286.40002441406
1159.57321221741	1284.40002441406
1160.24952435894	1278.19995117188
1160.92575032092	1276.19995117188
1161.60189011103	1269.59997558594
1162.27794373697	1271
1162.95391120644	1273.19995117188
1163.62979252712	1279.19995117188
1164.3055877067	1272
1164.98129675288	1272
1165.65691967336	1281.40002441406
1166.33245647581	1280
1167.00790716792	1278.40002441406
1167.6832717574	1289.40002441406
1168.35855025193	1290.59997558594
1169.0337426592	1298.19995117188
1169.70884898689	1304.40002441406
1170.3838692427	1301
1171.05880343431	1304.40002441406
1171.73365156941	1299.80004882813
1172.40841365569	1304.19995117188
1173.08308970083	1308.80004882813
1173.75767971253	1311.40002441406
1174.43218369847	1307.59997558594
1175.10660166633	1306.80004882813
1175.7809336238	1311.80004882813
1176.45517957857	1308.19995117188
1177.12933953832	1315.59997558594
1177.80341351073	1308.59997558594
1178.47740150349	1310.40002441406
1179.15130352429	1307.19995117188
1179.8251195808	1306.19995117188
1180.49884968071	1308
1181.1724938317	1308.80004882813
1181.84605204145	1307.59997558594
1182.51952431766	1317.59997558594
1183.19291066799	1305
1183.86621110013	1300
1184.53942562176	1308.59997558594
1185.21255424057	1303
1185.88559696422	1297.80004882813
1186.55855380041	1306
1187.2314247568	1315.19995117188
1187.90420984109	1311.80004882813
1188.57690906095	1314.19995117188
1189.24952242405	1301.40002441406
1189.92204993808	1314.19995117188
1190.59449161071	1306.40002441406
1191.26684744962	1315.80004882813
1191.93911746249	1309.19995117188
1192.61130165699	1310.19995117188
1193.28340004081	1319.59997558594
1193.95541262161	1309
1194.62733940707	1317.59997558594
1195.29918040487	1308.19995117188
1195.97093562269	1319.80004882813
1196.64260506819	1309.19995117188
1197.31418874905	1311.80004882813
1197.98568667295	1291.59997558594
1198.65709884755	1297.19995117188
1199.32842528053	1309.80004882813
1199.99966597957	1299.19995117188
1200.67082095234	1297.19995117188
1201.3418902065	1284.80004882813
1202.01287374974	1292
1202.68377158971	1293.40002441406
1203.3545837341	1277.40002441406
1204.02531019057	1283
1204.6959509668	1287.80004882813
1205.36650607045	1292.19995117188
1206.03697550919	1283.59997558594
1206.70735929069	1270.40002441406
1207.37765742263	1269.80004882813
1208.04786991266	1274
1208.71799676846	1269.19995117188
1209.38803799769	1267.40002441406
1210.05799360803	1269.19995117188
1210.72786360714	1261.19995117188
1211.39764800268	1265.40002441406
1212.06734680233	1281.19995117188
1212.73696001375	1272.59997558594
1213.4064876446	1274.80004882813
1214.07592970255	1267.59997558594
1214.74528619526	1266.59997558594
1215.4145571304	1270.19995117188
1216.08374251564	1273
1216.75284235863	1275.19995117188
1217.42185666704	1268
1218.09078544854	1257.40002441406
1218.75962871078	1268.59997558594
1219.42838646143	1285
1220.09705870816	1284.19995117188
1220.76564545861	1274
1221.43414672046	1273.19995117188
1222.10256250136	1277.59997558594
1222.77089280898	1268.19995117188
1223.43913765098	1264.40002441406
1224.107297035	1264.80004882813
1224.77537096873	1278.59997558594
1225.44335945981	1269.19995117188
1226.1112625159	1268.80004882813
1226.77908014467	1262.19995117188
1227.44681235376	1262.80004882813
1228.11445915085	1254
1228.78202054357	1251.80004882813
1229.44949653961	1268.59997558594
1230.11688714659	1261.19995117188
1230.7841923722	1264
1231.45141222407	1258.80004882813
1232.11854670988	1252.40002441406
1232.78559583726	1251.19995117188
1233.45255961388	1246.59997558594
1234.1194380474	1255.59997558594
1234.78623114546	1259.40002441406
1235.45293891572	1270.80004882813
1236.11956136583	1264.80004882813
1236.78609850345	1261.40002441406
1237.45255033623	1253.80004882813
1238.11891687182	1254.19995117188
1238.78519811788	1256.40002441406
1239.45139408205	1257.19995117188
1240.11750477198	1249
1240.78353019534	1258.80004882813
1241.44947035976	1255.80004882813
1242.11532527291	1246.40002441406
1242.78109494242	1247.40002441406
1243.44677937595	1240.19995117188
1244.11237858115	1240
1244.77789256567	1251.80004882813
1245.44332133715	1238.80004882813
1246.10866490325	1255
1246.7739232716	1250.19995117188
1247.43909644987	1246.19995117188
1248.10418444569	1251.59997558594
1248.76918726671	1250.80004882813
1249.43410492059	1253.80004882813
1250.09893741496	1255.59997558594
1250.76368475747	1248.59997558594
1251.42834695576	1262
1252.09292401749	1260.40002441406
1252.75741595029	1238.59997558594
1253.42182276182	1243
1254.08614445971	1238
1254.75038105161	1246.40002441406
1255.41453254515	1241.19995117188
1256.07859894799	1252.40002441406
1256.74258026777	1254.59997558594
1257.40647651213	1251
1258.0702876887	1258.19995117188
1258.73401380514	1264.59997558594
1259.39765486908	1249.80004882813
1260.06121088817	1253
1260.72468187004	1256.59997558594
1261.38806782233	1257
1262.05136875269	1259.19995117188
1262.71458466875	1263.59997558594
1263.37771557815	1258.80004882813
1264.04076148854	1258.40002441406
1264.70372240753	1258.80004882813
1265.3665983428	1260.19995117188
1266.02938930195	1260
1266.69209529263	1251.80004882813
1267.35471632249	1247.59997558594
1268.01725239914	1253
1268.67970353024	1241.59997558594
1269.34206972342	1253
1270.00435098631	1256.40002441406
1270.66654732655	1259.80004882813
1271.32865875177	1253.59997558594
1271.9906852696	1268.19995117188
1272.65262688768	1260.19995117188
1273.31448361365	1250.59997558594
1273.97625545514	1260.80004882813
1274.63794241978	1260.59997558594
1275.2995445152	1260.80004882813
1275.96106174903	1251
1276.62249412892	1262.40002441406
1277.28384166248	1253.80004882813
1277.94510435735	1255
1278.60628222116	1265.19995117188
1279.26737526155	1257.59997558594
1279.92838348613	1261.40002441406
1280.58930690255	1267
1281.25014551842	1257.80004882813
1281.91089934139	1258.80004882813
1282.57156837907	1261.19995117188
1283.2321526391	1259.40002441406
1283.89265212911	1250.80004882813
1284.55306685671	1255.59997558594
1285.21339682955	1260.19995117188
1285.87364205525	1256.19995117188
1286.53380254142	1252.19995117188
1287.19387829571	1243.19995117188
1287.85386932573	1241.59997558594
1288.51377563911	1246.40002441406
1289.17359724348	1264.40002441406
1289.83333414646	1258.80004882813
1290.49298635567	1260
1291.15255387874	1256.19995117188
1291.8120367233	1267.80004882813
1292.47143489696	1269.59997558594
1293.13074840736	1265
1293.7899772621	1259.19995117188
1294.44912146882	1258.19995117188
1295.10818103513	1256.80004882813
1295.76715596866	1262.59997558594
1296.42604627704	1262.59997558594
1297.08485196787	1264.19995117188
1297.74357304878	1262.59997558594
1298.4022095274	1245.80004882813
1299.06076141134	1250.80004882813
1299.71922870821	1260.19995117188
1300.37761142565	1249.59997558594
1301.03590957126	1258.40002441406
1301.69412315268	1266
1302.3522521775	1269.19995117188
1303.01029665336	1268.19995117188
1303.66825658787	1265.19995117188
1304.32613198865	1267.40002441406
1304.98392286332	1267.59997558594
1305.64162921948	1251
1306.29925106476	1254
1306.95678840677	1246.19995117188
1307.61424125312	1251.40002441406
1308.27160961145	1249.59997558594
1308.92889348934	1260.19995117188
1309.58609289443	1272.40002441406
1310.24320783432	1264.80004882813
1310.90023831664	1268.40002441406
1311.55718434898	1263.19995117188
1312.21404593897	1270.59997558594
1312.87082309421	1277.40002441406
1313.52751582233	1269.80004882813
1314.18412413092	1259.40002441406
1314.84064802761	1264
1315.49708752	1263
1316.1534426157	1257.19995117188
1316.80971332233	1254.59997558594
1317.46589964749	1254.80004882813
1318.1220015988	1251.59997558594
1318.77801918386	1257.40002441406
1319.43395241028	1261.80004882813
1320.08980128567	1258.59997558594
1320.74556581764	1266.80004882813
1321.4012460138	1260.59997558594
1322.05684188176	1255.40002441406
1322.71235342911	1249
1323.36778066347	1244.19995117188
1324.02312359245	1232.40002441406
1324.67838222365	1234.59997558594
1325.33355656468	1242.59997558594
1325.98864662314	1241.80004882813
1326.64365240663	1247.80004882813
1327.29857392277	1253.59997558594
1327.95341117915	1249.19995117188
1328.60816418339	1257.59997558594
1329.26283294308	1256.40002441406
1329.91741746582	1241.40002441406
1330.57191775923	1230.80004882813
1331.2263338309	1241.19995117188
1331.88066568843	1236.40002441406
1332.53491333943	1250.19995117188
1333.1890767915	1246.40002441406
1333.84315605224	1261
1334.49715112925	1250
1335.15106203013	1246.19995117188
1335.80488876249	1257
1336.45863133391	1250
1337.112289752	1244.40002441406
1337.76586402437	1244.59997558594
1338.4193541586	1249
1339.0727601623	1246.80004882813
1339.72608204306	1243
1340.37931980849	1234.40002441406
1341.03247346617	1237
1341.68554302372	1246.40002441406
1342.33852848871	1248
1342.99142986876	1246.40002441406
1343.64424717145	1245
1344.29698040438	1243.19995117188
1344.94962957515	1240.59997558594
1345.60219469135	1252.40002441406
1346.25467576058	1261.59997558594
1346.90707279042	1253.19995117188
1347.55938578848	1246.19995117188
1348.21161476235	1249.59997558594
1348.86375971962	1256.59997558594
1349.51582066787	1260
1350.16779761472	1260.40002441406
1350.81969056774	1271.80004882813
1351.47149953453	1256.40002441406
1352.12322452269	1269
1352.77486553979	1274.19995117188
1353.42642259344	1283.19995117188
1354.07789569122	1296.80004882813
1354.72928484072	1307
1355.38059004953	1305.40002441406
1356.03181132525	1307
1356.68294867545	1298.40002441406
1357.33400210773	1317
1357.98497162968	1308
1358.63585724889	1313.59997558594
1359.28665897294	1319.19995117188
1359.93737680942	1315.80004882813
1360.58801076591	1307.19995117188
1361.23856085001	1320
1361.88902706929	1317.19995117188
1362.53940943135	1320.19995117188
1363.18970794377	1310
1363.83992261413	1312.40002441406
1364.49005345003	1314.59997558594
1365.14010045904	1304.40002441406
1365.79006364874	1305
1366.43994302673	1298.19995117188
1367.08973860058	1291.19995117188
1367.73945037788	1298.59997558594
1368.38907836621	1291.80004882813
1369.03862257315	1288.80004882813
1369.68808300629	1280
1370.3374596732	1263.40002441406
1370.98675258148	1252.19995117188
1371.63596173868	1250.59997558594
1372.28508715241	1242.19995117188
1372.93412883024	1235.80004882813
1373.58308677974	1226
1374.2319610085	1233.40002441406
1374.8807515241	1226.19995117188
1375.52945833412	1225
1376.17808144612	1226
1376.82662086771	1239.19995117188
1377.47507660644	1243.59997558594
1378.12344866989	1238.19995117188
1378.77173706565	1240.19995117188
1379.41994180129	1233
1380.06806288439	1230.59997558594
1380.71610032252	1231
1381.36405412326	1233.80004882813
1382.01192429419	1235.59997558594
1382.65971084287	1246.80004882813
1383.30741377688	1231.40002441406
1383.95503310381	1242
1384.60256883121	1224.80004882813
1385.25002096667	1226.19995117188
1385.89738951775	1212.80004882813
1386.54467449204	1219.80004882813
1387.19187589709	1231.19995117188
1387.8389937405	1235.59997558594
1388.48602802982	1227.19995117188
1389.13297877262	1236
1389.77984597649	1238
1390.42662964899	1234.40002441406
1391.07332979768	1233
1391.71994643015	1241.19995117188
1392.36647955395	1239.19995117188
1393.01292917667	1235
1393.65929530586	1239.19995117188
1394.3055779491	1226
1394.95177711395	1223.80004882813
1395.59789280799	1222.80004882813
1396.24392503877	1229.40002441406
1396.88987381387	1231.40002441406
1397.53573914086	1229.19995117188
1398.1815210273	1233.40002441406
1398.82721948075	1224.80004882813
1399.47283450878	1220.80004882813
1400.11836611897	1222.19995117188
1400.76381431886	1224.59997558594
1401.40917911603	1220
1402.05446051805	1224
1402.69965853247	1219
1403.34477316686	1218.59997558594
1403.98980442878	1207.19995117188
1404.6347523258	1207.40002441406
1405.27961686548	1211.19995117188
1405.92439805538	1202
1406.56909590306	1209.80004882813
1407.21371041608	1190.19995117188
1407.85824160202	1198.40002441406
1408.50268946841	1206.59997558594
1409.14705402284	1193.59997558594
1409.79133527285	1197.40002441406
1410.43553322601	1216.40002441406
1411.07964788987	1207.80004882813
1411.723679272	1204.19995117188
1412.36762737996	1202.19995117188
1413.01149222129	1209
1413.65527380357	1202
1414.29897213435	1204.19995117188
1414.94258722118	1208.80004882813
1415.58611907163	1204.80004882813
1416.22956769325	1213.40002441406
1416.87293309359	1215.19995117188
1417.51621528021	1225.40002441406
1418.15941426067	1216.80004882813
1418.80253004253	1215.59997558594
1419.44556263333	1216
1420.08851204063	1219.59997558594
1420.731378272	1223.19995117188
1421.37416133497	1221.19995117188
1422.0168612371	1230.59997558594
1422.65947798596	1239.19995117188
1423.30201158908	1224.19995117188
1423.94446205403	1227.80004882813
1424.58682938835	1216.59997558594
1425.2291135996	1215.40002441406
1425.87131469532	1217.19995117188
1426.51343268308	1213.40002441406
1427.15546757042	1209.40002441406
1427.79741936488	1211
1428.43928807403	1210.59997558594
1429.0810737054	1197.80004882813
1429.72277626656	1205.80004882813
1430.36439576504	1218.59997558594
1431.00593220841	1212
1431.64738560419	1207.80004882813
1432.28875595995	1210.59997558594
1432.93004328324	1215.80004882813
1433.57124758159	1207.59997558594
1434.21236886255	1203.80004882813
1434.85340713368	1209.40002441406
1435.49436240252	1218.19995117188
1436.13523467661	1210.19995117188
1436.77602396349	1216.80004882813
1437.41673027073	1211
1438.05735360585	1215.40002441406
1438.69789397641	1213.40002441406
1439.33835138994	1216.40002441406
1439.978725854	1214.59997558594
1440.61901737612	1207.59997558594
1441.25922596385	1207.40002441406
1441.89935162473	1200.80004882813
1442.53939436631	1196
1443.17935419612	1198.19995117188
1443.81923112171	1202.40002441406
1444.45902515061	1203.80004882813
1445.09873629038	1204
1445.73836454854	1200
1446.37790993265	1203.19995117188
1447.01737245024	1209.59997558594
1447.65675210885	1210.19995117188
1448.29604891602	1209.59997558594
1448.93526287928	1204.59997558594
1449.57439400618	1198.80004882813
1450.21344230426	1200
1450.85240778105	1205.19995117188
1451.49129044409	1208.40002441406
1452.13009030092	1209.80004882813
1452.76880735907	1212.80004882813
1453.40744162608	1205.80004882813
1454.04599310949	1213.59997558594
1454.68446181683	1210.80004882813
1455.32284775564	1210
1455.96115093345	1200.59997558594
1456.5993713578	1199.40002441406
1457.23750903623	1202
1457.87556397626	1200.80004882813
1458.51353618543	1214.59997558594
1459.15142567127	1207.19995117188
1459.78923244132	1200.19995117188
1460.42695650311	1198.19995117188
1461.06459786417	1193
1461.70215653203	1199.40002441406
1462.33963251423	1195.80004882813
1462.97702581829	1195.80004882813
1463.61433645175	1200
1464.25156442214	1201.19995117188
1464.88870973699	1201.19995117188
1465.52577240382	1210.59997558594
1466.16275243017	1206
1466.79964982356	1204.80004882813
1467.43646459154	1191.59997558594
1468.07319674161	1188.59997558594
1468.70984628132	1201.80004882813
1469.34641321818	1198.59997558594
1469.98289755974	1198.40002441406
1470.6192993135	1202.19995117188
1471.25561848701	1204.80004882813
1471.89185508779	1189.59997558594
1472.52800912336	1189.59997558594
1473.16408060124	1194.80004882813
1473.80006952897	1191.19995117188
1474.43597591407	1181.59997558594
1475.07179976406	1182
1475.70754108647	1190.19995117188
1476.34319988883	1179.40002441406
1476.97877617865	1182.19995117188
1477.61426996345	1193
1478.24968125077	1180.19995117188
1478.88501004812	1183.19995117188
1479.52025636303	1187.59997558594
1480.15542020302	1193.59997558594
1480.79050157561	1200.80004882813
1481.42550048832	1195
1482.06041694867	1202
1482.69525096418	1199.40002441406
1483.33000254237	1200.80004882813
1483.96467169077	1187.80004882813
1484.59925841689	1198
1485.23376272825	1185.40002441406
1485.86818463237	1171.80004882813
1486.50252413677	1176.59997558594
1487.13678124896	1189.40002441406
1487.77095597646	1186
1488.4050483268	1193.80004882813
1489.03905830749	1187.19995117188
1489.67298592604	1187.80004882813
1490.30683118996	1193.40002441406
1490.9405941068	1191.80004882813
1491.57427468403	1192
1492.2078729292	1180.40002441406
1492.84138884981	1187
1493.47482245338	1181.80004882813
1494.10817374742	1192.40002441406
1494.74144273944	1184.40002441406
1495.37462943696	1194
1496.0077338475	1193.59997558594
1496.64075597856	1190.40002441406
1497.27369583765	1200.80004882813
1497.9065534323	1216
1498.53932877001	1203.59997558594
1499.17202185829	1214.80004882813
1499.80463270465	1213.59997558594
1500.43716131661	1213.40002441406
1501.06960770167	1222
1501.70197186735	1228
1502.33425382116	1236.59997558594
1502.96645357059	1229.59997558594
1503.59857112317	1230.19995117188
1504.23060648641	1224.59997558594
1504.8625596678	1228.59997558594
1505.49443067486	1225
1506.1262195151	1224
1506.75792619602	1222.40002441406
1507.38955072513	1219.80004882813
1508.02109310993	1223
1508.65255335794	1222
1509.28393147666	1216.19995117188
1509.91522747359	1214.40002441406
1510.54644135624	1208.19995117188
1511.17757313212	1211.40002441406
1511.80862280872	1214
1512.43959039356	1211.19995117188
1513.07047589413	1197.19995117188
1513.70127931795	1203.19995117188
1514.33200067251	1200.59997558594
1514.96263996531	1183.40002441406
1515.59319720386	1190.19995117188
1516.22367239567	1190.80004882813
1516.85406554822	1199.40002441406
1517.48437666903	1194.80004882813
1518.1146057656	1194.19995117188
1518.74475284542	1189.80004882813
1519.374817916	1189.19995117188
1520.00480098483	1186.80004882813
1520.63470205942	1185.19995117188
1521.26452114726	1174.40002441406
1521.89425825586	1179.40002441406
1522.52391339271	1183.40002441406
1523.15348656531	1184.80004882813
1523.78297778116	1180.80004882813
1524.41238704775	1186.40002441406
1525.04171437259	1196.40002441406
1525.67095976317	1180
1526.30012322699	1185.59997558594
1526.92920477154	1181
1527.55820440432	1195.80004882813
1528.18712213283	1185
1528.81595796455	1193.80004882813
1529.44471190699	1187.80004882813
1530.07338396764	1199.19995117188
1530.70197415399	1178.59997558594
1531.33048247353	1174.80004882813
1531.95890893377	1172.59997558594
1532.58725354219	1181.19995117188
1533.21551630629	1177.59997558594
1533.84369723356	1185
1534.47179633148	1184.19995117188
1535.09981360757	1186.40002441406
1535.72774906929	1183
1536.35560272415	1190.59997558594
1536.98337457963	1195.19995117188
1537.61106464323	1196.40002441406
1538.23867292243	1190.80004882813
1538.86619942473	1188.59997558594
1539.49364415762	1189.80004882813
1540.12100712857	1180.59997558594
1540.74828834509	1186.59997558594
1541.37548781466	1183.59997558594
1542.00260554478	1180.19995117188
1542.62964154291	1169.80004882813
1543.25659581655	1176.40002441406
1543.8834683732	1172.40002441406
1544.51025922034	1172.59997558594
1545.13696836544	1168
1545.76359581601	1163.40002441406
1546.39014157952	1166
1547.01660566345	1160
1547.64298807531	1164.19995117188
1548.26928882255	1160.19995117188
1548.89550791269	1169.59997558594
1549.52164535318	1155.19995117188
1550.14770115153	1150.40002441406
1550.77367531521	1158.80004882813
1551.39956785171	1164.59997558594
1552.0253787685	1162.40002441406
1552.65110807307	1170
1553.2767557729	1164
1553.90232187548	1156.59997558594
1554.52780638828	1154.40002441406
1555.15320931879	1162.59997558594
1555.77853067447	1155
1556.40377046282	1160.19995117188
1557.02892869132	1159.80004882813
1557.65400536744	1161.19995117188
1558.27900049866	1158.59997558594
1558.90391409247	1147.40002441406
1559.52874615633	1154.59997558594
1560.15349669773	1154.19995117188
1560.77816572414	1151.40002441406
1561.40275324305	1154.19995117188
1562.02725926192	1156.59997558594
1562.65168378824	1156.19995117188
1563.27602682948	1156.80004882813
1563.90028839311	1164
1564.52446848662	1152.40002441406
1565.14856711748	1157.40002441406
1565.77258429316	1161
1566.39652002113	1164
1567.02037430887	1162
1567.64414716387	1168.80004882813
1568.26783859357	1171.40002441406
1568.89144860547	1158.80004882813
1569.51497720703	1162.59997558594
1570.13842440573	1171.40002441406
1570.76179020904	1161.40002441406
1571.38507462442	1167.80004882813
1572.00827765936	1172.80004882813
1572.63139932132	1181.80004882813
1573.25443961777	1172
1573.87739855618	1181
1574.50027614402	1171.59997558594
1575.12307238877	1186.40002441406
1575.74578729789	1177.19995117188
1576.36842087885	1168.59997558594
1576.99097313912	1175.40002441406
1577.61344408616	1173
1578.23583372745	1162.59997558594
1578.85814207046	1158
1579.48036912264	1153.59997558594
1580.10251489147	1155.80004882813
1580.72457938441	1159
1581.34656260893	1148.80004882813
1581.9684645725	1165.59997558594
1582.59028528258	1165.40002441406
1583.21202474663	1161.19995117188
1583.83368297212	1154.59997558594
1584.45525996652	1157
1585.07675573728	1152.40002441406
1585.69817029188	1153.59997558594
1586.31950363778	1153.59997558594
1586.94075578243	1148.80004882813
1587.5619267333	1147.80004882813
1588.18301649786	1139
1588.80402508357	1139
1589.42495249788	1136
1590.04579874826	1141.59997558594
1590.66656384217	1137
1591.28724778707	1134.40002441406
1591.90785059042	1141.59997558594
1592.52837225968	1143.80004882813
1593.14881280232	1138.19995117188
1593.76917222578	1130.19995117188
1594.38945053753	1138
1595.00964774502	1137.40002441406
1595.62976385573	1142
1596.24979887709	1146
1596.86975281657	1147.59997558594
1597.48962568164	1142.19995117188
1598.10941747974	1146
1598.72912821832	1143.40002441406
1599.34875790486	1152.80004882813
1599.9683065468	1156.40002441406
1600.58777415159	1160.19995117188
1601.2071607267	1145
1601.82646627958	1141.80004882813
1602.44569081769	1141.19995117188
1603.06483434846	1138
1603.68389687937	1141
1604.30287841786	1137
1604.92177897139	1140.80004882813
1605.54059854741	1129.80004882813
1606.15933715337	1125.19995117188
1606.77799479672	1134.19995117188
1607.39657148492	1140.40002441406
1608.01506722542	1139.80004882813
1608.63348202566	1142.19995117188
1609.2518158931	1135.59997558594
1609.87006883519	1135.80004882813
1610.48824085939	1130.19995117188
1611.10633197312	1121.80004882813
1611.72434218386	1126.59997558594
1612.34227149904	1124.19995117188
1612.96011992612	1127
1613.57788747254	1119.40002441406
1614.19557414575	1127.19995117188
1614.8131799532	1139.19995117188
1615.43070490234	1129.40002441406
1616.04814900061	1135.19995117188
1616.66551225545	1133
1617.28279467433	1137.80004882813
1617.89999626467	1150.19995117188
1618.51711703393	1142.40002441406
1619.13415698955	1142.80004882813
1619.75111613898	1137.59997558594
1620.36799448966	1136.40002441406
1620.98479204903	1138.80004882813
1621.60150882455	1132.80004882813
1622.21814482364	1141.40002441406
1622.83470005376	1138.59997558594
1623.45117452235	1141.40002441406
1624.06756823685	1133.80004882813
1624.6838812047	1139.19995117188
1625.30011343335	1151.19995117188
1625.91626493022	1151.59997558594
1626.53233570278	1147
1627.14832575845	1150.80004882813
1627.76423510468	1144.59997558594
1628.38006374891	1143.40002441406
1628.99581169857	1140
1629.61147896111	1138.59997558594
1630.22706554397	1129
1630.84257145457	1132.40002441406
1631.45799670038	1125
1632.07334128881	1121.40002441406
1632.6886052273	1114.19995117188
1633.3037885233	1124.19995117188
1633.91889118425	1124.59997558594
1634.53391321757	1124.80004882813
1635.1488546307	1128.80004882813
1635.76371543108	1123.59997558594
1636.37849562616	1121
1636.99319522335	1120.59997558594
1637.60781423009	1128.19995117188
1638.22235265383	1126
1638.83681050198	1125.80004882813
1639.451187782	1126
1640.0654845013	1126.40002441406
1640.67970066734	1133.19995117188
1641.29383628752	1123.59997558594
1641.9078913693	1128.40002441406
1642.5218659201	1132.80004882813
1643.13575994735	1130
1643.74957345849	1122
1644.36330646094	1122.59997558594
1644.97695896213	1127.40002441406
1645.59053096951	1121.80004882813
1646.20402249049	1128
1646.8174335325	1130.59997558594
1647.43076410298	1126.59997558594
1648.04401420935	1141.80004882813
1648.65718385905	1142.80004882813
1649.2702730595	1147.19995117188
1649.88328181812	1141.40002441406
1650.49621014236	1143.40002441406
1651.10905803963	1142.80004882813
1651.72182551735	1138
1652.33451258297	1142
1652.9471192439	1140.80004882813
1653.55964550757	1132.40002441406
1654.1720913814	1124.19995117188
1654.78445687283	1124.19995117188
1655.39674198926	1126.19995117188
1656.00894673814	1130
1656.62107112688	1120.59997558594
1657.23311516291	1114.80004882813
1657.84507885365	1121.80004882813
1658.45696220652	1119
1659.06876522895	1106.40002441406
1659.68048792835	1106.80004882813
1660.29213031217	1098
1660.90369238779	1093.19995117188
1661.51517416267	1085.80004882813
1662.12657564421	1091.40002441406
1662.73789683984	1090.19995117188
1663.34913775697	1083.40002441406
1663.96029840303	1085.59997558594
1664.57137878544	1081.40002441406
1665.18237891161	1086.80004882813
1665.79329878897	1077.19995117188
1666.40413842493	1077.59997558594
1667.01489782691	1070.19995117188
1667.62557700233	1078.19995117188
1668.2361759586	1079.80004882813
1668.84669470315	1070.80004882813
1669.4571332434	1072
1670.06749158675	1072.80004882813
1670.67776974062	1074.59997558594
1671.28796771243	1075.40002441406
1671.8980855096	1077.59997558594
1672.50812313954	1068.40002441406
1673.11808060967	1060.80004882813
1673.72795792739	1062
1674.33775510013	1064.59997558594
1674.9474721353	1065
1675.55710904031	1063.59997558594
1676.16666582257	1058.80004882813
1676.7761424895	1050.59997558594
1677.38553904851	1052.80004882813
1677.99485550702	1045.59997558594
1678.60409187243	1048
1679.21324815215	1035.19995117188
1679.8223243536	1044.19995117188
1680.43132048419	1049.59997558594
1681.04023655132	1058.19995117188
1681.64907256241	1060.19995117188
1682.25782852487	1061.59997558594
1682.86650444611	1070
1683.47510033353	1056
1684.08361619455	1056.59997558594
1684.69205203657	1054.19995117188
1685.300407867	1047
1685.90868369325	1044.80004882813
1686.51687952272	1053.80004882813
1687.12499536283	1054.19995117188
1687.73303122098	1061.40002441406
1688.34098710457	1063.19995117188
1688.94886302101	1062
1689.55665897772	1061.19995117188
1690.16437498208	1053.19995117188
1690.77201104152	1056.19995117188
1691.37956716342	1044.19995117188
1691.9870433552	1038.40002441406
1692.59443962426	1037
1693.20175597801	1032.80004882813
1693.80899242384	1040.40002441406
1694.41614896916	1038
1695.02322562138	1036.40002441406
1695.63022238789	1050.59997558594
1696.23713927609	1050.59997558594
1696.8439762934	1054.19995117188
1697.4507334472	1060
1698.05741074491	1063.19995117188
1698.66400819391	1058.40002441406
1699.27052580161	1042.80004882813
1699.87696357542	1045.59997558594
1700.48332152272	1044.40002441406
1701.08959965092	1041.40002441406
1701.69579796742	1034.80004882813
1702.30191647962	1036.80004882813
1702.90795519491	1029.80004882813
1703.51391412069	1028.80004882813
1704.11979326437	1024.19995117188
1704.72559263332	1025.80004882813
1705.33131223496	1024.59997558594
1705.93695207668	1028.59997558594
1706.54251216588	1020.59997558594
1707.14799250994	1025.40002441406
1707.75339311628	1028
1708.35871399227	1029.19995117188
1708.96395514532	1032.40002441406
1709.56911658282	1025.40002441406
