634.948122577771	1088
635.690341530823	1087.80004882813
636.43246851086	1092
637.174503525845	1082.80004882813
637.916446583745	1090.40002441406
638.658297692538	1088.19995117188
639.400056860179	1081.40002441406
640.141724094637	1085.59997558594
640.883299403885	1077.40002441406
641.62478279588	1090.19995117188
642.366174278594	1084.19995117188
643.107473859989	1083.59997558594
643.848681548029	1078
644.589797350679	1083.40002441406
645.330821275901	1089.59997558594
646.071753331665	1092.59997558594
646.812593525922	1092.80004882813
647.553341866646	1084.80004882813
648.293998361798	1086.40002441406
649.03456301933	1085
649.775035847216	1086.40002441406
650.515416853409	1089.59997558594
651.255706045874	1089.19995117188
651.995903432568	1087
652.736009021453	1088.19995117188
653.476022820486	1085.40002441406
654.215944837629	1079.19995117188
654.955775080842	1080.59997558594
655.695513558081	1075.59997558594
656.435160277301	1077.59997558594
657.174715246465	1078.80004882813
657.914178473527	1082
658.653549966449	1086.40002441406
659.392829733176	1095.80004882813
660.132017781678	1100.19995117188
660.871114119901	1096.80004882813
661.610118755803	1096.59997558594
662.349031697343	1087
663.087852952468	1095.19995117188
663.826582529139	1090.59997558594
664.565220435305	1096.80004882813
665.30376667892	1096.40002441406
666.04222126794	1092.80004882813
666.780584210316	1095.80004882813
667.518855514	1096.40002441406
668.25703518694	1092.80004882813
668.995123237096	1092.59997558594
669.733119672413	1096.40002441406
670.471024500842	1094
671.208837730333	1092
671.946559368839	1094.19995117188
672.684189424308	1094.19995117188
673.421727904689	1096.40002441406
674.159174817929	1098.19995117188
674.896530171977	1090.19995117188
675.633793974786	1094.40002441406
676.370966234295	1092
677.108046958461	1097.59997558594
677.845036155219	1097.40002441406
678.581933832528	1090
679.318739998323	1097.59997558594
680.055454660558	1090
680.792077827172	1096
681.528609506116	1097.19995117188
682.265049705331	1093.19995117188
683.001398432759	1085.80004882813
683.737655696349	1087.40002441406
684.47382150404	1083.19995117188
685.20989586378	1082.80004882813
685.945878783503	1079.40002441406
686.68177027116	1093
687.417570334688	1084
688.153278982032	1091
688.888896221129	1089.59997558594
689.624422059921	1095
690.359856506349	1092.80004882813
691.095199568354	1085.40002441406
691.830451253874	1090.80004882813
692.565611570844	1090.80004882813
693.300680527212	1088.59997558594
694.03565813091	1095.59997558594
694.770544389877	1091.59997558594
695.505339312053	1099.40002441406
696.240042905372	1091.59997558594
696.974655177772	1095
697.70917613719	1096.59997558594
698.443605791561	1097.19995117188
699.177944148826	1092.19995117188
699.912191216909	1098.80004882813
700.646347003755	1089.19995117188
701.380411517295	1097.19995117188
702.114384765465	1092.80004882813
702.848266756195	1090.40002441406
703.582057497421	1096.40002441406
704.315756997074	1099.59997558594
705.049365263089	1094.40002441406
705.782882303399	1098
706.516308125936	1097.40002441406
707.249642738626	1102.19995117188
707.982886149403	1095.19995117188
708.716038366204	1087.19995117188
709.449099396949	1093.19995117188
710.182069249577	1087.59997558594
710.914947932009	1092.80004882813
711.647735452181	1094.40002441406
712.380431818022	1092.19995117188
713.113037037454	1100
713.845551118411	1092
714.577974068818	1089.19995117188
715.310305896604	1096.59997558594
716.042546609694	1089.19995117188
716.774696216013	1094.80004882813
717.506754723493	1103.19995117188
718.238722140053	1102.40002441406
718.970598473624	1096
719.702383732127	1099.59997558594
720.43407792349	1100.59997558594
721.165681055634	1102.40002441406
721.897193136486	1095.19995117188
722.628614173966	1104
723.359944175997	1105.80004882813
724.091183150505	1099.59997558594
724.822331105412	1099.19995117188
725.553388048638	1100.19995117188
726.284353988106	1096.40002441406
727.015228931734	1090.19995117188
727.746012887449	1092.80004882813
728.476705863162	1092.59997558594
729.207307866803	1092.59997558594
729.937818906289	1091.59997558594
730.668238989535	1097.59997558594
731.398568124459	1105.40002441406
732.128806318986	1116.19995117188
732.858953581034	1109.19995117188
733.589009918514	1098.59997558594
734.318975339348	1096.40002441406
735.048849851452	1096
735.778633462744	1095.80004882813
736.508326181137	1094.59997558594
737.237928014549	1091.59997558594
737.967438970897	1097.19995117188
738.696859058095	1101.19995117188
739.426188284054	1099
740.155426656692	1104.59997558594
740.884574183922	1100.19995117188
741.613630873659	1106.59997558594
742.342596733815	1104
743.071471772302	1101.40002441406
743.800255997034	1098.80004882813
744.528949415921	1102
745.257552036877	1105.40002441406
745.986063867811	1108.19995117188
746.714484916638	1097.80004882813
747.442815191261	1100.59997558594
748.171054699597	1105
748.899203449554	1099.19995117188
749.627261449039	1101.19995117188
750.355228705966	1103.80004882813
751.083105228239	1101.19995117188
751.810891023765	1100.19995117188
752.538586100459	1098.40002441406
753.266190466218	1091.40002441406
753.99370412896	1088.40002441406
754.721127096582	1089.40002441406
755.448459377	1098.40002441406
756.175700978114	1105.19995117188
756.902851907828	1099.59997558594
757.629912174055	1098.19995117188
758.356881784688	1098.19995117188
759.083760747639	1114.80004882813
759.810549070817	1099.80004882813
760.537246762113	1100.80004882813
761.263853829442	1104.40002441406
761.990370280698	1108.59997558594
762.716796123791	1109.40002441406
763.443131366618	1111.19995117188
764.169376017082	1115
764.895530083085	1124.59997558594
765.621593572527	1120.80004882813
766.347566493312	1130.59997558594
767.073448853336	1131.80004882813
767.799240660502	1131.59997558594
768.524941922707	1133.80004882813
769.250552647854	1124.80004882813
769.976072843836	1138
770.701502518551	1136.40002441406
771.426841679905	1135
772.152090335793	1151.59997558594
772.877248494107	1141.19995117188
773.602316162747	1144.80004882813
774.327293349609	1154.40002441406
775.052180062592	1148.19995117188
775.776976309589	1146
776.501682098496	1140.40002441406
777.226297437206	1133.40002441406
777.950822333616	1122
778.675256795621	1121.19995117188
779.399600831111	1116.19995117188
780.123854447983	1119.19995117188
780.84801765413	1125
781.572090457441	1116.80004882813
782.296072865811	1111.59997558594
783.019964887131	1109.80004882813
783.743766529297	1103.40002441406
784.467477800194	1103.19995117188
785.191098707719	1101.59997558594
785.914629259756	1107.40002441406
786.638069464194	1104.59997558594
787.361419328932	1108.19995117188
788.084678861852	1111.19995117188
788.807848070845	1102.19995117188
789.530926963798	1101.40002441406
790.253915548602	1103
790.976813833144	1095.19995117188
791.699621825307	1097
792.422339532986	1102.80004882813
793.144966964061	1092
793.86750412642	1095.40002441406
794.589951027946	1099.59997558594
795.312307676536	1105.59997558594
796.03457408006	1104.80004882813
796.756750246417	1102
797.478836183477	1104.40002441406
798.200831899137	1099.19995117188
798.92273740127	1101
799.644552697769	1098.19995117188
800.36627779651	1100.59997558594
801.087912705374	1099.80004882813
801.809457432251	1097.40002441406
802.530911985017	1102.19995117188
803.252276371558	1101.59997558594
803.973550599748	1103.19995117188
804.694734677472	1098.19995117188
805.415828612611	1103
806.136832413045	1096.80004882813
806.857746086646	1096.59997558594
807.578569641305	1103
808.299303084892	1102.40002441406
809.019946425289	1105.40002441406
809.740499670372	1099.59997558594
810.460962828022	1100.59997558594
811.181335906114	1097.80004882813
811.901618912524	1100.59997558594
812.621811855131	1097.80004882813
813.341914741809	1104.19995117188
814.061927580433	1112.19995117188
814.781850378881	1111.40002441406
815.501683145025	1108.80004882813
816.221425886743	1102.59997558594
816.941078611903	1109.40002441406
817.660641328387	1106.19995117188
818.380114044065	1098.40002441406
819.099496766808	1102.59997558594
819.818789504492	1097.40002441406
820.53799226499	1099
821.257105056168	1105
821.976127885904	1096.59997558594
822.695060762064	1106.59997558594
823.413903692525	1101.19995117188
824.132656685151	1111
824.851319747817	1104.40002441406
825.569892888388	1100.19995117188
826.288376114739	1105.80004882813
827.006769434737	1100.40002441406
827.725072856249	1103.80004882813
828.443286387142	1109.19995117188
829.161410035285	1098.40002441406
829.87944380855	1107
830.597387714798	1098.40002441406
831.315241761898	1093.40002441406
832.033005957715	1096.59997558594
832.750680310119	1095.59997558594
833.468264826969	1092.80004882813
834.18575951614	1089.59997558594
834.903164385486	1088.19995117188
835.620479442878	1093.19995117188
836.337704696181	1092.40002441406
837.054840153255	1104.40002441406
837.771885821962	1095.40002441406
838.488841710172	1095.59997558594
839.20570782574	1092.80004882813
839.922484176531	1098.40002441406
840.639170770409	1091.59997558594
841.355767615231	1098.59997558594
842.072274718864	1089.40002441406
842.788692089164	1093.40002441406
843.505019733993	1097.59997558594
844.221257661209	1088.40002441406
844.937405878676	1089
845.65346439425	1089.19995117188
846.369433215789	1082.40002441406
847.085312351156	1082.19995117188
847.801101808205	1092.80004882813
848.516801594793	1090.19995117188
849.232411718781	1096.40002441406
849.947932188021	1101.19995117188
850.663363010376	1096.19995117188
851.378704193698	1090
852.093955745842	1097
852.809117674669	1099
853.524189988028	1093.19995117188
854.239172693778	1090.59997558594
854.954065799768	1086.19995117188
855.668869313857	1085.19995117188
856.383583243899	1087
857.098207597743	1077.40002441406
857.812742383246	1076.59997558594
858.527187608255	1077.19995117188
859.241543280628	1079.19995117188
859.955809408218	1077.59997558594
860.669985998868	1085.59997558594
861.384073060437	1091
862.098070600772	1093.40002441406
862.811978627724	1096.80004882813
863.52579714914	1102.80004882813
864.239526172873	1095.59997558594
864.953165706776	1089.80004882813
865.666715758687	1082.80004882813
866.380176336464	1084.40002441406
867.093547447951	1092
867.806829100996	1089
868.520021303444	1086.59997558594
869.233124063149	1087.59997558594
869.94613738795	1096
870.659061285693	1085.59997558594
871.37189576423	1089.19995117188
872.084640831403	1088
872.797296495057	1086.19995117188
873.509862763039	1093.40002441406
874.22233964319	1097.80004882813
874.934727143353	1089.80004882813
875.647025271374	1089.59997558594
876.359234035097	1082
877.071353442361	1078.80004882813
877.783383501015	1084.40002441406
878.495324218895	1086
879.207175603844	1083.40002441406
879.918937663705	1082.80004882813
880.630610406318	1088.19995117188
881.342193839524	1090
882.053687971161	1091
882.765092809069	1080.59997558594
883.476408361091	1091.80004882813
884.187634635066	1101
884.898771638828	1101.80004882813
885.609819380221	1108.19995117188
886.320777867076	1102
887.031647107236	1097.80004882813
887.742427108536	1094.19995117188
888.453117878816	1098.80004882813
889.16371942591	1095.80004882813
889.874231757652	1102.40002441406
890.584654881883	1095.19995117188
891.294988806434	1099.80004882813
892.005233539141	1093.59997558594
892.715389087837	1101.59997558594
893.42545546036	1104
894.135432664543	1112.59997558594
894.845320708216	1106.80004882813
895.555119599216	1101.19995117188
896.264829345375	1101.40002441406
896.974449954526	1096.80004882813
897.683981434496	1100.19995117188
898.393423793125	1094.19995117188
899.102777038235	1093
899.812041177664	1092.40002441406
900.521216219239	1099.40002441406
901.230302170793	1101.59997558594
901.939299040155	1102.80004882813
902.64820683515	1100.80004882813
903.357025563612	1101
904.065755233368	1097.80004882813
904.774395852247	1098.19995117188
905.482947428076	1105.40002441406
906.191409968682	1103
906.899783481897	1099.59997558594
907.608067975538	1096
908.316263457443	1092.40002441406
909.02436993543	1099.40002441406
909.732387417327	1097.59997558594
910.440315910959	1096.59997558594
911.148155424154	1096.40002441406
911.855905964731	1102.40002441406
912.563567540521	1107.19995117188
913.271140159339	1106.40002441406
913.978623829017	1110.40002441406
914.686018557374	1105
915.393324352237	1109
916.100541221421	1107.59997558594
916.807669172752	1104.40002441406
917.514708214054	1105.59997558594
918.221658353142	1100.40002441406
918.928519597843	1101.19995117188
919.635291955976	1098.80004882813
920.341975435358	1090.59997558594
921.048570043813	1100.19995117188
921.75507578916	1115.80004882813
922.461492679212	1104.19995117188
923.167820721795	1103.19995117188
923.874059924726	1098.40002441406
924.58021029582	1103.19995117188
925.286271842893	1100.80004882813
925.992244573769	1098
926.698128496262	1099
927.403923618184	1093.80004882813
928.109629947355	1090
928.815247491593	1100.40002441406
929.520776258708	1097.19995117188
930.226216256519	1100
930.931567492841	1101.59997558594
931.636829975482	1091.40002441406
932.342003712263	1092.19995117188
933.047088710995	1084.40002441406
933.752084979491	1086.19995117188
934.456992525564	1077.80004882813
935.161811357024	1080
935.866541481688	1075.40002441406
936.571182907363	1080.19995117188
937.275735641861	1081.80004882813
937.980199692995	1087.80004882813
938.684575068572	1089.19995117188
939.388861776411	1088
940.093059824311	1087.19995117188
940.797169220085	1086.19995117188
941.501189971544	1088.80004882813
942.205122086495	1088.40002441406
942.908965572751	1086.19995117188
943.612720438111	1078
944.316386690391	1086
945.019964337391	1090.19995117188
945.723453386924	1089.80004882813
946.426853846795	1088.59997558594
947.130165724808	1080.19995117188
947.83338902877	1094.40002441406
948.536523766488	1089
949.239569945764	1092.40002441406
949.942527574402	1087
950.64539666021	1085.19995117188
951.348177210993	1083
952.050869234548	1082.40002441406
952.753472738683	1081
953.455987731199	1082
954.158414219898	1076
954.860752212587	1079.40002441406
955.563001717061	1082.19995117188
956.265162741124	1079
956.967235292576	1072
957.669219379224	1072.19995117188
958.371115008857	1083
959.072922189283	1084.19995117188
959.774640928301	1086.40002441406
960.476271233708	1085
961.177813113301	1088.59997558594
961.879266574882	1078.59997558594
962.580631626248	1080
963.281908275194	1078
963.98309652952	1082
964.684196397022	1091
965.3852078855	1083.59997558594
966.086131002745	1086
966.786965756555	1080.59997558594
967.487712154726	1087
968.188370205055	1086.59997558594
968.888939915331	1090.19995117188
969.589421293352	1081.19995117188
970.289814346909	1081.40002441406
970.990119083801	1084.40002441406
971.690335511819	1080
972.39046363875	1081.40002441406
973.090503472398	1082.59997558594
973.790455020545	1071.59997558594
974.490318290987	1079.59997558594
975.190093291516	1080.40002441406
975.889780029923	1082.19995117188
976.589378513998	1083.19995117188
977.288888751527	1083.19995117188
977.988310750308	1078
978.687644518122	1073
979.386890062767	1076
980.086047392025	1076
980.785116513689	1073
981.484097435542	1072.40002441406
982.182990165377	1078
982.88179471098	1072
983.580511080137	1075.59997558594
984.279139280632	1077
984.977679320253	1076.19995117188
985.67613120679	1071
986.374494948027	1073
987.072770551745	1071.40002441406
987.770958025731	1070.40002441406
988.469057377772	1074
989.167068615649	1072.40002441406
989.864991747145	1081.40002441406
990.562826780047	1077.40002441406
991.260573722134	1077.59997558594
991.958232581195	1078.59997558594
992.655803365003	1076.80004882813
993.353286081346	1079.59997558594
994.050680738006	1081.19995117188
994.74798734276	1075.19995117188
995.44520590339	1071.59997558594
996.142336427681	1079.19995117188
996.839378923407	1080.59997558594
997.536333398348	1084
998.233199860289	1081
998.929978317004	1092.19995117188
999.626668776274	1085.40002441406
1000.32327124587	1083.19995117188
1001.01978573359	1077.80004882813
1001.71621224718	1077
1002.41255079445	1076.59997558594
1003.10880138315	1076.19995117188
1003.80496402107	1077
1004.50103871599	1084.80004882813
1005.19702547567	1078
1005.8929243079	1071.80004882813
1006.58873522045	1078.59997558594
1007.2844582211	1075.59997558594
1007.98009331761	1081.59997558594
1008.67564051776	1080
1009.37109982933	1083
1010.06647126009	1085.40002441406
1010.7617548178	1085
1011.45695051026	1088.80004882813
1012.15205834522	1091.59997558594
1012.84707833045	1092.80004882813
1013.54201047373	1093.80004882813
1014.23685478284	1092.40002441406
1014.93161126553	1082.40002441406
1015.62627992959	1085.19995117188
1016.32086078277	1079.19995117188
1017.01535383285	1080.19995117188
1017.70975908761	1082.19995117188
1018.40407655479	1085.59997558594
1019.09830624219	1083
1019.79244815755	1080
1020.48650230866	1084.80004882813
1021.18046870328	1091.19995117188
1021.87434734917	1081.40002441406
1022.56813825411	1086.80004882813
1023.26184142584	1087.80004882813
1023.95545687216	1088.19995117188
1024.64898460082	1088.40002441406
1025.34242461957	1085.19995117188
1026.0357769362	1076.40002441406
1026.72904155846	1075.59997558594
1027.42221849412	1083.80004882813
1028.11530775094	1074.19995117188
1028.80830933668	1074.59997558594
1029.50122325911	1077.19995117188
1030.19404952599	1069
1030.88678814508	1074
1031.57943912414	1071.19995117188
1032.27200247093	1074.59997558594
1032.96447819323	1083.80004882813
1033.65686629878	1076.19995117188
1034.34916679534	1080.80004882813
1035.04137969068	1077.19995117188
1035.73350499256	1073
1036.42554270874	1078
1037.11749284697	1077
1037.80935541501	1078.80004882813
1038.50113042062	1074
1039.19281787156	1081.40002441406
1039.88441777559	1079.59997558594
1040.57593014046	1078.19995117188
1041.26735497393	1078.40002441406
1041.95869228376	1102.80004882813
1042.6499420777	1141.40002441406
1043.3411043635	1072.19995117188
1044.03217914893	1080.80004882813
1044.72316644174	1077.80004882813
1045.41406624968	1070.80004882813
1046.1048785805	1079.19995117188
1046.79560344197	1071.59997558594
1047.48624084182	1070.19995117188
1048.17679078783	1076
1048.86725328774	1071.19995117188
1049.55762834929	1080.80004882813
1050.24791598025	1080.59997558594
1050.93811618837	1077.19995117188
1051.62822898139	1073.80004882813
1052.31825436707	1074.19995117188
1053.00819235315	1075.19995117188
1053.6980429474	1076.80004882813
1054.38780615755	1080
1055.07748199136	1087.19995117188
1055.76707045658	1081.19995117188
1056.45657156095	1080.80004882813
1057.14598531222	1075
1057.83531171814	1077.59997558594
1058.52455078646	1075
1059.21370252494	1077.59997558594
1059.90276694129	1077
1060.5917440433	1080.80004882813
1061.28063383868	1070
1061.9694363352	1071.19995117188
1062.65815154059	1069.19995117188
1063.34677946261	1073.19995117188
1064.03532010899	1074.59997558594
1064.72377348748	1069
1065.41213960583	1079.80004882813
1066.10041847177	1071.59997558594
1066.78861009306	1069.59997558594
1067.47671447743	1072.40002441406
1068.16473163263	1069
1068.85266156639	1061.19995117188
1069.54050428647	1066
1070.2282598006	1070.80004882813
1070.91592811652	1070.19995117188
1071.60350924198	1075.59997558594
1072.29100318471	1059.80004882813
1072.97840995245	1071.19995117188
1073.66572955295	1071
1074.35296199394	1069.80004882813
1075.04010728316	1071
1075.72716542836	1066
1076.41413643726	1068.19995117188
1077.10102031761	1069
1077.78781707715	1068.19995117188
1078.4745267236	1077.19995117188
1079.16114926471	1076
1079.84768470822	1079
1080.53413306185	1077.59997558594
1081.22049433336	1077.80004882813
1081.90676853046	1081.80004882813
1082.5929556609	1074
1083.27905573241	1074.80004882813
1083.96506875272	1060.59997558594
1084.65099472957	1064
1085.3368336707	1068.80004882813
1086.02258558383	1070.59997558594
1086.70825047669	1069.19995117188
1087.39382835703	1071
1088.07931923257	1059.40002441406
1088.76472311104	1067.59997558594
1089.45004000018	1064.40002441406
1090.13526990771	1063
1090.82041284137	1063.59997558594
1091.50546880889	1071.19995117188
1092.19043781799	1064.80004882813
1092.87531987642	1067
1093.56011499188	1067.19995117188
1094.24482317212	1071.80004882813
1094.92944442486	1069
1095.61397875783	1066.59997558594
1096.29842617876	1072.40002441406
1096.98278669537	1082.40002441406
1097.6670603154	1074.19995117188
1098.35124704656	1074.19995117188
1099.03534689659	1071.19995117188
1099.71935987322	1072
1100.40328598416	1069.59997558594
1101.08712523713	1064
1101.77087763988	1063.40002441406
1102.45454320012	1059.19995117188
1103.13812192557	1059.40002441406
1103.82161382396	1059.59997558594
1104.50501890301	1061.40002441406
1105.18833717045	1064
1105.87156863399	1068.80004882813
1106.55471330137	1071
1107.2377711803	1064.80004882813
1107.9207422785	1065.59997558594
1108.60362660369	1073.19995117188
1109.2864241636	1064.80004882813
1109.96913496594	1067.19995117188
1110.65175901844	1068.19995117188
1111.33429632882	1070
1112.01674690479	1061.19995117188
1112.69911075408	1059.80004882813
1113.38138788439	1065.19995117188
1114.06357830346	1072
1114.745682019	1064.59997558594
1115.42769903872	1066
1116.10962937035	1063.80004882813
1116.7914730216	1072.19995117188
1117.47323000018	1061.40002441406
1118.15490031382	1061.80004882813
1118.83648397022	1066.19995117188
1119.51798097712	1070.59997558594
1120.1993913422	1072.59997558594
1120.88071507321	1082
1121.56195217784	1075.40002441406
1122.24310266381	1076.40002441406
1122.92416653884	1074.59997558594
1123.60514381064	1070.19995117188
1124.28603448692	1071.80004882813
1124.9668385754	1072.80004882813
1125.64755608378	1063.19995117188
1126.32818701978	1073.40002441406
1127.00873139111	1066.80004882813
1127.68918920548	1073.80004882813
1128.3695604706	1076.19995117188
1129.04984519419	1072.40002441406
1129.73004338394	1072.19995117188
1130.41015504758	1067.19995117188
1131.09018019281	1069.80004882813
1131.77011882734	1076.19995117188
1132.44997095888	1064.59997558594
1133.12973659514	1066.59997558594
1133.80941574381	1068.80004882813
1134.48900841263	1065
1135.16851460927	1067.59997558594
1135.84793434147	1073.19995117188
1136.52726761692	1068.80004882813
1137.20651444333	1066.40002441406
1137.8856748284	1072.59997558594
1138.56474877984	1069.40002441406
1139.24373630536	1062
1139.92263741265	1072.19995117188
1140.60145210943	1064
1141.28018040339	1063.59997558594
1141.95882230225	1063.19995117188
1142.6373778137	1060.19995117188
1143.31584694545	1057.40002441406
1143.99422970519	1061.40002441406
1144.67252610064	1057
1145.35073613949	1056
1146.02885982944	1064
1146.7068971782	1063.59997558594
1147.38484819347	1071.40002441406
1148.06271288294	1066.59997558594
1148.74049125432	1069.40002441406
1149.41818331531	1069
1150.0957890736	1075.80004882813
1150.77330853689	1058
1151.45074171289	1068
1152.12808860928	1059.59997558594
1152.80534923378	1066.40002441406
1153.48252359407	1069.19995117188
1154.15961169786	1067.80004882813
1154.83661355283	1061.40002441406
1155.51352916669	1063.80004882813
1156.19035854713	1065.80004882813
1156.86710170185	1069.19995117188
1157.54375863855	1061.80004882813
1158.22032936491	1069.40002441406
1158.89681388863	1067.59997558594
1159.57321221741	1063
1160.24952435894	1073.19995117188
1160.92575032092	1067.80004882813
1161.60189011103	1064.59997558594
1162.27794373697	1068.40002441406
1162.95391120644	1074.40002441406
1163.62979252712	1065.80004882813
1164.3055877067	1068
1164.98129675288	1079.40002441406
1165.65691967336	1069.40002441406
1166.33245647581	1065
1167.00790716792	1064.19995117188
1167.6832717574	1064.19995117188
1168.35855025193	1061.80004882813
1169.0337426592	1068.59997558594
1169.70884898689	1067
1170.3838692427	1067.59997558594
1171.05880343431	1075
1171.73365156941	1070.40002441406
1172.40841365569	1073.40002441406
1173.08308970083	1074.59997558594
1173.75767971253	1070
1174.43218369847	1071.19995117188
1175.10660166633	1074.19995117188
1175.7809336238	1063.40002441406
1176.45517957857	1067.40002441406
1177.12933953832	1077.59997558594
1177.80341351073	1073.40002441406
1178.47740150349	1066.40002441406
1179.15130352429	1069.59997558594
1179.8251195808	1067
1180.49884968071	1075.59997558594
1181.1724938317	1070
1181.84605204145	1075.59997558594
1182.51952431766	1079
1183.19291066799	1077.19995117188
1183.86621110013	1077.40002441406
1184.53942562176	1077.59997558594
1185.21255424057	1074.40002441406
1185.88559696422	1073.40002441406
1186.55855380041	1069.40002441406
1187.2314247568	1071.59997558594
1187.90420984109	1071
1188.57690906095	1079.59997558594
1189.24952242405	1076.59997558594
1189.92204993808	1092.40002441406
1190.59449161071	1078.59997558594
1191.26684744962	1079.80004882813
1191.93911746249	1079.80004882813
1192.61130165699	1081.40002441406
1193.28340004081	1086.19995117188
1193.95541262161	1089.19995117188
1194.62733940707	1085.59997558594
1195.29918040487	1087
1195.97093562269	1086.40002441406
1196.64260506819	1085.80004882813
1197.31418874905	1073
1197.98568667295	1083
1198.65709884755	1075.80004882813
1199.32842528053	1072
1199.99966597957	1076
1200.67082095234	1074.80004882813
1201.3418902065	1077.40002441406
1202.01287374974	1080.59997558594
1202.68377158971	1068
1203.3545837341	1076.80004882813
1204.02531019057	1076.59997558594
1204.6959509668	1070.80004882813
1205.36650607045	1071.40002441406
1206.03697550919	1067.80004882813
1206.70735929069	1066
1207.37765742263	1069
1208.04786991266	1065.40002441406
1208.71799676846	1063.59997558594
1209.38803799769	1066.59997558594
1210.05799360803	1061.59997558594
1210.72786360714	1052
1211.39764800268	1055.40002441406
1212.06734680233	1066
1212.73696001375	1061.40002441406
1213.4064876446	1067.19995117188
1214.07592970255	1060.80004882813
1214.74528619526	1067
1215.4145571304	1068.19995117188
1216.08374251564	1069
1216.75284235863	1066
1217.42185666704	1065.59997558594
1218.09078544854	1062.80004882813
1218.75962871078	1050.59997558594
1219.42838646143	1060.19995117188
1220.09705870816	1058
1220.76564545861	1063.40002441406
1221.43414672046	1056
1222.10256250136	1061.59997558594
1222.77089280898	1059.40002441406
1223.43913765098	1054.40002441406
1224.107297035	1056.59997558594
1224.77537096873	1050.19995117188
1225.44335945981	1053.40002441406
1226.1112625159	1044.59997558594
1226.77908014467	1044
1227.44681235376	1043.19995117188
1228.11445915085	1039.40002441406
1228.78202054357	1049.19995117188
1229.44949653961	1053.19995117188
1230.11688714659	1049
1230.7841923722	1052.80004882813
1231.45141222407	1057.40002441406
1232.11854670988	1054.19995117188
1232.78559583726	1060
1233.45255961388	1051.59997558594
1234.1194380474	1051.40002441406
1234.78623114546	1053.40002441406
1235.45293891572	1051.80004882813
1236.11956136583	1054.40002441406
1236.78609850345	1049.19995117188
1237.45255033623	1051.19995117188
1238.11891687182	1055.80004882813
1238.78519811788	1059
1239.45139408205	1052.40002441406
1240.11750477198	1054.59997558594
1240.78353019534	1053.40002441406
1241.44947035976	1052.40002441406
1242.11532527291	1054.80004882813
1242.78109494242	1056.59997558594
1243.44677937595	1064.80004882813
1244.11237858115	1059.40002441406
1244.77789256567	1053.80004882813
1245.44332133715	1061.59997558594
1246.10866490325	1056.80004882813
1246.7739232716	1063.40002441406
1247.43909644987	1057
1248.10418444569	1063.40002441406
1248.76918726671	1062.40002441406
1249.43410492059	1061
1250.09893741496	1055
1250.76368475747	1054
1251.42834695576	1064.40002441406
1252.09292401749	1061.80004882813
1252.75741595029	1057.19995117188
1253.42182276182	1055.59997558594
1254.08614445971	1057.40002441406
1254.75038105161	1058.80004882813
1255.41453254515	1048.80004882813
1256.07859894799	1043.19995117188
1256.74258026777	1050.19995117188
1257.40647651213	1044
1258.0702876887	1043.59997558594
1258.73401380514	1046
1259.39765486908	1047
1260.06121088817	1049.40002441406
1260.72468187004	1051.59997558594
1261.38806782233	1050.40002441406
1262.05136875269	1045.80004882813
1262.71458466875	1048.40002441406
1263.37771557815	1047.59997558594
1264.04076148854	1049.80004882813
1264.70372240753	1050
1265.3665983428	1039
1266.02938930195	1054.19995117188
1266.69209529263	1052.59997558594
1267.35471632249	1055
1268.01725239914	1059.40002441406
1268.67970353024	1059
1269.34206972342	1055.59997558594
1270.00435098631	1057
1270.66654732655	1060.40002441406
1271.32865875177	1055
1271.9906852696	1053.59997558594
1272.65262688768	1042.80004882813
1273.31448361365	1052.19995117188
1273.97625545514	1052.40002441406
1274.63794241978	1053.40002441406
1275.2995445152	1054.80004882813
1275.96106174903	1049.40002441406
1276.62249412892	1046.80004882813
1277.28384166248	1054
1277.94510435735	1049
1278.60628222116	1049.59997558594
1279.26737526155	1043.40002441406
1279.92838348613	1050.40002441406
1280.58930690255	1054.19995117188
1281.25014551842	1047.19995117188
1281.91089934139	1048.59997558594
1282.57156837907	1045.59997558594
1283.2321526391	1042
1283.89265212911	1044.40002441406
1284.55306685671	1029.80004882813
1285.21339682955	1035.80004882813
1285.87364205525	1040.80004882813
1286.53380254142	1042.80004882813
1287.19387829571	1037.19995117188
1287.85386932573	1049.59997558594
1288.51377563911	1047.80004882813
1289.17359724348	1055.19995117188
1289.83333414646	1048.80004882813
1290.49298635567	1054.40002441406
1291.15255387874	1055.80004882813
1291.8120367233	1058.59997558594
1292.47143489696	1060.59997558594
1293.13074840736	1060.40002441406
1293.7899772621	1063.40002441406
1294.44912146882	1064.59997558594
1295.10818103513	1060
1295.76715596866	1055.19995117188
1296.42604627704	1060
1297.08485196787	1059.59997558594
1297.74357304878	1057.80004882813
1298.4022095274	1058.80004882813
1299.06076141134	1063.40002441406
1299.71922870821	1060.80004882813
1300.37761142565	1061.40002441406
1301.03590957126	1065.19995117188
1301.69412315268	1064.19995117188
1302.3522521775	1064.59997558594
1303.01029665336	1067.19995117188
1303.66825658787	1062.40002441406
1304.32613198865	1064.59997558594
1304.98392286332	1053.59997558594
1305.64162921948	1068
1306.29925106476	1068.59997558594
1306.95678840677	1065.59997558594
1307.61424125312	1063.80004882813
1308.27160961145	1065.80004882813
1308.92889348934	1061.80004882813
1309.58609289443	1068
1310.24320783432	1070.40002441406
1310.90023831664	1064.40002441406
1311.55718434898	1068
1312.21404593897	1061
1312.87082309421	1067.80004882813
1313.52751582233	1065.59997558594
1314.18412413092	1067.80004882813
1314.84064802761	1064.80004882813
1315.49708752	1065.40002441406
1316.1534426157	1078.59997558594
1316.80971332233	1069.80004882813
1317.46589964749	1066.59997558594
1318.1220015988	1071.19995117188
1318.77801918386	1060.19995117188
1319.43395241028	1063.59997558594
1320.08980128567	1066.59997558594
1320.74556581764	1063.40002441406
1321.4012460138	1061.80004882813
1322.05684188176	1066.40002441406
1322.71235342911	1057.40002441406
1323.36778066347	1060.19995117188
1324.02312359245	1051.40002441406
1324.67838222365	1049.80004882813
1325.33355656468	1054.59997558594
1325.98864662314	1054.19995117188
1326.64365240663	1053.19995117188
1327.29857392277	1044.80004882813
1327.95341117915	1053
1328.60816418339	1050.80004882813
1329.26283294308	1054
1329.91741746582	1051.40002441406
1330.57191775923	1048.59997558594
1331.2263338309	1049.59997558594
1331.88066568843	1053.19995117188
1332.53491333943	1056.59997558594
1333.1890767915	1052.59997558594
1333.84315605224	1054.80004882813
1334.49715112925	1060.19995117188
1335.15106203013	1059
1335.80488876249	1063
1336.45863133391	1058
1337.112289752	1058.19995117188
1337.76586402437	1059.19995117188
1338.4193541586	1061.59997558594
1339.0727601623	1067.80004882813
1339.72608204306	1066.40002441406
1340.37931980849	1070.40002441406
1341.03247346617	1067.40002441406
1341.68554302372	1063.59997558594
1342.33852848871	1065.19995117188
1342.99142986876	1067
1343.64424717145	1061.40002441406
1344.29698040438	1064.80004882813
1344.94962957515	1061.19995117188
1345.60219469135	1063.59997558594
1346.25467576058	1058
1346.90707279042	1067.19995117188
1347.55938578848	1068.19995117188
1348.21161476235	1059.59997558594
1348.86375971962	1065
1349.51582066787	1067
1350.16779761472	1066.80004882813
1350.81969056774	1063.40002441406
1351.47149953453	1062.40002441406
1352.12322452269	1062.40002441406
1352.77486553979	1066.19995117188
1353.42642259344	1077.40002441406
1354.07789569122	1072
1354.72928484072	1071
1355.38059004953	1072
1356.03181132525	1072.40002441406
1356.68294867545	1076.19995117188
1357.33400210773	1071.80004882813
1357.98497162968	1079.19995117188
1358.63585724889	1084.19995117188
1359.28665897294	1082.80004882813
1359.93737680942	1083.40002441406
1360.58801076591	1084.59997558594
1361.23856085001	1089.59997558594
1361.88902706929	1088
1362.53940943135	1090.40002441406
1363.18970794377	1086.40002441406
1363.83992261413	1084.19995117188
1364.49005345003	1075.40002441406
1365.14010045904	1078
1365.79006364874	1079.40002441406
1366.43994302673	1080.19995117188
1367.08973860058	1072.59997558594
1367.73945037788	1068.40002441406
1368.38907836621	1071.19995117188
1369.03862257315	1060.59997558594
1369.68808300629	1066.40002441406
1370.3374596732	1061.59997558594
1370.98675258148	1063
1371.63596173868	1068
1372.28508715241	1057.80004882813
1372.93412883024	1066.40002441406
1373.58308677974	1061
1374.2319610085	1051.80004882813
1374.8807515241	1050
1375.52945833412	1056.40002441406
1376.17808144612	1049.19995117188
1376.82662086771	1043.80004882813
1377.47507660644	1046
1378.12344866989	1047
1378.77173706565	1045.59997558594
1379.41994180129	1043
1380.06806288439	1038.40002441406
1380.71610032252	1041.19995117188
1381.36405412326	1043.59997558594
1382.01192429419	1040
1382.65971084287	1047.80004882813
1383.30741377688	1042.59997558594
1383.95503310381	1049.19995117188
1384.60256883121	1051
1385.25002096667	1052.19995117188
1385.89738951775	1054.59997558594
1386.54467449204	1056.40002441406
1387.19187589709	1050
1387.8389937405	1048.19995117188
1388.48602802982	1044.80004882813
1389.13297877262	1057.40002441406
1389.77984597649	1047.80004882813
1390.42662964899	1052.80004882813
1391.07332979768	1056.19995117188
1391.71994643015	1047.19995117188
1392.36647955395	1048.59997558594
1393.01292917667	1047
1393.65929530586	1038.80004882813
1394.3055779491	1042.19995117188
1394.95177711395	1049.80004882813
1395.59789280799	1054.19995117188
1396.24392503877	1046.80004882813
1396.88987381387	1054.80004882813
1397.53573914086	1049.59997558594
1398.1815210273	1048.80004882813
1398.82721948075	1038.80004882813
1399.47283450878	1035.59997558594
1400.11836611897	1040.59997558594
1400.76381431886	1038.40002441406
1401.40917911603	1039.19995117188
1402.05446051805	1036.19995117188
1402.69965853247	1043.19995117188
1403.34477316686	1039.80004882813
1403.98980442878	1051
1404.6347523258	1043.40002441406
1405.27961686548	1038
1405.92439805538	1036
1406.56909590306	1041.19995117188
1407.21371041608	1043.80004882813
1407.85824160202	1040.80004882813
1408.50268946841	1048
1409.14705402284	1041
1409.79133527285	1039
1410.43553322601	1041.59997558594
1411.07964788987	1038.59997558594
1411.723679272	1041
1412.36762737996	1043
1413.01149222129	1049.80004882813
1413.65527380357	1043.40002441406
1414.29897213435	1049.80004882813
1414.94258722118	1039.59997558594
1415.58611907163	1040.19995117188
1416.22956769325	1045.59997558594
1416.87293309359	1041.40002441406
1417.51621528021	1037
1418.15941426067	1040.59997558594
1418.80253004253	1035.59997558594
1419.44556263333	1039.40002441406
1420.08851204063	1045.40002441406
1420.731378272	1042.19995117188
1421.37416133497	1039
1422.0168612371	1049.59997558594
1422.65947798596	1038.40002441406
1423.30201158908	1050
1423.94446205403	1056.40002441406
1424.58682938835	1047.40002441406
1425.2291135996	1047.19995117188
1425.87131469532	1048.40002441406
1426.51343268308	1047.59997558594
1427.15546757042	1044.59997558594
1427.79741936488	1043.80004882813
1428.43928807403	1045.40002441406
1429.0810737054	1051
1429.72277626656	1047.59997558594
1430.36439576504	1051
1431.00593220841	1035.59997558594
1431.64738560419	1043
1432.28875595995	1043.40002441406
1432.93004328324	1049.59997558594
1433.57124758159	1049.59997558594
1434.21236886255	1046.59997558594
1434.85340713368	1045
1435.49436240252	1045
1436.13523467661	1039
1436.77602396349	1043.59997558594
1437.41673027073	1042.19995117188
1438.05735360585	1046.80004882813
1438.69789397641	1037.59997558594
1439.33835138994	1042.59997558594
1439.978725854	1036.19995117188
1440.61901737612	1046.80004882813
1441.25922596385	1043
1441.89935162473	1043.59997558594
1442.53939436631	1044
1443.17935419612	1040.80004882813
1443.81923112171	1044.19995117188
1444.45902515061	1037.19995117188
1445.09873629038	1040.80004882813
1445.73836454854	1043.59997558594
1446.37790993265	1042
1447.01737245024	1048.40002441406
1447.65675210885	1044
1448.29604891602	1040
1448.93526287928	1040
1449.57439400618	1046
1450.21344230426	1046.80004882813
1450.85240778105	1043.59997558594
1451.49129044409	1042.19995117188
1452.13009030092	1042
1452.76880735907	1035.40002441406
1453.40744162608	1041
1454.04599310949	1042.19995117188
1454.68446181683	1044.80004882813
1455.32284775564	1039.19995117188
1455.96115093345	1050.80004882813
1456.5993713578	1038.59997558594
1457.23750903623	1031.80004882813
1457.87556397626	1038.19995117188
1458.51353618543	1033.40002441406
1459.15142567127	1036.59997558594
1459.78923244132	1034.40002441406
1460.42695650311	1032.59997558594
1461.06459786417	1036.40002441406
1461.70215653203	1036.19995117188
1462.33963251423	1038.19995117188
1462.97702581829	1033.80004882813
1463.61433645175	1033
1464.25156442214	1027.40002441406
1464.88870973699	1027.80004882813
1465.52577240382	1031.40002441406
1466.16275243017	1032.19995117188
1466.79964982356	1036.59997558594
1467.43646459154	1034.59997558594
1468.07319674161	1032.59997558594
1468.70984628132	1044.59997558594
1469.34641321818	1044.80004882813
1469.98289755974	1041
1470.6192993135	1037.19995117188
1471.25561848701	1036.19995117188
1471.89185508779	1036
1472.52800912336	1035.59997558594
1473.16408060124	1036.80004882813
1473.80006952897	1037.80004882813
1474.43597591407	1039.80004882813
1475.07179976406	1042.40002441406
1475.70754108647	1040.19995117188
1476.34319988883	1041.80004882813
1476.97877617865	1036.80004882813
1477.61426996345	1034.19995117188
1478.24968125077	1031.80004882813
1478.88501004812	1032
1479.52025636303	1029.19995117188
1480.15542020302	1036.40002441406
1480.79050157561	1033.40002441406
1481.42550048832	1034.40002441406
1482.06041694867	1032.40002441406
1482.69525096418	1038
1483.33000254237	1036.80004882813
1483.96467169077	1035
1484.59925841689	1044.19995117188
1485.23376272825	1039.40002441406
1485.86818463237	1039.40002441406
1486.50252413677	1037.59997558594
1487.13678124896	1040.59997558594
1487.77095597646	1035.19995117188
1488.4050483268	1039.40002441406
1489.03905830749	1031.19995117188
1489.67298592604	1036
1490.30683118996	1033.19995117188
1490.9405941068	1040.80004882813
1491.57427468403	1036
1492.2078729292	1041.59997558594
1492.84138884981	1044.80004882813
1493.47482245338	1042.19995117188
1494.10817374742	1043
1494.74144273944	1036.19995117188
1495.37462943696	1037.40002441406
1496.0077338475	1034.80004882813
1496.64075597856	1036.80004882813
1497.27369583765	1032
1497.9065534323	1041.59997558594
1498.53932877001	1037.59997558594
1499.17202185829	1036.19995117188
1499.80463270465	1042.80004882813
1500.43716131661	1043.59997558594
1501.06960770167	1046.59997558594
1501.70197186735	1045
1502.33425382116	1047
1502.96645357059	1047.80004882813
1503.59857112317	1044.19995117188
1504.23060648641	1046.80004882813
1504.8625596678	1044.80004882813
1505.49443067486	1050.59997558594
1506.1262195151	1044
1506.75792619602	1046.40002441406
1507.38955072513	1050.19995117188
1508.02109310993	1046.80004882813
1508.65255335794	1049.59997558594
1509.28393147666	1048.40002441406
1509.91522747359	1047.80004882813
1510.54644135624	1051.80004882813
1511.17757313212	1055.59997558594
1511.80862280872	1049.40002441406
1512.43959039356	1049.80004882813
1513.07047589413	1050
1513.70127931795	1051
1514.33200067251	1048
1514.96263996531	1045.59997558594
1515.59319720386	1049.59997558594
1516.22367239567	1045.40002441406
1516.85406554822	1048.40002441406
1517.48437666903	1037
1518.1146057656	1039.40002441406
1518.74475284542	1032.59997558594
1519.374817916	1033.80004882813
1520.00480098483	1032.19995117188
1520.63470205942	1033.80004882813
1521.26452114726	1036.80004882813
1521.89425825586	1034.40002441406
1522.52391339271	1040.80004882813
1523.15348656531	1031
1523.78297778116	1038.80004882813
1524.41238704775	1032.80004882813
1525.04171437259	1032.80004882813
1525.67095976317	1030.59997558594
1526.30012322699	1039.19995117188
1526.92920477154	1035.40002441406
1527.55820440432	1037
1528.18712213283	1037
1528.81595796455	1034.40002441406
1529.44471190699	1030.19995117188
1530.07338396764	1034.80004882813
1530.70197415399	1030.59997558594
1531.33048247353	1033.40002441406
1531.95890893377	1040.40002441406
1532.58725354219	1039.19995117188
1533.21551630629	1030.59997558594
1533.84369723356	1032.19995117188
1534.47179633148	1032
1535.09981360757	1031.80004882813
1535.72774906929	1036.19995117188
1536.35560272415	1030.40002441406
1536.98337457963	1026.59997558594
1537.61106464323	1034.59997558594
1538.23867292243	1031.40002441406
1538.86619942473	1034.19995117188
1539.49364415762	1032.19995117188
1540.12100712857	1040.40002441406
1540.74828834509	1033.80004882813
1541.37548781466	1041.40002441406
1542.00260554478	1030.40002441406
1542.62964154291	1029.59997558594
1543.25659581655	1030.40002441406
1543.8834683732	1033
1544.51025922034	1027.80004882813
1545.13696836544	1021.79998779297
1545.76359581601	1021.20001220703
1546.39014157952	1021.40002441406
1547.01660566345	1023.20001220703
1547.64298807531	1017.40002441406
1548.26928882255	1022.59997558594
1548.89550791269	1022.79998779297
1549.52164535318	1021.20001220703
1550.14770115153	1027
1550.77367531521	1023.20001220703
1551.39956785171	1027.40002441406
1552.0253787685	1019.79998779297
1552.65110807307	1027.40002441406
1553.2767557729	1018.59997558594
1553.90232187548	1019
1554.52780638828	1023.20001220703
1555.15320931879	1022.20001220703
1555.77853067447	1021.59997558594
1556.40377046282	1021.40002441406
1557.02892869132	1018.59997558594
1557.65400536744	1019.79998779297
1558.27900049866	1021.79998779297
1558.90391409247	1016.20001220703
1559.52874615633	1018.59997558594
1560.15349669773	1022.59997558594
1560.77816572414	1018.40002441406
1561.40275324305	1015.59997558594
1562.02725926192	1014
1562.65168378824	1014.79998779297
1563.27602682948	1014.79998779297
1563.90028839311	1013.40002441406
1564.52446848662	1012.79998779297
1565.14856711748	1016.59997558594
1565.77258429316	1018.20001220703
1566.39652002113	1015.59997558594
1567.02037430887	1023.20001220703
1567.64414716387	1022.40002441406
1568.26783859357	1021.79998779297
1568.89144860547	1023.59997558594
1569.51497720703	1029.59997558594
1570.13842440573	1030.59997558594
1570.76179020904	1034.19995117188
1571.38507462442	1026.59997558594
1572.00827765936	1022.79998779297
1572.63139932132	1026.40002441406
1573.25443961777	1023.59997558594
1573.87739855618	1027.59997558594
1574.50027614402	1029
1575.12307238877	1031.40002441406
1575.74578729789	1036.80004882813
1576.36842087885	1035.19995117188
1576.99097313912	1030
1577.61344408616	1023.59997558594
1578.23583372745	1021
1578.85814207046	1020
1579.48036912264	1026.19995117188
1580.10251489147	1013.79998779297
1580.72457938441	1019.59997558594
1581.34656260893	1023.20001220703
1581.9684645725	1022.79998779297
1582.59028528258	1023.79998779297
1583.21202474663	1019.20001220703
1583.83368297212	1018.59997558594
1584.45525996652	1013.59997558594
1585.07675573728	1015.40002441406
1585.69817029188	1013
1586.31950363778	1005.20001220703
1586.94075578243	1017.59997558594
1587.5619267333	1013.59997558594
1588.18301649786	1014.20001220703
1588.80402508357	1013.59997558594
1589.42495249788	1012.20001220703
1590.04579874826	1011.59997558594
1590.66656384217	1016.20001220703
1591.28724778707	1016.59997558594
1591.90785059042	1019.20001220703
1592.52837225968	1014.79998779297
1593.14881280232	1009.40002441406
1593.76917222578	1010.20001220703
1594.38945053753	1014
1595.00964774502	1013.79998779297
1595.62976385573	1009
1596.24979887709	1008.20001220703
1596.86975281657	1004.40002441406
1597.48962568164	1005.59997558594
1598.10941747974	1005.79998779297
1598.72912821832	1010.20001220703
1599.34875790486	1010.40002441406
1599.9683065468	1005.20001220703
1600.58777415159	1011.20001220703
1601.2071607267	1011.59997558594
1601.82646627958	1008.79998779297
1602.44569081769	1008.59997558594
1603.06483434846	1004.40002441406
1603.68389687937	1007.59997558594
1604.30287841786	1005.20001220703
1604.92177897139	1007.59997558594
1605.54059854741	1007
1606.15933715337	1004.59997558594
1606.77799479672	1003.20001220703
1607.39657148492	1003.59997558594
1608.01506722542	1009.20001220703
1608.63348202566	1010.20001220703
1609.2518158931	1006.40002441406
1609.87006883519	1016
1610.48824085939	1010.40002441406
1611.10633197312	1012
1611.72434218386	1010.20001220703
1612.34227149904	1011.40002441406
1612.96011992612	1006
1613.57788747254	1009.59997558594
1614.19557414575	1004.40002441406
1614.8131799532	1008.40002441406
1615.43070490234	1011.20001220703
1616.04814900061	1009.40002441406
1616.66551225545	1015.59997558594
1617.28279467433	1013.59997558594
1617.89999626467	1016.40002441406
1618.51711703393	1010.40002441406
1619.13415698955	1013
1619.75111613898	1014
1620.36799448966	1015.40002441406
1620.98479204903	1007.59997558594
1621.60150882455	1004
1622.21814482364	1008.40002441406
1622.83470005376	1012.40002441406
1623.45117452235	1008.79998779297
1624.06756823685	1017
1624.6838812047	1004.40002441406
1625.30011343335	1007.79998779297
1625.91626493022	1009.20001220703
1626.53233570278	1005.20001220703
1627.14832575845	1005.79998779297
1627.76423510468	1005.59997558594
1628.38006374891	1010.59997558594
1628.99581169857	1004.79998779297
1629.61147896111	1000.40002441406
1630.22706554397	1004.40002441406
1630.84257145457	1006.20001220703
1631.45799670038	1003.40002441406
1632.07334128881	998
1632.6886052273	998.200012207031
1633.3037885233	1000.79998779297
1633.91889118425	997.599975585938
1634.53391321757	995.599975585938
1635.1488546307	998.599975585938
1635.76371543108	993.599975585938
1636.37849562616	1000.40002441406
1636.99319522335	999.599975585938
1637.60781423009	1002
1638.22235265383	1000
1638.83681050198	997.200012207031
1639.451187782	997.799987792969
1640.0654845013	1002.20001220703
1640.67970066734	998.599975585938
1641.29383628752	993.200012207031
1641.9078913693	999.400024414063
1642.5218659201	1001.59997558594
1643.13575994735	998.200012207031
1643.74957345849	999.400024414063
1644.36330646094	999.400024414063
1644.97695896213	998.400024414063
1645.59053096951	999
1646.20402249049	1000.79998779297
1646.8174335325	997.200012207031
1647.43076410298	1000.59997558594
1648.04401420935	1006
1648.65718385905	1007
1649.2702730595	1010.20001220703
1649.88328181812	1009.20001220703
1650.49621014236	1015
1651.10905803963	1009.40002441406
1651.72182551735	1012.40002441406
1652.33451258297	1008.79998779297
1652.9471192439	1013
1653.55964550757	1011.20001220703
1654.1720913814	1006.59997558594
1654.78445687283	1002.79998779297
1655.39674198926	998
1656.00894673814	994.799987792969
1656.62107112688	993.200012207031
1657.23311516291	990.200012207031
1657.84507885365	985
1658.45696220652	984.400024414063
1659.06876522895	982.799987792969
1659.68048792835	983.799987792969
1660.29213031217	982.799987792969
1660.90369238779	989.799987792969
1661.51517416267	979
1662.12657564421	978
1662.73789683984	979.400024414063
1663.34913775697	978.200012207031
1663.96029840303	976
1664.57137878544	975.200012207031
1665.18237891161	974.799987792969
1665.79329878897	976
1666.40413842493	976
1667.01489782691	976.200012207031
1667.62557700233	971.799987792969
1668.2361759586	968.400024414063
1668.84669470315	976.599975585938
1669.4571332434	973.799987792969
1670.06749158675	975.400024414063
1670.67776974062	970.400024414063
1671.28796771243	972.200012207031
1671.8980855096	968.799987792969
1672.50812313954	969.799987792969
1673.11808060967	972.400024414063
1673.72795792739	964.599975585938
1674.33775510013	967.400024414063
1674.9474721353	967
1675.55710904031	967.799987792969
1676.16666582257	965.599975585938
1676.7761424895	968.599975585938
1677.38553904851	965
1677.99485550702	963.400024414063
1678.60409187243	963.599975585938
1679.21324815215	970.200012207031
1679.8223243536	962.599975585938
1680.43132048419	967.400024414063
1681.04023655132	970.799987792969
1681.64907256241	965.200012207031
1682.25782852487	963.200012207031
1682.86650444611	962.200012207031
1683.47510033353	957.599975585938
1684.08361619455	957.599975585938
1684.69205203657	952.599975585938
1685.300407867	958.400024414063
1685.90868369325	958
1686.51687952272	960.599975585938
1687.12499536283	960.200012207031
1687.73303122098	959.799987792969
1688.34098710457	962.599975585938
1688.94886302101	964.799987792969
1689.55665897772	964.200012207031
1690.16437498208	962.599975585938
1690.77201104152	960.799987792969
1691.37956716342	959.400024414063
1691.9870433552	960.799987792969
1692.59443962426	958.400024414063
1693.20175597801	957.799987792969
1693.80899242384	952.200012207031
1694.41614896916	955
1695.02322562138	954.599975585938
1695.63022238789	953
1696.23713927609	951.599975585938
1696.8439762934	958.200012207031
1697.4507334472	955.400024414063
1698.05741074491	957
1698.66400819391	950.599975585938
1699.27052580161	953
1699.87696357542	954.400024414063
1700.48332152272	948.400024414063
1701.08959965092	951.599975585938
1701.69579796742	948.599975585938
1702.30191647962	953.799987792969
1702.90795519491	954
1703.51391412069	948.200012207031
1704.11979326437	946.799987792969
1704.72559263332	948.400024414063
1705.33131223496	942.400024414063
1705.93695207668	948.400024414063
1706.54251216588	946.599975585938
1707.14799250994	946.400024414063
1707.75339311628	952.599975585938
1708.35871399227	945.200012207031
1708.96395514532	946
1709.56911658282	947.599975585938
