634.948122577771	1104.80004882813
635.690341530823	1112.40002441406
636.43246851086	1105
637.174503525845	1100.40002441406
637.916446583745	1090.59997558594
638.658297692538	1094.40002441406
639.400056860179	1096
640.141724094637	1105
640.883299403885	1107.59997558594
641.62478279588	1099.40002441406
642.366174278594	1097.80004882813
643.107473859989	1110.59997558594
643.848681548029	1111.40002441406
644.589797350679	1112.80004882813
645.330821275901	1119.59997558594
646.071753331665	1117
646.812593525922	1114.40002441406
647.553341866646	1117.80004882813
648.293998361798	1112.19995117188
649.03456301933	1118.80004882813
649.775035847216	1103.80004882813
650.515416853409	1106.59997558594
651.255706045874	1102.80004882813
651.995903432568	1106.19995117188
652.736009021453	1102
653.476022820486	1114.19995117188
654.215944837629	1121
654.955775080842	1115.40002441406
655.695513558081	1110.59997558594
656.435160277301	1109.40002441406
657.174715246465	1118.40002441406
657.914178473527	1119.40002441406
658.653549966449	1120.59997558594
659.392829733176	1124.40002441406
660.132017781678	1133
660.871114119901	1134.80004882813
661.610118755803	1120.59997558594
662.349031697343	1132.80004882813
663.087852952468	1133.59997558594
663.826582529139	1129.80004882813
664.565220435305	1126
665.30376667892	1122
666.04222126794	1114
666.780584210316	1111.40002441406
667.518855514	1110.80004882813
668.25703518694	1113.80004882813
668.995123237096	1114.80004882813
669.733119672413	1121
670.471024500842	1123.59997558594
671.208837730333	1113.80004882813
671.946559368839	1108.59997558594
672.684189424308	1121
673.421727904689	1118.40002441406
674.159174817929	1120.40002441406
674.896530171977	1111.40002441406
675.633793974786	1121
676.370966234295	1116.19995117188
677.108046958461	1127.40002441406
677.845036155219	1111
678.581933832528	1115.40002441406
679.318739998323	1110
680.055454660558	1112.59997558594
680.792077827172	1117.59997558594
681.528609506116	1114.40002441406
682.265049705331	1106
683.001398432759	1105.19995117188
683.737655696349	1116.80004882813
684.47382150404	1121
685.20989586378	1123.80004882813
685.945878783503	1123.59997558594
686.68177027116	1123
687.417570334688	1122.40002441406
688.153278982032	1124.59997558594
688.888896221129	1121.59997558594
689.624422059921	1128.19995117188
690.359856506349	1120.59997558594
691.095199568354	1117.40002441406
691.830451253874	1119.40002441406
692.565611570844	1115.59997558594
693.300680527212	1110.80004882813
694.03565813091	1119.80004882813
694.770544389877	1120.59997558594
695.505339312053	1129.40002441406
696.240042905372	1121.59997558594
696.974655177772	1121.59997558594
697.70917613719	1133.19995117188
698.443605791561	1120.80004882813
699.177944148826	1118.40002441406
699.912191216909	1112.19995117188
700.646347003755	1110.80004882813
701.380411517295	1113.40002441406
702.114384765465	1125.80004882813
702.848266756195	1130.19995117188
703.582057497421	1136.19995117188
704.315756997074	1127.59997558594
705.049365263089	1128
705.782882303399	1120.80004882813
706.516308125936	1118.59997558594
707.249642738626	1115
707.982886149403	1120
708.716038366204	1128.59997558594
709.449099396949	1128.19995117188
710.182069249577	1128
710.914947932009	1134.80004882813
711.647735452181	1137.80004882813
712.380431818022	1135.59997558594
713.113037037454	1133.19995117188
713.845551118411	1123.59997558594
714.577974068818	1122.19995117188
715.310305896604	1120.19995117188
716.042546609694	1119.80004882813
716.774696216013	1125.59997558594
717.506754723493	1119.19995117188
718.238722140053	1125.40002441406
718.970598473624	1122
719.702383732127	1123.40002441406
720.43407792349	1125.19995117188
721.165681055634	1128.19995117188
721.897193136486	1118
722.628614173966	1122.80004882813
723.359944175997	1132.40002441406
724.091183150505	1126.59997558594
724.822331105412	1133.80004882813
725.553388048638	1136.59997558594
726.284353988106	1135
727.015228931734	1134.19995117188
727.746012887449	1137.80004882813
728.476705863162	1133
729.207307866803	1135.40002441406
729.937818906289	1130
730.668238989535	1133.19995117188
731.398568124459	1132.19995117188
732.128806318986	1118.80004882813
732.858953581034	1126.59997558594
733.589009918514	1124.59997558594
734.318975339348	1128.40002441406
735.048849851452	1112.19995117188
735.778633462744	1126.19995117188
736.508326181137	1121.19995117188
737.237928014549	1117.59997558594
737.967438970897	1127
738.696859058095	1125.40002441406
739.426188284054	1130.80004882813
740.155426656692	1129.59997558594
740.884574183922	1136.19995117188
741.613630873659	1134.19995117188
742.342596733815	1134.40002441406
743.071471772302	1137.19995117188
743.800255997034	1140.80004882813
744.528949415921	1139.40002441406
745.257552036877	1140.59997558594
745.986063867811	1140.19995117188
746.714484916638	1133.40002441406
747.442815191261	1140
748.171054699597	1129.59997558594
748.899203449554	1129.59997558594
749.627261449039	1128.40002441406
750.355228705966	1127.19995117188
751.083105228239	1132.40002441406
751.810891023765	1136.19995117188
752.538586100459	1133.40002441406
753.266190466218	1139.59997558594
753.99370412896	1129.59997558594
754.721127096582	1121.40002441406
755.448459377	1128
756.175700978114	1133
756.902851907828	1131.40002441406
757.629912174055	1135.59997558594
758.356881784688	1130.19995117188
759.083760747639	1134.40002441406
759.810549070817	1134
760.537246762113	1140
761.263853829442	1150
761.990370280698	1142.59997558594
762.716796123791	1141.80004882813
763.443131366618	1145.59997558594
764.169376017082	1143.59997558594
764.895530083085	1153.19995117188
765.621593572527	1152.19995117188
766.347566493312	1165.19995117188
767.073448853336	1162.40002441406
767.799240660502	1154.19995117188
768.524941922707	1162.40002441406
769.250552647854	1182.40002441406
769.976072843836	1182.59997558594
770.701502518551	1190.59997558594
771.426841679905	1205.19995117188
772.152090335793	1208.40002441406
772.877248494107	1191
773.602316162747	1204
774.327293349609	1188.40002441406
775.052180062592	1201.59997558594
775.776976309589	1193.59997558594
776.501682098496	1200.59997558594
777.226297437206	1187.19995117188
777.950822333616	1180.19995117188
778.675256795621	1187.40002441406
779.399600831111	1169.19995117188
780.123854447983	1165.80004882813
780.84801765413	1168.59997558594
781.572090457441	1162.59997558594
782.296072865811	1156.80004882813
783.019964887131	1150
783.743766529297	1150
784.467477800194	1142.80004882813
785.191098707719	1144.80004882813
785.914629259756	1143.19995117188
786.638069464194	1150.59997558594
787.361419328932	1141
788.084678861852	1138
788.807848070845	1143.19995117188
789.530926963798	1147.59997558594
790.253915548602	1146.40002441406
790.976813833144	1151.80004882813
791.699621825307	1141.59997558594
792.422339532986	1138
793.144966964061	1128.59997558594
793.86750412642	1135.40002441406
794.589951027946	1129.19995117188
795.312307676536	1147.19995117188
796.03457408006	1142.40002441406
796.756750246417	1139
797.478836183477	1132.19995117188
798.200831899137	1132.80004882813
798.92273740127	1133.80004882813
799.644552697769	1144.59997558594
800.36627779651	1137.80004882813
801.087912705374	1140.80004882813
801.809457432251	1147.19995117188
802.530911985017	1145.40002441406
803.252276371558	1133.80004882813
803.973550599748	1133.19995117188
804.694734677472	1149.40002441406
805.415828612611	1142.59997558594
806.136832413045	1137.80004882813
806.857746086646	1132.40002441406
807.578569641305	1130.80004882813
808.299303084892	1133.59997558594
809.019946425289	1136.40002441406
809.740499670372	1138
810.460962828022	1130.40002441406
811.181335906114	1132.19995117188
811.901618912524	1121.80004882813
812.621811855131	1122.40002441406
813.341914741809	1135.40002441406
814.061927580433	1138
814.781850378881	1142.80004882813
815.501683145025	1139.40002441406
816.221425886743	1144
816.941078611903	1145.59997558594
817.660641328387	1146.59997558594
818.380114044065	1148
819.099496766808	1143.59997558594
819.818789504492	1142.40002441406
820.53799226499	1142.19995117188
821.257105056168	1133.40002441406
821.976127885904	1140.59997558594
822.695060762064	1141.19995117188
823.413903692525	1140.59997558594
824.132656685151	1149.40002441406
824.851319747817	1143.59997558594
825.569892888388	1140.40002441406
826.288376114739	1146.40002441406
827.006769434737	1151.40002441406
827.725072856249	1140.59997558594
828.443286387142	1139.59997558594
829.161410035285	1143.19995117188
829.87944380855	1132.40002441406
830.597387714798	1140.59997558594
831.315241761898	1137.59997558594
832.033005957715	1139
832.750680310119	1128.19995117188
833.468264826969	1132.40002441406
834.18575951614	1127.80004882813
834.903164385486	1122.80004882813
835.620479442878	1118.80004882813
836.337704696181	1118
837.054840153255	1125.80004882813
837.771885821962	1126.19995117188
838.488841710172	1134.19995117188
839.20570782574	1134.19995117188
839.922484176531	1131.40002441406
840.639170770409	1130
841.355767615231	1132.40002441406
842.072274718864	1125.40002441406
842.788692089164	1131.80004882813
843.505019733993	1128.59997558594
844.221257661209	1126.19995117188
844.937405878676	1123.19995117188
845.65346439425	1124.59997558594
846.369433215789	1117.40002441406
847.085312351156	1135.19995117188
847.801101808205	1143.80004882813
848.516801594793	1138.40002441406
849.232411718781	1143
849.947932188021	1131
850.663363010376	1126.40002441406
851.378704193698	1116.80004882813
852.093955745842	1116.80004882813
852.809117674669	1115.19995117188
853.524189988028	1123
854.239172693778	1122.19995117188
854.954065799768	1122.40002441406
855.668869313857	1120.80004882813
856.383583243899	1124.59997558594
857.098207597743	1116.40002441406
857.812742383246	1122.59997558594
858.527187608255	1136.19995117188
859.241543280628	1131.80004882813
859.955809408218	1123.59997558594
860.669985998868	1116.59997558594
861.384073060437	1119.19995117188
862.098070600772	1111.19995117188
862.811978627724	1120.59997558594
863.52579714914	1117.59997558594
864.239526172873	1126.19995117188
864.953165706776	1113
865.666715758687	1134.59997558594
866.380176336464	1125.40002441406
867.093547447951	1128
867.806829100996	1142.40002441406
868.520021303444	1124.40002441406
869.233124063149	1123.59997558594
869.94613738795	1129.80004882813
870.659061285693	1128.80004882813
871.37189576423	1137.80004882813
872.084640831403	1128.80004882813
872.797296495057	1124
873.509862763039	1132.59997558594
874.22233964319	1123.19995117188
874.934727143353	1135.80004882813
875.647025271374	1136.19995117188
876.359234035097	1126.80004882813
877.071353442361	1131.40002441406
877.783383501015	1128.80004882813
878.495324218895	1135.40002441406
879.207175603844	1129.80004882813
879.918937663705	1130.59997558594
880.630610406318	1131.19995117188
881.342193839524	1124.80004882813
882.053687971161	1126.40002441406
882.765092809069	1121.80004882813
883.476408361091	1129.80004882813
884.187634635066	1131.19995117188
884.898771638828	1134.19995117188
885.609819380221	1125.80004882813
886.320777867076	1123.19995117188
887.031647107236	1129.40002441406
887.742427108536	1128.40002441406
888.453117878816	1111.40002441406
889.16371942591	1124.59997558594
889.874231757652	1114.59997558594
890.584654881883	1120.80004882813
891.294988806434	1125
892.005233539141	1112.80004882813
892.715389087837	1125
893.42545546036	1121.40002441406
894.135432664543	1124
894.845320708216	1124.40002441406
895.555119599216	1128.59997558594
896.264829345375	1125.59997558594
896.974449954526	1127.19995117188
897.683981434496	1135.80004882813
898.393423793125	1127
899.102777038235	1122.19995117188
899.812041177664	1132.40002441406
900.521216219239	1131.80004882813
901.230302170793	1124
901.939299040155	1131.19995117188
902.64820683515	1131.40002441406
903.357025563612	1139.40002441406
904.065755233368	1139
904.774395852247	1125
905.482947428076	1122
906.191409968682	1135.19995117188
906.899783481897	1132
907.608067975538	1130.19995117188
908.316263457443	1128.59997558594
909.02436993543	1129.59997558594
909.732387417327	1140.59997558594
910.440315910959	1128.80004882813
911.148155424154	1126.40002441406
911.855905964731	1127.80004882813
912.563567540521	1131.40002441406
913.271140159339	1139
913.978623829017	1136.19995117188
914.686018557374	1144.19995117188
915.393324352237	1146.59997558594
916.100541221421	1138.80004882813
916.807669172752	1145.40002441406
917.514708214054	1148
918.221658353142	1146
918.928519597843	1150.80004882813
919.635291955976	1144.80004882813
920.341975435358	1142.19995117188
921.048570043813	1136.59997558594
921.75507578916	1145.80004882813
922.461492679212	1144
923.167820721795	1133.40002441406
923.874059924726	1130
924.58021029582	1133.59997558594
925.286271842893	1133
925.992244573769	1132.80004882813
926.698128496262	1134.40002441406
927.403923618184	1129.59997558594
928.109629947355	1126.80004882813
928.815247491593	1133
929.520776258708	1126.80004882813
930.226216256519	1131.59997558594
930.931567492841	1135.19995117188
931.636829975482	1132.40002441406
932.342003712263	1132.40002441406
933.047088710995	1124.59997558594
933.752084979491	1132
934.456992525564	1133.59997558594
935.161811357024	1135.80004882813
935.866541481688	1130
936.571182907363	1124.59997558594
937.275735641861	1124.80004882813
937.980199692995	1129.59997558594
938.684575068572	1127.19995117188
939.388861776411	1125.80004882813
940.093059824311	1119.80004882813
940.797169220085	1122.40002441406
941.501189971544	1129.19995117188
942.205122086495	1142.80004882813
942.908965572751	1135.40002441406
943.612720438111	1124
944.316386690391	1115
945.019964337391	1109.80004882813
945.723453386924	1109.40002441406
946.426853846795	1117.40002441406
947.130165724808	1118.19995117188
947.83338902877	1126.19995117188
948.536523766488	1121.19995117188
949.239569945764	1128.59997558594
949.942527574402	1121.19995117188
950.64539666021	1130.40002441406
951.348177210993	1129.59997558594
952.050869234548	1133.19995117188
952.753472738683	1127.59997558594
953.455987731199	1131.40002441406
954.158414219898	1126.59997558594
954.860752212587	1118.19995117188
955.563001717061	1123.40002441406
956.265162741124	1126.19995117188
956.967235292576	1120.80004882813
957.669219379224	1127
958.371115008857	1125
959.072922189283	1121.40002441406
959.774640928301	1128
960.476271233708	1130.80004882813
961.177813113301	1124
961.879266574882	1127.40002441406
962.580631626248	1128
963.281908275194	1122.59997558594
963.98309652952	1116
964.684196397022	1112.80004882813
965.3852078855	1112.80004882813
966.086131002745	1119
966.786965756555	1119.59997558594
967.487712154726	1121.19995117188
968.188370205055	1125.59997558594
968.888939915331	1120.80004882813
969.589421293352	1123.40002441406
970.289814346909	1131.40002441406
970.990119083801	1128.40002441406
971.690335511819	1129
972.39046363875	1133.19995117188
973.090503472398	1135.19995117188
973.790455020545	1130.80004882813
974.490318290987	1127.80004882813
975.190093291516	1129.19995117188
975.889780029923	1130
976.589378513998	1131
977.288888751527	1139.19995117188
977.988310750308	1135.80004882813
978.687644518122	1128.40002441406
979.386890062767	1121.40002441406
980.086047392025	1118.19995117188
980.785116513689	1115.40002441406
981.484097435542	1120.80004882813
982.182990165377	1125.59997558594
982.88179471098	1122.40002441406
983.580511080137	1124.59997558594
984.279139280632	1128.40002441406
984.977679320253	1126
985.67613120679	1139.40002441406
986.374494948027	1126
987.072770551745	1131
987.770958025731	1119.80004882813
988.469057377772	1125.59997558594
989.167068615649	1126.19995117188
989.864991747145	1117.40002441406
990.562826780047	1113.59997558594
991.260573722134	1102.80004882813
991.958232581195	1115.80004882813
992.655803365003	1112.80004882813
993.353286081346	1116.59997558594
994.050680738006	1114.40002441406
994.74798734276	1108.59997558594
995.44520590339	1117
996.142336427681	1110.40002441406
996.839378923407	1105.40002441406
997.536333398348	1114.80004882813
998.233199860289	1105.40002441406
998.929978317004	1115.40002441406
999.626668776274	1113.80004882813
1000.32327124587	1115.19995117188
1001.01978573359	1126
1001.71621224718	1117.19995117188
1002.41255079445	1124
1003.10880138315	1119.80004882813
1003.80496402107	1118.80004882813
1004.50103871599	1121.40002441406
1005.19702547567	1129.40002441406
1005.8929243079	1116.80004882813
1006.58873522045	1121.40002441406
1007.2844582211	1118.19995117188
1007.98009331761	1123
1008.67564051776	1124.19995117188
1009.37109982933	1120.40002441406
1010.06647126009	1123
1010.7617548178	1117.80004882813
1011.45695051026	1119.80004882813
1012.15205834522	1119.19995117188
1012.84707833045	1118.40002441406
1013.54201047373	1119.80004882813
1014.23685478284	1123.19995117188
1014.93161126553	1125
1015.62627992959	1122.40002441406
1016.32086078277	1120.40002441406
1017.01535383285	1123.59997558594
1017.70975908761	1119.80004882813
1018.40407655479	1127.59997558594
1019.09830624219	1126.19995117188
1019.79244815755	1123.59997558594
1020.48650230866	1125.80004882813
1021.18046870328	1113.80004882813
1021.87434734917	1122.80004882813
1022.56813825411	1127.80004882813
1023.26184142584	1124.40002441406
1023.95545687216	1118.40002441406
1024.64898460082	1120.59997558594
1025.34242461957	1119.40002441406
1026.0357769362	1109.59997558594
1026.72904155846	1124.19995117188
1027.42221849412	1128.59997558594
1028.11530775094	1124.40002441406
1028.80830933668	1115.40002441406
1029.50122325911	1123.80004882813
1030.19404952599	1124.19995117188
1030.88678814508	1121
1031.57943912414	1124.19995117188
1032.27200247093	1122.40002441406
1032.96447819323	1118.80004882813
1033.65686629878	1123.19995117188
1034.34916679534	1122.80004882813
1035.04137969068	1124.80004882813
1035.73350499256	1129.40002441406
1036.42554270874	1124.19995117188
1037.11749284697	1120
1037.80935541501	1123.19995117188
1038.50113042062	1120.19995117188
1039.19281787156	1127.59997558594
1039.88441777559	1127
1040.57593014046	1125
1041.26735497393	1127.19995117188
1041.95869228376	1117.59997558594
1042.6499420777	1112.19995117188
1043.3411043635	1121.40002441406
1044.03217914893	1116.19995117188
1044.72316644174	1114.40002441406
1045.41406624968	1119.80004882813
1046.1048785805	1109.80004882813
1046.79560344197	1109.59997558594
1047.48624084182	1111
1048.17679078783	1110.40002441406
1048.86725328774	1110.19995117188
1049.55762834929	1110.59997558594
1050.24791598025	1114.40002441406
1050.93811618837	1114.59997558594
1051.62822898139	1117
1052.31825436707	1113.19995117188
1053.00819235315	1118.59997558594
1053.6980429474	1112.59997558594
1054.38780615755	1121.40002441406
1055.07748199136	1116.40002441406
1055.76707045658	1120.59997558594
1056.45657156095	1125.59997558594
1057.14598531222	1119.19995117188
1057.83531171814	1124.59997558594
1058.52455078646	1118.40002441406
1059.21370252494	1118.40002441406
1059.90276694129	1123.19995117188
1060.5917440433	1112.19995117188
1061.28063383868	1112.40002441406
1061.9694363352	1112.59997558594
1062.65815154059	1118.19995117188
1063.34677946261	1114.19995117188
1064.03532010899	1116.80004882813
1064.72377348748	1119
1065.41213960583	1119.19995117188
1066.10041847177	1117.80004882813
1066.78861009306	1110
1067.47671447743	1114.80004882813
1068.16473163263	1110.40002441406
1068.85266156639	1109
1069.54050428647	1111.80004882813
1070.2282598006	1118.19995117188
1070.91592811652	1114.40002441406
1071.60350924198	1110.19995117188
1072.29100318471	1109
1072.97840995245	1104.40002441406
1073.66572955295	1110.40002441406
1074.35296199394	1098.40002441406
1075.04010728316	1104.40002441406
1075.72716542836	1102.80004882813
1076.41413643726	1099
1077.10102031761	1103
1077.78781707715	1107.19995117188
1078.4745267236	1112.59997558594
1079.16114926471	1112.40002441406
1079.84768470822	1111.19995117188
1080.53413306185	1112.59997558594
1081.22049433336	1114.40002441406
1081.90676853046	1112.59997558594
1082.5929556609	1111.40002441406
1083.27905573241	1105.40002441406
1083.96506875272	1111.19995117188
1084.65099472957	1116.80004882813
1085.3368336707	1112.80004882813
1086.02258558383	1115.19995117188
1086.70825047669	1113.80004882813
1087.39382835703	1123.59997558594
1088.07931923257	1125.80004882813
1088.76472311104	1116.80004882813
1089.45004000018	1113.40002441406
1090.13526990771	1111.19995117188
1090.82041284137	1102.19995117188
1091.50546880889	1108.40002441406
1092.19043781799	1110.40002441406
1092.87531987642	1109.59997558594
1093.56011499188	1118.59997558594
1094.24482317212	1113.19995117188
1094.92944442486	1111.59997558594
1095.61397875783	1111.40002441406
1096.29842617876	1108.40002441406
1096.98278669537	1103.40002441406
1097.6670603154	1101.40002441406
1098.35124704656	1106.59997558594
1099.03534689659	1111
1099.71935987322	1110.40002441406
1100.40328598416	1103.40002441406
1101.08712523713	1110.80004882813
1101.77087763988	1114.59997558594
1102.45454320012	1107.40002441406
1103.13812192557	1108.19995117188
1103.82161382396	1108.80004882813
1104.50501890301	1106.40002441406
1105.18833717045	1112
1105.87156863399	1117.19995117188
1106.55471330137	1112.80004882813
1107.2377711803	1114.40002441406
1107.9207422785	1114.80004882813
1108.60362660369	1110.40002441406
1109.2864241636	1099.80004882813
1109.96913496594	1105.40002441406
1110.65175901844	1103.59997558594
1111.33429632882	1107
1112.01674690479	1112.40002441406
1112.69911075408	1105.59997558594
1113.38138788439	1106.59997558594
1114.06357830346	1115.59997558594
1114.745682019	1113
1115.42769903872	1110.59997558594
1116.10962937035	1111.80004882813
1116.7914730216	1108.40002441406
1117.47323000018	1117.40002441406
1118.15490031382	1113.59997558594
1118.83648397022	1123
1119.51798097712	1124.19995117188
1120.1993913422	1123.40002441406
1120.88071507321	1120.59997558594
1121.56195217784	1123
1122.24310266381	1124
1122.92416653884	1113.59997558594
1123.60514381064	1115
1124.28603448692	1116
1124.9668385754	1113.19995117188
1125.64755608378	1115.19995117188
1126.32818701978	1119.59997558594
1127.00873139111	1118.59997558594
1127.68918920548	1123
1128.3695604706	1121.19995117188
1129.04984519419	1117.19995117188
1129.73004338394	1115.19995117188
1130.41015504758	1115.59997558594
1131.09018019281	1111.40002441406
1131.77011882734	1124
1132.44997095888	1118.19995117188
1133.12973659514	1126.40002441406
1133.80941574381	1126.59997558594
1134.48900841263	1125.19995117188
1135.16851460927	1114.19995117188
1135.84793434147	1111
1136.52726761692	1112.80004882813
1137.20651444333	1106.40002441406
1137.8856748284	1113.59997558594
1138.56474877984	1106.59997558594
1139.24373630536	1101
1139.92263741265	1105.40002441406
1140.60145210943	1107
1141.28018040339	1109.19995117188
1141.95882230225	1107.40002441406
1142.6373778137	1102.59997558594
1143.31584694545	1104.59997558594
1143.99422970519	1106
1144.67252610064	1096.59997558594
1145.35073613949	1096.59997558594
1146.02885982944	1097
1146.7068971782	1098.19995117188
1147.38484819347	1096
1148.06271288294	1105.19995117188
1148.74049125432	1102.80004882813
1149.41818331531	1104.40002441406
1150.0957890736	1107.80004882813
1150.77330853689	1108.19995117188
1151.45074171289	1102.59997558594
1152.12808860928	1104.59997558594
1152.80534923378	1101.59997558594
1153.48252359407	1097.80004882813
1154.15961169786	1102.19995117188
1154.83661355283	1109.80004882813
1155.51352916669	1104.80004882813
1156.19035854713	1111.40002441406
1156.86710170185	1106.19995117188
1157.54375863855	1112
1158.22032936491	1106.59997558594
1158.89681388863	1106.59997558594
1159.57321221741	1111.19995117188
1160.24952435894	1112.80004882813
1160.92575032092	1112.59997558594
1161.60189011103	1104.19995117188
1162.27794373697	1106.59997558594
1162.95391120644	1099.19995117188
1163.62979252712	1099
1164.3055877067	1102.19995117188
1164.98129675288	1109.59997558594
1165.65691967336	1117.40002441406
1166.33245647581	1111
1167.00790716792	1112.80004882813
1167.6832717574	1109.80004882813
1168.35855025193	1105.19995117188
1169.0337426592	1105.40002441406
1169.70884898689	1105.19995117188
1170.3838692427	1103.19995117188
1171.05880343431	1095.80004882813
1171.73365156941	1107.80004882813
1172.40841365569	1107.19995117188
1173.08308970083	1106.59997558594
1173.75767971253	1117.80004882813
1174.43218369847	1108.59997558594
1175.10660166633	1107
1175.7809336238	1114
1176.45517957857	1105.19995117188
1177.12933953832	1103.19995117188
1177.80341351073	1117.40002441406
1178.47740150349	1110.59997558594
1179.15130352429	1119.59997558594
1179.8251195808	1118.40002441406
1180.49884968071	1123.40002441406
1181.1724938317	1119.40002441406
1181.84605204145	1120.59997558594
1182.51952431766	1117.40002441406
1183.19291066799	1117.59997558594
1183.86621110013	1113.80004882813
1184.53942562176	1114.80004882813
1185.21255424057	1117.19995117188
1185.88559696422	1114
1186.55855380041	1120.19995117188
1187.2314247568	1113.40002441406
1187.90420984109	1125.40002441406
1188.57690906095	1123.19995117188
1189.24952242405	1133.40002441406
1189.92204993808	1133.59997558594
1190.59449161071	1134.40002441406
1191.26684744962	1133.80004882813
1191.93911746249	1134.59997558594
1192.61130165699	1127.80004882813
1193.28340004081	1128.19995117188
1193.95541262161	1125.40002441406
1194.62733940707	1124.19995117188
1195.29918040487	1113.59997558594
1195.97093562269	1116.59997558594
1196.64260506819	1121.19995117188
1197.31418874905	1116.80004882813
1197.98568667295	1125.19995117188
1198.65709884755	1117.80004882813
1199.32842528053	1119.59997558594
1199.99966597957	1114.59997558594
1200.67082095234	1111.80004882813
1201.3418902065	1117.40002441406
1202.01287374974	1113.80004882813
1202.68377158971	1107.80004882813
1203.3545837341	1116.80004882813
1204.02531019057	1117.59997558594
1204.6959509668	1111
1205.36650607045	1109.59997558594
1206.03697550919	1105.19995117188
1206.70735929069	1095.80004882813
1207.37765742263	1108
1208.04786991266	1104
1208.71799676846	1103
1209.38803799769	1107.59997558594
1210.05799360803	1102.80004882813
1210.72786360714	1108.40002441406
1211.39764800268	1105.80004882813
1212.06734680233	1104
1212.73696001375	1102.59997558594
1213.4064876446	1094.80004882813
1214.07592970255	1094.80004882813
1214.74528619526	1098.80004882813
1215.4145571304	1097.59997558594
1216.08374251564	1104.80004882813
1216.75284235863	1112.19995117188
1217.42185666704	1101
1218.09078544854	1099
1218.75962871078	1099.59997558594
1219.42838646143	1085.59997558594
1220.09705870816	1094.40002441406
1220.76564545861	1088.80004882813
1221.43414672046	1091
1222.10256250136	1096.19995117188
1222.77089280898	1096.40002441406
1223.43913765098	1098.40002441406
1224.107297035	1097.80004882813
1224.77537096873	1100
1225.44335945981	1089.40002441406
1226.1112625159	1093.59997558594
1226.77908014467	1089
1227.44681235376	1089.40002441406
1228.11445915085	1088.40002441406
1228.78202054357	1091.40002441406
1229.44949653961	1100.19995117188
1230.11688714659	1094
1230.7841923722	1098.59997558594
1231.45141222407	1091.40002441406
1232.11854670988	1099.40002441406
1232.78559583726	1100.19995117188
1233.45255961388	1096
1234.1194380474	1098.40002441406
1234.78623114546	1096
1235.45293891572	1096.59997558594
1236.11956136583	1099.19995117188
1236.78609850345	1097
1237.45255033623	1098
1238.11891687182	1089
1238.78519811788	1082.59997558594
1239.45139408205	1090.40002441406
1240.11750477198	1095.40002441406
1240.78353019534	1090.19995117188
1241.44947035976	1094.40002441406
1242.11532527291	1089.19995117188
1242.78109494242	1092.59997558594
1243.44677937595	1089.59997558594
1244.11237858115	1096.19995117188
1244.77789256567	1086
1245.44332133715	1095.80004882813
1246.10866490325	1092.80004882813
1246.7739232716	1083.19995117188
1247.43909644987	1081.80004882813
1248.10418444569	1089.59997558594
1248.76918726671	1085.59997558594
1249.43410492059	1089.80004882813
1250.09893741496	1092.80004882813
1250.76368475747	1093.40002441406
1251.42834695576	1094.59997558594
1252.09292401749	1102.19995117188
1252.75741595029	1093.80004882813
1253.42182276182	1092.40002441406
1254.08614445971	1084.40002441406
1254.75038105161	1079.59997558594
1255.41453254515	1088.40002441406
1256.07859894799	1091.80004882813
1256.74258026777	1091.80004882813
1257.40647651213	1086.80004882813
1258.0702876887	1098.40002441406
1258.73401380514	1095.80004882813
1259.39765486908	1097
1260.06121088817	1099.19995117188
1260.72468187004	1098
1261.38806782233	1097
1262.05136875269	1093.59997558594
1262.71458466875	1094.40002441406
1263.37771557815	1097.80004882813
1264.04076148854	1098.19995117188
1264.70372240753	1089.80004882813
1265.3665983428	1088
1266.02938930195	1092.40002441406
1266.69209529263	1092
1267.35471632249	1087.40002441406
1268.01725239914	1094.40002441406
1268.67970353024	1097.59997558594
1269.34206972342	1097.80004882813
1270.00435098631	1097.40002441406
1270.66654732655	1095.80004882813
1271.32865875177	1096
1271.9906852696	1090.59997558594
1272.65262688768	1092.19995117188
1273.31448361365	1099.59997558594
1273.97625545514	1090.59997558594
1274.63794241978	1087.80004882813
1275.2995445152	1085.59997558594
1275.96106174903	1082.80004882813
1276.62249412892	1085.80004882813
1277.28384166248	1085.40002441406
1277.94510435735	1086
1278.60628222116	1096.40002441406
1279.26737526155	1093
1279.92838348613	1096
1280.58930690255	1090.59997558594
1281.25014551842	1095.40002441406
1281.91089934139	1091.59997558594
1282.57156837907	1088.59997558594
1283.2321526391	1086.40002441406
1283.89265212911	1089.80004882813
1284.55306685671	1091
1285.21339682955	1093
1285.87364205525	1100.80004882813
1286.53380254142	1092.59997558594
1287.19387829571	1092.19995117188
1287.85386932573	1082.80004882813
1288.51377563911	1090.80004882813
1289.17359724348	1087
1289.83333414646	1084.80004882813
1290.49298635567	1088
1291.15255387874	1084.40002441406
1291.8120367233	1089.40002441406
1292.47143489696	1089.80004882813
1293.13074840736	1086.59997558594
1293.7899772621	1085.59997558594
1294.44912146882	1089.40002441406
1295.10818103513	1092.59997558594
1295.76715596866	1088.19995117188
1296.42604627704	1095.80004882813
1297.08485196787	1094
1297.74357304878	1088.80004882813
1298.4022095274	1089.80004882813
1299.06076141134	1097.59997558594
1299.71922870821	1095.40002441406
1300.37761142565	1099.19995117188
1301.03590957126	1090.40002441406
1301.69412315268	1098.80004882813
1302.3522521775	1093.59997558594
1303.01029665336	1094.40002441406
1303.66825658787	1104.59997558594
1304.32613198865	1113
1304.98392286332	1108.59997558594
1305.64162921948	1112.80004882813
1306.29925106476	1104.19995117188
1306.95678840677	1109
1307.61424125312	1103
1308.27160961145	1110.59997558594
1308.92889348934	1109.40002441406
1309.58609289443	1109.40002441406
1310.24320783432	1116.19995117188
1310.90023831664	1108.19995117188
1311.55718434898	1110.59997558594
1312.21404593897	1108.80004882813
1312.87082309421	1109.59997558594
1313.52751582233	1116.59997558594
1314.18412413092	1110.19995117188
1314.84064802761	1112
1315.49708752	1110.59997558594
1316.1534426157	1112.40002441406
1316.80971332233	1110.80004882813
1317.46589964749	1110.19995117188
1318.1220015988	1110.40002441406
1318.77801918386	1104
1319.43395241028	1104.59997558594
1320.08980128567	1107.40002441406
1320.74556581764	1104.19995117188
1321.4012460138	1108.40002441406
1322.05684188176	1106.80004882813
1322.71235342911	1103.19995117188
1323.36778066347	1106
1324.02312359245	1101.19995117188
1324.67838222365	1101.59997558594
1325.33355656468	1095.19995117188
1325.98864662314	1098.40002441406
1326.64365240663	1098.40002441406
1327.29857392277	1096.80004882813
1327.95341117915	1086.40002441406
1328.60816418339	1088.40002441406
1329.26283294308	1081.19995117188
1329.91741746582	1088.80004882813
1330.57191775923	1095
1331.2263338309	1091.80004882813
1331.88066568843	1085.80004882813
1332.53491333943	1083
1333.1890767915	1088.59997558594
1333.84315605224	1089
1334.49715112925	1080.40002441406
1335.15106203013	1090.59997558594
1335.80488876249	1082
1336.45863133391	1088.59997558594
1337.112289752	1087
1337.76586402437	1089.40002441406
1338.4193541586	1094
1339.0727601623	1086.40002441406
1339.72608204306	1104
1340.37931980849	1097
1341.03247346617	1095
1341.68554302372	1086
1342.33852848871	1094.19995117188
1342.99142986876	1091.19995117188
1343.64424717145	1091.80004882813
1344.29698040438	1101
1344.94962957515	1094.59997558594
1345.60219469135	1098
1346.25467576058	1100.80004882813
1346.90707279042	1093.59997558594
1347.55938578848	1093
1348.21161476235	1093.19995117188
1348.86375971962	1101.40002441406
1349.51582066787	1103.80004882813
1350.16779761472	1101
1350.81969056774	1114.40002441406
1351.47149953453	1115.59997558594
1352.12322452269	1116.19995117188
1352.77486553979	1106.59997558594
1353.42642259344	1117.19995117188
1354.07789569122	1120.40002441406
1354.72928484072	1118.40002441406
1355.38059004953	1122.80004882813
1356.03181132525	1126
1356.68294867545	1121.80004882813
1357.33400210773	1135.40002441406
1357.98497162968	1123.80004882813
1358.63585724889	1131.40002441406
1359.28665897294	1140
1359.93737680942	1139.80004882813
1360.58801076591	1137.19995117188
1361.23856085001	1140.59997558594
1361.88902706929	1142.80004882813
1362.53940943135	1152.19995117188
1363.18970794377	1145
1363.83992261413	1137.80004882813
1364.49005345003	1136.40002441406
1365.14010045904	1133
1365.79006364874	1138.80004882813
1366.43994302673	1132.59997558594
1367.08973860058	1130.59997558594
1367.73945037788	1135.40002441406
1368.38907836621	1123.80004882813
1369.03862257315	1129.59997558594
1369.68808300629	1112.40002441406
1370.3374596732	1109.19995117188
1370.98675258148	1099.40002441406
1371.63596173868	1095.19995117188
1372.28508715241	1099
1372.93412883024	1088.19995117188
1373.58308677974	1087.80004882813
1374.2319610085	1092.40002441406
1374.8807515241	1086
1375.52945833412	1087.59997558594
1376.17808144612	1088.19995117188
1376.82662086771	1087.59997558594
1377.47507660644	1086.80004882813
1378.12344866989	1091.80004882813
1378.77173706565	1096.59997558594
1379.41994180129	1092.40002441406
1380.06806288439	1083
1380.71610032252	1081
1381.36405412326	1074
1382.01192429419	1070.40002441406
1382.65971084287	1070.59997558594
1383.30741377688	1071.59997558594
1383.95503310381	1068.40002441406
1384.60256883121	1069.19995117188
1385.25002096667	1070.59997558594
1385.89738951775	1083.19995117188
1386.54467449204	1084.80004882813
1387.19187589709	1078.40002441406
1387.8389937405	1072
1388.48602802982	1073
1389.13297877262	1076.80004882813
1389.77984597649	1074.19995117188
1390.42662964899	1079.40002441406
1391.07332979768	1074.80004882813
1391.71994643015	1071
1392.36647955395	1073.59997558594
1393.01292917667	1069.19995117188
1393.65929530586	1077.80004882813
1394.3055779491	1074.80004882813
1394.95177711395	1077.40002441406
1395.59789280799	1078.19995117188
1396.24392503877	1072.40002441406
1396.88987381387	1072.19995117188
1397.53573914086	1074.19995117188
1398.1815210273	1071.59997558594
1398.82721948075	1074.80004882813
1399.47283450878	1071.80004882813
1400.11836611897	1070.59997558594
1400.76381431886	1073.40002441406
1401.40917911603	1070
1402.05446051805	1064.40002441406
1402.69965853247	1064
1403.34477316686	1069.40002441406
1403.98980442878	1070.80004882813
1404.6347523258	1071.40002441406
1405.27961686548	1070.59997558594
1405.92439805538	1075.59997558594
1406.56909590306	1073.40002441406
1407.21371041608	1068.19995117188
1407.85824160202	1067.59997558594
1408.50268946841	1067.40002441406
1409.14705402284	1062.59997558594
1409.79133527285	1071.19995117188
1410.43553322601	1071.19995117188
1411.07964788987	1073.59997558594
1411.723679272	1081.40002441406
1412.36762737996	1067.40002441406
1413.01149222129	1062.59997558594
1413.65527380357	1068
1414.29897213435	1064.40002441406
1414.94258722118	1066.80004882813
1415.58611907163	1059.40002441406
1416.22956769325	1062.40002441406
1416.87293309359	1062.19995117188
1417.51621528021	1064.59997558594
1418.15941426067	1075.80004882813
1418.80253004253	1078.40002441406
1419.44556263333	1084.80004882813
1420.08851204063	1066.19995117188
1420.731378272	1078.59997558594
1421.37416133497	1077.40002441406
1422.0168612371	1067
1422.65947798596	1072
1423.30201158908	1071.59997558594
1423.94446205403	1071.19995117188
1424.58682938835	1072.80004882813
1425.2291135996	1068.59997558594
1425.87131469532	1073.80004882813
1426.51343268308	1071.80004882813
1427.15546757042	1074.40002441406
1427.79741936488	1068.80004882813
1428.43928807403	1077
1429.0810737054	1078
1429.72277626656	1069.40002441406
1430.36439576504	1075.80004882813
1431.00593220841	1081.19995117188
1431.64738560419	1081.59997558594
1432.28875595995	1079.80004882813
1432.93004328324	1074.80004882813
1433.57124758159	1075.59997558594
1434.21236886255	1073
1434.85340713368	1073.40002441406
1435.49436240252	1080.19995117188
1436.13523467661	1084.80004882813
1436.77602396349	1080
1437.41673027073	1076.40002441406
1438.05735360585	1079.40002441406
1438.69789397641	1073.19995117188
1439.33835138994	1077.19995117188
1439.978725854	1073.80004882813
1440.61901737612	1065
1441.25922596385	1068.19995117188
1441.89935162473	1071.19995117188
1442.53939436631	1073
1443.17935419612	1066.80004882813
1443.81923112171	1067
1444.45902515061	1072.80004882813
1445.09873629038	1068
1445.73836454854	1065.59997558594
1446.37790993265	1063.59997558594
1447.01737245024	1064.80004882813
1447.65675210885	1072.19995117188
1448.29604891602	1067.40002441406
1448.93526287928	1062.40002441406
1449.57439400618	1060.40002441406
1450.21344230426	1053.80004882813
1450.85240778105	1055.19995117188
1451.49129044409	1059.59997558594
1452.13009030092	1059
1452.76880735907	1060.80004882813
1453.40744162608	1062.19995117188
1454.04599310949	1070.19995117188
1454.68446181683	1075
1455.32284775564	1071.59997558594
1455.96115093345	1073.80004882813
1456.5993713578	1066.59997558594
1457.23750903623	1058
1457.87556397626	1069.59997558594
1458.51353618543	1056.80004882813
1459.15142567127	1060.40002441406
1459.78923244132	1063.19995117188
1460.42695650311	1055
1461.06459786417	1069
1461.70215653203	1059
1462.33963251423	1072.40002441406
1462.97702581829	1066.59997558594
1463.61433645175	1075.19995117188
1464.25156442214	1063.59997558594
1464.88870973699	1066.40002441406
1465.52577240382	1063.19995117188
1466.16275243017	1056.80004882813
1466.79964982356	1061.40002441406
1467.43646459154	1061.19995117188
1468.07319674161	1059.80004882813
1468.70984628132	1058.59997558594
1469.34641321818	1055.40002441406
1469.98289755974	1063.40002441406
1470.6192993135	1061.80004882813
1471.25561848701	1061
1471.89185508779	1068
1472.52800912336	1058.80004882813
1473.16408060124	1056.40002441406
1473.80006952897	1064
1474.43597591407	1065.19995117188
1475.07179976406	1054.19995117188
1475.70754108647	1054
1476.34319988883	1060.19995117188
1476.97877617865	1063.40002441406
1477.61426996345	1060.59997558594
1478.24968125077	1064.19995117188
1478.88501004812	1070
1479.52025636303	1074.80004882813
1480.15542020302	1068.40002441406
1480.79050157561	1073.40002441406
1481.42550048832	1066.59997558594
1482.06041694867	1065.19995117188
1482.69525096418	1068.59997558594
1483.33000254237	1060.80004882813
1483.96467169077	1066.40002441406
1484.59925841689	1057.59997558594
1485.23376272825	1065.59997558594
1485.86818463237	1065.80004882813
1486.50252413677	1066.40002441406
1487.13678124896	1065
1487.77095597646	1070
1488.4050483268	1068
1489.03905830749	1068.19995117188
1489.67298592604	1075.59997558594
1490.30683118996	1074.19995117188
1490.9405941068	1076.40002441406
1491.57427468403	1070.19995117188
1492.2078729292	1067
1492.84138884981	1071.59997558594
1493.47482245338	1067
1494.10817374742	1074.80004882813
1494.74144273944	1068.80004882813
1495.37462943696	1071.80004882813
1496.0077338475	1078.40002441406
1496.64075597856	1071.80004882813
1497.27369583765	1073
1497.9065534323	1073.80004882813
1498.53932877001	1076.80004882813
1499.17202185829	1084.19995117188
1499.80463270465	1087
1500.43716131661	1092
1501.06960770167	1087.59997558594
1501.70197186735	1084.59997558594
1502.33425382116	1090.40002441406
1502.96645357059	1090.40002441406
1503.59857112317	1090.19995117188
1504.23060648641	1092.40002441406
1504.8625596678	1089.40002441406
1505.49443067486	1091
1506.1262195151	1094.40002441406
1506.75792619602	1103.59997558594
1507.38955072513	1100.40002441406
1508.02109310993	1097.40002441406
1508.65255335794	1106.80004882813
1509.28393147666	1092.80004882813
1509.91522747359	1104.59997558594
1510.54644135624	1103.80004882813
1511.17757313212	1099.59997558594
1511.80862280872	1097.19995117188
1512.43959039356	1086.80004882813
1513.07047589413	1095.80004882813
1513.70127931795	1095.59997558594
1514.33200067251	1087.59997558594
1514.96263996531	1084.40002441406
1515.59319720386	1084
1516.22367239567	1086.40002441406
1516.85406554822	1085.80004882813
1517.48437666903	1079.80004882813
1518.1146057656	1079.59997558594
1518.74475284542	1077
1519.374817916	1073
1520.00480098483	1071.19995117188
1520.63470205942	1068
1521.26452114726	1066.59997558594
1521.89425825586	1073.59997558594
1522.52391339271	1063.80004882813
1523.15348656531	1057.40002441406
1523.78297778116	1063.59997558594
1524.41238704775	1063.40002441406
1525.04171437259	1068.59997558594
1525.67095976317	1069.19995117188
1526.30012322699	1063.59997558594
1526.92920477154	1072.19995117188
1527.55820440432	1072.40002441406
1528.18712213283	1067
1528.81595796455	1064.59997558594
1529.44471190699	1056.19995117188
1530.07338396764	1061
1530.70197415399	1059.19995117188
1531.33048247353	1062.19995117188
1531.95890893377	1061.80004882813
1532.58725354219	1056.40002441406
1533.21551630629	1067.80004882813
1533.84369723356	1065.19995117188
1534.47179633148	1065.80004882813
1535.09981360757	1070
1535.72774906929	1071.19995117188
1536.35560272415	1064.59997558594
1536.98337457963	1064.19995117188
1537.61106464323	1056.19995117188
1538.23867292243	1062.80004882813
1538.86619942473	1059.80004882813
1539.49364415762	1047.80004882813
1540.12100712857	1050.59997558594
1540.74828834509	1052.59997558594
1541.37548781466	1052
1542.00260554478	1049.80004882813
1542.62964154291	1056
1543.25659581655	1060.59997558594
1543.8834683732	1054.19995117188
1544.51025922034	1056.59997558594
1545.13696836544	1055.19995117188
1545.76359581601	1056.80004882813
1546.39014157952	1054.80004882813
1547.01660566345	1048.59997558594
1547.64298807531	1054.59997558594
1548.26928882255	1047.40002441406
1548.89550791269	1046.59997558594
1549.52164535318	1046.80004882813
1550.14770115153	1044.40002441406
1550.77367531521	1041.40002441406
1551.39956785171	1039
1552.0253787685	1043.80004882813
1552.65110807307	1046.19995117188
1553.2767557729	1049.59997558594
1553.90232187548	1047.59997558594
1554.52780638828	1048.40002441406
1555.15320931879	1048.59997558594
1555.77853067447	1048.59997558594
1556.40377046282	1047.40002441406
1557.02892869132	1044.80004882813
1557.65400536744	1047.40002441406
1558.27900049866	1050
1558.90391409247	1049.59997558594
1559.52874615633	1050.80004882813
1560.15349669773	1054.40002441406
1560.77816572414	1054.59997558594
1561.40275324305	1052
1562.02725926192	1049.40002441406
1562.65168378824	1050.59997558594
1563.27602682948	1047.40002441406
1563.90028839311	1050.19995117188
1564.52446848662	1053
1565.14856711748	1057.80004882813
1565.77258429316	1057.59997558594
1566.39652002113	1061
1567.02037430887	1050.80004882813
1567.64414716387	1056
1568.26783859357	1056.40002441406
1568.89144860547	1055.80004882813
1569.51497720703	1054.80004882813
1570.13842440573	1060.19995117188
1570.76179020904	1051.40002441406
1571.38507462442	1052.59997558594
1572.00827765936	1049.59997558594
1572.63139932132	1051.80004882813
1573.25443961777	1048.40002441406
1573.87739855618	1052.59997558594
1574.50027614402	1055.80004882813
1575.12307238877	1053.80004882813
1575.74578729789	1059.59997558594
1576.36842087885	1055
1576.99097313912	1048.59997558594
1577.61344408616	1057.19995117188
1578.23583372745	1050.80004882813
1578.85814207046	1054.40002441406
1579.48036912264	1043.80004882813
1580.10251489147	1038.80004882813
1580.72457938441	1032
1581.34656260893	1035.80004882813
1581.9684645725	1033.19995117188
1582.59028528258	1036.19995117188
1583.21202474663	1036.40002441406
1583.83368297212	1038.80004882813
1584.45525996652	1038.59997558594
1585.07675573728	1034
1585.69817029188	1029.40002441406
1586.31950363778	1029.40002441406
1586.94075578243	1030.40002441406
1587.5619267333	1025.59997558594
1588.18301649786	1030.59997558594
1588.80402508357	1026
1589.42495249788	1033.80004882813
1590.04579874826	1037.59997558594
1590.66656384217	1029.40002441406
1591.28724778707	1035.40002441406
1591.90785059042	1027.59997558594
1592.52837225968	1030
1593.14881280232	1031
1593.76917222578	1032.40002441406
1594.38945053753	1032.19995117188
1595.00964774502	1036.80004882813
1595.62976385573	1045.59997558594
1596.24979887709	1040
1596.86975281657	1036
1597.48962568164	1033.59997558594
1598.10941747974	1043
1598.72912821832	1034.40002441406
1599.34875790486	1046.80004882813
1599.9683065468	1041.40002441406
1600.58777415159	1040.59997558594
1601.2071607267	1037.59997558594
1601.82646627958	1035.80004882813
1602.44569081769	1034.19995117188
1603.06483434846	1035
1603.68389687937	1038
1604.30287841786	1038.80004882813
1604.92177897139	1036.80004882813
1605.54059854741	1038
1606.15933715337	1035.80004882813
1606.77799479672	1026.59997558594
1607.39657148492	1031.40002441406
1608.01506722542	1035.40002441406
1608.63348202566	1040.59997558594
1609.2518158931	1028.59997558594
1609.87006883519	1033.40002441406
1610.48824085939	1031.19995117188
1611.10633197312	1031.59997558594
1611.72434218386	1037.19995117188
1612.34227149904	1037.59997558594
1612.96011992612	1036.40002441406
1613.57788747254	1037.19995117188
1614.19557414575	1033.80004882813
1614.8131799532	1032.19995117188
1615.43070490234	1028.80004882813
1616.04814900061	1038.40002441406
1616.66551225545	1038.80004882813
1617.28279467433	1038.80004882813
1617.89999626467	1039.59997558594
1618.51711703393	1034.80004882813
1619.13415698955	1039.40002441406
1619.75111613898	1031.80004882813
1620.36799448966	1035
1620.98479204903	1034
1621.60150882455	1025
1622.21814482364	1030
1622.83470005376	1034.40002441406
1623.45117452235	1031.59997558594
1624.06756823685	1036
1624.6838812047	1031.80004882813
1625.30011343335	1032.80004882813
1625.91626493022	1031.40002441406
1626.53233570278	1029.40002441406
1627.14832575845	1023.79998779297
1627.76423510468	1017.20001220703
1628.38006374891	1023.20001220703
1628.99581169857	1024.59997558594
1629.61147896111	1021.79998779297
1630.22706554397	1022.40002441406
1630.84257145457	1020.40002441406
1631.45799670038	1029
1632.07334128881	1027.59997558594
1632.6886052273	1021.40002441406
1633.3037885233	1016
1633.91889118425	1017.59997558594
1634.53391321757	1016.40002441406
1635.1488546307	1005.59997558594
1635.76371543108	1016.20001220703
1636.37849562616	1018.40002441406
1636.99319522335	1021.20001220703
1637.60781423009	1017
1638.22235265383	1014.20001220703
1638.83681050198	1021.20001220703
1639.451187782	1017
1640.0654845013	1017
1640.67970066734	1016.20001220703
1641.29383628752	1018.20001220703
1641.9078913693	1013.59997558594
1642.5218659201	1019
1643.13575994735	1015
1643.74957345849	1012
1644.36330646094	1024.80004882813
1644.97695896213	1022.59997558594
1645.59053096951	1030.40002441406
1646.20402249049	1032
1646.8174335325	1029.19995117188
1647.43076410298	1029.59997558594
1648.04401420935	1035.19995117188
1648.65718385905	1043.40002441406
1649.2702730595	1037.19995117188
1649.88328181812	1041.40002441406
1650.49621014236	1041.40002441406
1651.10905803963	1040.80004882813
1651.72182551735	1042
1652.33451258297	1037.19995117188
1652.9471192439	1033.40002441406
1653.55964550757	1037.80004882813
1654.1720913814	1029.80004882813
1654.78445687283	1031.19995117188
1655.39674198926	1033
1656.00894673814	1023
1656.62107112688	1019.40002441406
1657.23311516291	1013.79998779297
1657.84507885365	1016.59997558594
1658.45696220652	1018.40002441406
1659.06876522895	1014
1659.68048792835	1002
1660.29213031217	1002.79998779297
1660.90369238779	1001.20001220703
1661.51517416267	1000.40002441406
1662.12657564421	1002.40002441406
1662.73789683984	1006.40002441406
1663.34913775697	999.200012207031
1663.96029840303	998.799987792969
1664.57137878544	997.200012207031
1665.18237891161	997.200012207031
1665.79329878897	991.599975585938
1666.40413842493	989
1667.01489782691	990.400024414063
1667.62557700233	988.799987792969
1668.2361759586	986
1668.84669470315	985.400024414063
1669.4571332434	988
1670.06749158675	987.200012207031
1670.67776974062	986.799987792969
1671.28796771243	989.599975585938
1671.8980855096	988.400024414063
1672.50812313954	991.200012207031
1673.11808060967	998.599975585938
1673.72795792739	996
1674.33775510013	991.599975585938
1674.9474721353	985.400024414063
1675.55710904031	987.200012207031
1676.16666582257	985.599975585938
1676.7761424895	983.799987792969
1677.38553904851	980.400024414063
1677.99485550702	986.599975585938
1678.60409187243	983.400024414063
1679.21324815215	983.400024414063
1679.8223243536	978.400024414063
1680.43132048419	983.599975585938
1681.04023655132	983.799987792969
1681.64907256241	983.799987792969
1682.25782852487	983
1682.86650444611	987.400024414063
1683.47510033353	989.200012207031
1684.08361619455	986.599975585938
1684.69205203657	984.200012207031
1685.300407867	989.799987792969
1685.90868369325	981
1686.51687952272	980.400024414063
1687.12499536283	977
1687.73303122098	981.599975585938
1688.34098710457	978.400024414063
1688.94886302101	975.799987792969
1689.55665897772	980.400024414063
1690.16437498208	974.599975585938
1690.77201104152	976.599975585938
1691.37956716342	980.599975585938
1691.9870433552	974.200012207031
1692.59443962426	974.799987792969
1693.20175597801	969.799987792969
1693.80899242384	971.200012207031
1694.41614896916	969
1695.02322562138	976
1695.63022238789	975
1696.23713927609	968.400024414063
1696.8439762934	966.599975585938
1697.4507334472	968.400024414063
1698.05741074491	968.799987792969
1698.66400819391	974
1699.27052580161	975.400024414063
1699.87696357542	973.400024414063
1700.48332152272	976.799987792969
1701.08959965092	975.799987792969
1701.69579796742	976.799987792969
1702.30191647962	977.799987792969
1702.90795519491	974.200012207031
1703.51391412069	971.400024414063
1704.11979326437	977.799987792969
1704.72559263332	974.200012207031
1705.33131223496	977
1705.93695207668	969.400024414063
1706.54251216588	972.799987792969
1707.14799250994	976
1707.75339311628	966.799987792969
1708.35871399227	969.400024414063
1708.96395514532	968.599975585938
1709.56911658282	975
