634.948122577771	1177.19995117188
635.690341530823	1189
636.43246851086	1185.40002441406
637.174503525845	1188
637.916446583745	1181.80004882813
638.658297692538	1181.59997558594
639.400056860179	1180.19995117188
640.141724094637	1188.80004882813
640.883299403885	1178
641.62478279588	1185.40002441406
642.366174278594	1183.59997558594
643.107473859989	1181
643.848681548029	1181.59997558594
644.589797350679	1182.19995117188
645.330821275901	1168.59997558594
646.071753331665	1170
646.812593525922	1172.19995117188
647.553341866646	1172.40002441406
648.293998361798	1183.19995117188
649.03456301933	1197.40002441406
649.775035847216	1198.59997558594
650.515416853409	1201.80004882813
651.255706045874	1200.19995117188
651.995903432568	1184.80004882813
652.736009021453	1182.19995117188
653.476022820486	1177.19995117188
654.215944837629	1184.80004882813
654.955775080842	1184
655.695513558081	1185.40002441406
656.435160277301	1193.19995117188
657.174715246465	1189
657.914178473527	1207.19995117188
658.653549966449	1203.19995117188
659.392829733176	1205
660.132017781678	1207.40002441406
660.871114119901	1219.59997558594
661.610118755803	1208.80004882813
662.349031697343	1202.59997558594
663.087852952468	1198
663.826582529139	1193.59997558594
664.565220435305	1187
665.30376667892	1179.59997558594
666.04222126794	1185.40002441406
666.780584210316	1189.80004882813
667.518855514	1197.19995117188
668.25703518694	1193
668.995123237096	1200
669.733119672413	1202.19995117188
670.471024500842	1199.19995117188
671.208837730333	1196.40002441406
671.946559368839	1206
672.684189424308	1206
673.421727904689	1198.80004882813
674.159174817929	1195
674.896530171977	1208
675.633793974786	1197.40002441406
676.370966234295	1202
677.108046958461	1198
677.845036155219	1201.40002441406
678.581933832528	1212
679.318739998323	1215.40002441406
680.055454660558	1213.40002441406
680.792077827172	1226.40002441406
681.528609506116	1208
682.265049705331	1200.19995117188
683.001398432759	1195.40002441406
683.737655696349	1195
684.47382150404	1199.40002441406
685.20989586378	1195.40002441406
685.945878783503	1208.80004882813
686.68177027116	1203.40002441406
687.417570334688	1210.80004882813
688.153278982032	1205.59997558594
688.888896221129	1209.59997558594
689.624422059921	1193.80004882813
690.359856506349	1194.19995117188
691.095199568354	1194.59997558594
691.830451253874	1178.19995117188
692.565611570844	1177.80004882813
693.300680527212	1183.19995117188
694.03565813091	1192.80004882813
694.770544389877	1201.40002441406
695.505339312053	1205.40002441406
696.240042905372	1203.80004882813
696.974655177772	1203.80004882813
697.70917613719	1204.19995117188
698.443605791561	1215.59997558594
699.177944148826	1203.80004882813
699.912191216909	1215.19995117188
700.646347003755	1215.40002441406
701.380411517295	1212.40002441406
702.114384765465	1222
702.848266756195	1205.19995117188
703.582057497421	1216.59997558594
704.315756997074	1218
705.049365263089	1206
705.782882303399	1203.40002441406
706.516308125936	1202.80004882813
707.249642738626	1210.80004882813
707.982886149403	1204
708.716038366204	1206.80004882813
709.449099396949	1205.19995117188
710.182069249577	1205.19995117188
710.914947932009	1210
711.647735452181	1213.80004882813
712.380431818022	1211
713.113037037454	1211.19995117188
713.845551118411	1216.40002441406
714.577974068818	1215.59997558594
715.310305896604	1216.19995117188
716.042546609694	1224.19995117188
716.774696216013	1231
717.506754723493	1215.40002441406
718.238722140053	1206.59997558594
718.970598473624	1198.59997558594
719.702383732127	1201
720.43407792349	1204.59997558594
721.165681055634	1202.80004882813
721.897193136486	1208
722.628614173966	1208.19995117188
723.359944175997	1201.40002441406
724.091183150505	1202
724.822331105412	1197.40002441406
725.553388048638	1196.19995117188
726.284353988106	1206.59997558594
727.015228931734	1200.40002441406
727.746012887449	1209.40002441406
728.476705863162	1205.80004882813
729.207307866803	1206.59997558594
729.937818906289	1218.80004882813
730.668238989535	1214.40002441406
731.398568124459	1222.19995117188
732.128806318986	1220.19995117188
732.858953581034	1222.80004882813
733.589009918514	1210
734.318975339348	1217.19995117188
735.048849851452	1221
735.778633462744	1217.40002441406
736.508326181137	1219.40002441406
737.237928014549	1206.59997558594
737.967438970897	1212.59997558594
738.696859058095	1208.59997558594
739.426188284054	1204.80004882813
740.155426656692	1199
740.884574183922	1205.80004882813
741.613630873659	1206
742.342596733815	1213
743.071471772302	1211.19995117188
743.800255997034	1217.59997558594
744.528949415921	1209.19995117188
745.257552036877	1209.19995117188
745.986063867811	1207
746.714484916638	1213.40002441406
747.442815191261	1206.19995117188
748.171054699597	1218.80004882813
748.899203449554	1211.19995117188
749.627261449039	1212.40002441406
750.355228705966	1203.80004882813
751.083105228239	1211.40002441406
751.810891023765	1209.19995117188
752.538586100459	1219
753.266190466218	1223
753.99370412896	1217.59997558594
754.721127096582	1203.19995117188
755.448459377	1208
756.175700978114	1204.59997558594
756.902851907828	1217.19995117188
757.629912174055	1219.19995117188
758.356881784688	1218.80004882813
759.083760747639	1227.59997558594
759.810549070817	1223.80004882813
760.537246762113	1225.19995117188
761.263853829442	1233.59997558594
761.990370280698	1230.80004882813
762.716796123791	1230.59997558594
763.443131366618	1239.40002441406
764.169376017082	1238
764.895530083085	1237.80004882813
765.621593572527	1238.40002441406
766.347566493312	1240
767.073448853336	1247.80004882813
767.799240660502	1253.59997558594
768.524941922707	1259
769.250552647854	1264.19995117188
769.976072843836	1266
770.701502518551	1268.40002441406
771.426841679905	1281.59997558594
772.152090335793	1295
772.877248494107	1291.80004882813
773.602316162747	1302.19995117188
774.327293349609	1293.80004882813
775.052180062592	1285
775.776976309589	1272.80004882813
776.501682098496	1266.19995117188
777.226297437206	1247.80004882813
777.950822333616	1251.80004882813
778.675256795621	1245.59997558594
779.399600831111	1237.80004882813
780.123854447983	1243.59997558594
780.84801765413	1238.80004882813
781.572090457441	1234.59997558594
782.296072865811	1217.40002441406
783.019964887131	1218
783.743766529297	1212.59997558594
784.467477800194	1219.80004882813
785.191098707719	1219.80004882813
785.914629259756	1239.40002441406
786.638069464194	1238
787.361419328932	1228.80004882813
788.084678861852	1221.59997558594
788.807848070845	1226.59997558594
789.530926963798	1222.80004882813
790.253915548602	1225.40002441406
790.976813833144	1215.19995117188
791.699621825307	1210.59997558594
792.422339532986	1217.40002441406
793.144966964061	1223.19995117188
793.86750412642	1223.80004882813
794.589951027946	1216.80004882813
795.312307676536	1228.40002441406
796.03457408006	1215.59997558594
796.756750246417	1214.19995117188
797.478836183477	1224
798.200831899137	1221
798.92273740127	1218.59997558594
799.644552697769	1206.80004882813
800.36627779651	1208.40002441406
801.087912705374	1214.40002441406
801.809457432251	1212.59997558594
802.530911985017	1212.19995117188
803.252276371558	1222.19995117188
803.973550599748	1230
804.694734677472	1229.59997558594
805.415828612611	1214.80004882813
806.136832413045	1225
806.857746086646	1221.19995117188
807.578569641305	1208
808.299303084892	1206.59997558594
809.019946425289	1207
809.740499670372	1208.40002441406
810.460962828022	1213
811.181335906114	1223.59997558594
811.901618912524	1212.80004882813
812.621811855131	1209.40002441406
813.341914741809	1221.40002441406
814.061927580433	1213
814.781850378881	1212.59997558594
815.501683145025	1206.19995117188
816.221425886743	1205.80004882813
816.941078611903	1217
817.660641328387	1210.40002441406
818.380114044065	1218.59997558594
819.099496766808	1226.59997558594
819.818789504492	1222.80004882813
820.53799226499	1222.40002441406
821.257105056168	1225.40002441406
821.976127885904	1228.40002441406
822.695060762064	1213.59997558594
823.413903692525	1211.80004882813
824.132656685151	1210
824.851319747817	1212.40002441406
825.569892888388	1223.80004882813
826.288376114739	1217
827.006769434737	1216.59997558594
827.725072856249	1216.40002441406
828.443286387142	1212.59997558594
829.161410035285	1219
829.87944380855	1219.40002441406
830.597387714798	1219.19995117188
831.315241761898	1216.80004882813
832.033005957715	1214.59997558594
832.750680310119	1211.40002441406
833.468264826969	1205.59997558594
834.18575951614	1204.80004882813
834.903164385486	1211.40002441406
835.620479442878	1210.19995117188
836.337704696181	1205.59997558594
837.054840153255	1221.19995117188
837.771885821962	1211.40002441406
838.488841710172	1222.80004882813
839.20570782574	1219.80004882813
839.922484176531	1227.59997558594
840.639170770409	1224.80004882813
841.355767615231	1217
842.072274718864	1219
842.788692089164	1208.59997558594
843.505019733993	1205.59997558594
844.221257661209	1205.40002441406
844.937405878676	1199.59997558594
845.65346439425	1212.19995117188
846.369433215789	1208.19995117188
847.085312351156	1207.40002441406
847.801101808205	1203.59997558594
848.516801594793	1211.19995117188
849.232411718781	1208.19995117188
849.947932188021	1208.19995117188
850.663363010376	1216.59997558594
851.378704193698	1199.80004882813
852.093955745842	1210.59997558594
852.809117674669	1212.59997558594
853.524189988028	1203.59997558594
854.239172693778	1206.19995117188
854.954065799768	1196.19995117188
855.668869313857	1216.40002441406
856.383583243899	1208.59997558594
857.098207597743	1212
857.812742383246	1217.19995117188
858.527187608255	1204.59997558594
859.241543280628	1215
859.955809408218	1210.19995117188
860.669985998868	1208.80004882813
861.384073060437	1212
862.098070600772	1199.19995117188
862.811978627724	1202.19995117188
863.52579714914	1196.19995117188
864.239526172873	1204.40002441406
864.953165706776	1203.80004882813
865.666715758687	1211.40002441406
866.380176336464	1213.19995117188
867.093547447951	1210
867.806829100996	1210.40002441406
868.520021303444	1202.59997558594
869.233124063149	1201
869.94613738795	1199.80004882813
870.659061285693	1188.40002441406
871.37189576423	1200.40002441406
872.084640831403	1205.59997558594
872.797296495057	1197.59997558594
873.509862763039	1198.80004882813
874.22233964319	1203.40002441406
874.934727143353	1195.40002441406
875.647025271374	1201.80004882813
876.359234035097	1198.40002441406
877.071353442361	1192
877.783383501015	1194
878.495324218895	1195.40002441406
879.207175603844	1205.59997558594
879.918937663705	1183.19995117188
880.630610406318	1203.40002441406
881.342193839524	1197
882.053687971161	1208.19995117188
882.765092809069	1197.59997558594
883.476408361091	1202.59997558594
884.187634635066	1210.80004882813
884.898771638828	1205
885.609819380221	1196
886.320777867076	1206.59997558594
887.031647107236	1206.59997558594
887.742427108536	1194
888.453117878816	1193.59997558594
889.16371942591	1200.80004882813
889.874231757652	1196.19995117188
890.584654881883	1196.59997558594
891.294988806434	1195.19995117188
892.005233539141	1194.80004882813
892.715389087837	1193.59997558594
893.42545546036	1207.80004882813
894.135432664543	1199.80004882813
894.845320708216	1196.59997558594
895.555119599216	1215.19995117188
896.264829345375	1210.40002441406
896.974449954526	1213.80004882813
897.683981434496	1218.40002441406
898.393423793125	1213.19995117188
899.102777038235	1213.59997558594
899.812041177664	1197.40002441406
900.521216219239	1217.80004882813
901.230302170793	1217.80004882813
901.939299040155	1213.40002441406
902.64820683515	1204.19995117188
903.357025563612	1218.59997558594
904.065755233368	1212.80004882813
904.774395852247	1215
905.482947428076	1210.59997558594
906.191409968682	1203.59997558594
906.899783481897	1194.40002441406
907.608067975538	1195.80004882813
908.316263457443	1204.80004882813
909.02436993543	1206.80004882813
909.732387417327	1210.40002441406
910.440315910959	1207
911.148155424154	1208
911.855905964731	1220.19995117188
912.563567540521	1215.80004882813
913.271140159339	1214.80004882813
913.978623829017	1212.19995117188
914.686018557374	1209.59997558594
915.393324352237	1211.40002441406
916.100541221421	1208.19995117188
916.807669172752	1216.59997558594
917.514708214054	1216.59997558594
918.221658353142	1208.19995117188
918.928519597843	1206.40002441406
919.635291955976	1204.59997558594
920.341975435358	1217.19995117188
921.048570043813	1216.40002441406
921.75507578916	1219.40002441406
922.461492679212	1204.59997558594
923.167820721795	1208.59997558594
923.874059924726	1207.40002441406
924.58021029582	1206.80004882813
925.286271842893	1206.19995117188
925.992244573769	1216.59997558594
926.698128496262	1213.40002441406
927.403923618184	1221.59997558594
928.109629947355	1219.59997558594
928.815247491593	1229
929.520776258708	1216
930.226216256519	1214.19995117188
930.931567492841	1212.19995117188
931.636829975482	1200.19995117188
932.342003712263	1210.59997558594
933.047088710995	1203.19995117188
933.752084979491	1216.59997558594
934.456992525564	1209.80004882813
935.161811357024	1218.40002441406
935.866541481688	1211
936.571182907363	1209
937.275735641861	1202.40002441406
937.980199692995	1202.59997558594
938.684575068572	1210.19995117188
939.388861776411	1212.40002441406
940.093059824311	1205.40002441406
940.797169220085	1201.80004882813
941.501189971544	1201.19995117188
942.205122086495	1198.40002441406
942.908965572751	1195.40002441406
943.612720438111	1199.59997558594
944.316386690391	1194.59997558594
945.019964337391	1192.80004882813
945.723453386924	1190.40002441406
946.426853846795	1188.59997558594
947.130165724808	1194.59997558594
947.83338902877	1188.59997558594
948.536523766488	1193.80004882813
949.239569945764	1197.40002441406
949.942527574402	1204.80004882813
950.64539666021	1200
951.348177210993	1194.40002441406
952.050869234548	1183.40002441406
952.753472738683	1182.80004882813
953.455987731199	1195.19995117188
954.158414219898	1184.80004882813
954.860752212587	1192
955.563001717061	1199.80004882813
956.265162741124	1199.80004882813
956.967235292576	1198
957.669219379224	1196.59997558594
958.371115008857	1189.80004882813
959.072922189283	1186.19995117188
959.774640928301	1194.59997558594
960.476271233708	1186.19995117188
961.177813113301	1190.80004882813
961.879266574882	1187.19995117188
962.580631626248	1181.19995117188
963.281908275194	1183
963.98309652952	1183.40002441406
964.684196397022	1187.19995117188
965.3852078855	1195.80004882813
966.086131002745	1194.80004882813
966.786965756555	1199.59997558594
967.487712154726	1188.80004882813
968.188370205055	1193.19995117188
968.888939915331	1193
969.589421293352	1190.40002441406
970.289814346909	1188
970.990119083801	1189
971.690335511819	1188
972.39046363875	1185
973.090503472398	1184.80004882813
973.790455020545	1183.40002441406
974.490318290987	1188.40002441406
975.190093291516	1185.40002441406
975.889780029923	1183.80004882813
976.589378513998	1184.59997558594
977.288888751527	1194
977.988310750308	1192.19995117188
978.687644518122	1185.19995117188
979.386890062767	1190.40002441406
980.086047392025	1203
980.785116513689	1198.59997558594
981.484097435542	1200.40002441406
982.182990165377	1194.59997558594
982.88179471098	1192.19995117188
983.580511080137	1187.59997558594
984.279139280632	1182.59997558594
984.977679320253	1187.80004882813
985.67613120679	1185.59997558594
986.374494948027	1187
987.072770551745	1192.80004882813
987.770958025731	1184.40002441406
988.469057377772	1198.59997558594
989.167068615649	1192.19995117188
989.864991747145	1186.19995117188
990.562826780047	1191.80004882813
991.260573722134	1182.80004882813
991.958232581195	1176.19995117188
992.655803365003	1187
993.353286081346	1178.80004882813
994.050680738006	1183.40002441406
994.74798734276	1191
995.44520590339	1190.40002441406
996.142336427681	1189.80004882813
996.839378923407	1175.19995117188
997.536333398348	1180
998.233199860289	1185.19995117188
998.929978317004	1191.80004882813
999.626668776274	1186.80004882813
1000.32327124587	1178.40002441406
1001.01978573359	1170.19995117188
1001.71621224718	1181.80004882813
1002.41255079445	1178.40002441406
1003.10880138315	1178
1003.80496402107	1175.80004882813
1004.50103871599	1178
1005.19702547567	1187
1005.8929243079	1231.40002441406
1006.58873522045	1192.19995117188
1007.2844582211	1184.59997558594
1007.98009331761	1181.59997558594
1008.67564051776	1177
1009.37109982933	1172.40002441406
1010.06647126009	1184.19995117188
1010.7617548178	1177.80004882813
1011.45695051026	1180
1012.15205834522	1189
1012.84707833045	1187.19995117188
1013.54201047373	1191.19995117188
1014.23685478284	1194.80004882813
1014.93161126553	1188.40002441406
1015.62627992959	1185.40002441406
1016.32086078277	1195.80004882813
1017.01535383285	1197.80004882813
1017.70975908761	1193.40002441406
1018.40407655479	1197
1019.09830624219	1192.59997558594
1019.79244815755	1187.59997558594
1020.48650230866	1191.40002441406
1021.18046870328	1184.59997558594
1021.87434734917	1188.40002441406
1022.56813825411	1183.19995117188
1023.26184142584	1182.19995117188
1023.95545687216	1195.40002441406
1024.64898460082	1186.59997558594
1025.34242461957	1187.80004882813
1026.0357769362	1185.80004882813
1026.72904155846	1189
1027.42221849412	1187
1028.11530775094	1191
1028.80830933668	1184
1029.50122325911	1179
1030.19404952599	1181.40002441406
1030.88678814508	1188.19995117188
1031.57943912414	1190
1032.27200247093	1190
1032.96447819323	1177.80004882813
1033.65686629878	1180.19995117188
1034.34916679534	1180.40002441406
1035.04137969068	1177.19995117188
1035.73350499256	1175.80004882813
1036.42554270874	1183.80004882813
1037.11749284697	1186.40002441406
1037.80935541501	1188.59997558594
1038.50113042062	1183.40002441406
1039.19281787156	1171
1039.88441777559	1169.80004882813
1040.57593014046	1165.59997558594
1041.26735497393	1179.40002441406
1041.95869228376	1172.19995117188
1042.6499420777	1181.59997558594
1043.3411043635	1180.19995117188
1044.03217914893	1181.19995117188
1044.72316644174	1178.19995117188
1045.41406624968	1177.40002441406
1046.1048785805	1178.40002441406
1046.79560344197	1180
1047.48624084182	1182.19995117188
1048.17679078783	1180.19995117188
1048.86725328774	1175
1049.55762834929	1170.40002441406
1050.24791598025	1180.80004882813
1050.93811618837	1176
1051.62822898139	1177.19995117188
1052.31825436707	1176.80004882813
1053.00819235315	1185.40002441406
1053.6980429474	1182.19995117188
1054.38780615755	1182
1055.07748199136	1181.40002441406
1055.76707045658	1176
1056.45657156095	1167.59997558594
1057.14598531222	1174
1057.83531171814	1169
1058.52455078646	1169.80004882813
1059.21370252494	1171.40002441406
1059.90276694129	1176.19995117188
1060.5917440433	1167.40002441406
1061.28063383868	1175.19995117188
1061.9694363352	1176
1062.65815154059	1175.19995117188
1063.34677946261	1179.59997558594
1064.03532010899	1176.40002441406
1064.72377348748	1178
1065.41213960583	1181.40002441406
1066.10041847177	1185
1066.78861009306	1171.80004882813
1067.47671447743	1185.59997558594
1068.16473163263	1182.40002441406
1068.85266156639	1172.19995117188
1069.54050428647	1165.80004882813
1070.2282598006	1173
1070.91592811652	1167.80004882813
1071.60350924198	1162
1072.29100318471	1169.40002441406
1072.97840995245	1172
1073.66572955295	1175.59997558594
1074.35296199394	1163.59997558594
1075.04010728316	1171.19995117188
1075.72716542836	1169.80004882813
1076.41413643726	1159.40002441406
1077.10102031761	1159.59997558594
1077.78781707715	1162.19995117188
1078.4745267236	1161.40002441406
1079.16114926471	1177.80004882813
1079.84768470822	1171
1080.53413306185	1163
1081.22049433336	1169.59997558594
1081.90676853046	1175
1082.5929556609	1178.19995117188
1083.27905573241	1168
1083.96506875272	1178
1084.65099472957	1175.19995117188
1085.3368336707	1178.59997558594
1086.02258558383	1185.40002441406
1086.70825047669	1184.80004882813
1087.39382835703	1184.19995117188
1088.07931923257	1186
1088.76472311104	1178.59997558594
1089.45004000018	1184.80004882813
1090.13526990771	1171.59997558594
1090.82041284137	1169.59997558594
1091.50546880889	1161.80004882813
1092.19043781799	1167.59997558594
1092.87531987642	1160.59997558594
1093.56011499188	1161.59997558594
1094.24482317212	1170
1094.92944442486	1164.80004882813
1095.61397875783	1173
1096.29842617876	1167.40002441406
1096.98278669537	1163.59997558594
1097.6670603154	1161.19995117188
1098.35124704656	1172.80004882813
1099.03534689659	1169.80004882813
1099.71935987322	1167.19995117188
1100.40328598416	1178.19995117188
1101.08712523713	1177.59997558594
1101.77087763988	1176
1102.45454320012	1172.19995117188
1103.13812192557	1169
1103.82161382396	1171.40002441406
1104.50501890301	1166.40002441406
1105.18833717045	1165.40002441406
1105.87156863399	1175.19995117188
1106.55471330137	1182.59997558594
1107.2377711803	1183.40002441406
1107.9207422785	1173.80004882813
1108.60362660369	1165.59997558594
1109.2864241636	1165
1109.96913496594	1171.59997558594
1110.65175901844	1173.59997558594
1111.33429632882	1169.40002441406
1112.01674690479	1170.59997558594
1112.69911075408	1168
1113.38138788439	1162
1114.06357830346	1169.59997558594
1114.745682019	1169.59997558594
1115.42769903872	1165.19995117188
1116.10962937035	1157.40002441406
1116.7914730216	1164.59997558594
1117.47323000018	1164.80004882813
1118.15490031382	1161.40002441406
1118.83648397022	1167.19995117188
1119.51798097712	1165.59997558594
1120.1993913422	1165.80004882813
1120.88071507321	1159.59997558594
1121.56195217784	1162
1122.24310266381	1167.59997558594
1122.92416653884	1177.80004882813
1123.60514381064	1176.40002441406
1124.28603448692	1174
1124.9668385754	1164.19995117188
1125.64755608378	1171
1126.32818701978	1170.40002441406
1127.00873139111	1175.59997558594
1127.68918920548	1169
1128.3695604706	1179.19995117188
1129.04984519419	1169.80004882813
1129.73004338394	1183.19995117188
1130.41015504758	1187.19995117188
1131.09018019281	1182.80004882813
1131.77011882734	1173.40002441406
1132.44997095888	1176.59997558594
1133.12973659514	1179
1133.80941574381	1170.59997558594
1134.48900841263	1166.40002441406
1135.16851460927	1167
1135.84793434147	1166.19995117188
1136.52726761692	1156.80004882813
1137.20651444333	1170.59997558594
1137.8856748284	1158.40002441406
1138.56474877984	1163.40002441406
1139.24373630536	1156
1139.92263741265	1158.19995117188
1140.60145210943	1165.40002441406
1141.28018040339	1160
1141.95882230225	1157
1142.6373778137	1156.59997558594
1143.31584694545	1151.80004882813
1143.99422970519	1156
1144.67252610064	1152.19995117188
1145.35073613949	1151
1146.02885982944	1148.40002441406
1146.7068971782	1147.80004882813
1147.38484819347	1151.40002441406
1148.06271288294	1159
1148.74049125432	1161.40002441406
1149.41818331531	1156.19995117188
1150.0957890736	1160
1150.77330853689	1162.80004882813
1151.45074171289	1169.59997558594
1152.12808860928	1160.59997558594
1152.80534923378	1161.40002441406
1153.48252359407	1157.80004882813
1154.15961169786	1158.40002441406
1154.83661355283	1159.80004882813
1155.51352916669	1155
1156.19035854713	1160.80004882813
1156.86710170185	1159.40002441406
1157.54375863855	1157
1158.22032936491	1157.19995117188
1158.89681388863	1155.80004882813
1159.57321221741	1156.80004882813
1160.24952435894	1156.80004882813
1160.92575032092	1159
1161.60189011103	1157.40002441406
1162.27794373697	1152.59997558594
1162.95391120644	1152.59997558594
1163.62979252712	1154.19995117188
1164.3055877067	1157.59997558594
1164.98129675288	1148.59997558594
1165.65691967336	1154.80004882813
1166.33245647581	1152.40002441406
1167.00790716792	1156.19995117188
1167.6832717574	1150.40002441406
1168.35855025193	1156.40002441406
1169.0337426592	1167.40002441406
1169.70884898689	1168
1170.3838692427	1166
1171.05880343431	1162.40002441406
1171.73365156941	1167.80004882813
1172.40841365569	1152
1173.08308970083	1162.80004882813
1173.75767971253	1164.40002441406
1174.43218369847	1152.59997558594
1175.10660166633	1152.19995117188
1175.7809336238	1146
1176.45517957857	1146.19995117188
1177.12933953832	1144
1177.80341351073	1155.19995117188
1178.47740150349	1150.19995117188
1179.15130352429	1161
1179.8251195808	1167
1180.49884968071	1167
1181.1724938317	1165.80004882813
1181.84605204145	1176.40002441406
1182.51952431766	1180
1183.19291066799	1183.19995117188
1183.86621110013	1182.59997558594
1184.53942562176	1181.59997558594
1185.21255424057	1178.80004882813
1185.88559696422	1179.19995117188
1186.55855380041	1183.80004882813
1187.2314247568	1179.59997558594
1187.90420984109	1176.40002441406
1188.57690906095	1179.59997558594
1189.24952242405	1171.80004882813
1189.92204993808	1175.59997558594
1190.59449161071	1181.80004882813
1191.26684744962	1175.19995117188
1191.93911746249	1167.40002441406
1192.61130165699	1166
1193.28340004081	1153.40002441406
1193.95541262161	1172.19995117188
1194.62733940707	1172.40002441406
1195.29918040487	1161
1195.97093562269	1176.59997558594
1196.64260506819	1166.19995117188
1197.31418874905	1171
1197.98568667295	1170
1198.65709884755	1159.80004882813
1199.32842528053	1164.19995117188
1199.99966597957	1164.59997558594
1200.67082095234	1157
1201.3418902065	1165
1202.01287374974	1172.80004882813
1202.68377158971	1157.19995117188
1203.3545837341	1163.40002441406
1204.02531019057	1160
1204.6959509668	1156.19995117188
1205.36650607045	1161.40002441406
1206.03697550919	1162.59997558594
1206.70735929069	1158.59997558594
1207.37765742263	1161
1208.04786991266	1156
1208.71799676846	1163.40002441406
1209.38803799769	1156.80004882813
1210.05799360803	1155.80004882813
1210.72786360714	1153.40002441406
1211.39764800268	1160.40002441406
1212.06734680233	1160
1212.73696001375	1153.40002441406
1213.4064876446	1148.80004882813
1214.07592970255	1150.19995117188
1214.74528619526	1139.40002441406
1215.4145571304	1141.40002441406
1216.08374251564	1141.19995117188
1216.75284235863	1144.59997558594
1217.42185666704	1138.59997558594
1218.09078544854	1151.80004882813
1218.75962871078	1144.80004882813
1219.42838646143	1144
1220.09705870816	1140.19995117188
1220.76564545861	1136.59997558594
1221.43414672046	1134
1222.10256250136	1131.59997558594
1222.77089280898	1139.80004882813
1223.43913765098	1132.19995117188
1224.107297035	1140.80004882813
1224.77537096873	1142.80004882813
1225.44335945981	1146.19995117188
1226.1112625159	1151
1226.77908014467	1142.59997558594
1227.44681235376	1151.59997558594
1228.11445915085	1147.19995117188
1228.78202054357	1142.80004882813
1229.44949653961	1146.19995117188
1230.11688714659	1143.59997558594
1230.7841923722	1138
1231.45141222407	1141.19995117188
1232.11854670988	1137
1232.78559583726	1127.59997558594
1233.45255961388	1124
1234.1194380474	1130.59997558594
1234.78623114546	1132.19995117188
1235.45293891572	1136
1236.11956136583	1127.59997558594
1236.78609850345	1134.59997558594
1237.45255033623	1134.40002441406
1238.11891687182	1134
1238.78519811788	1126.40002441406
1239.45139408205	1128.80004882813
1240.11750477198	1137.40002441406
1240.78353019534	1133.80004882813
1241.44947035976	1128.40002441406
1242.11532527291	1135
1242.78109494242	1133.40002441406
1243.44677937595	1127.40002441406
1244.11237858115	1134.80004882813
1244.77789256567	1143.40002441406
1245.44332133715	1134.19995117188
1246.10866490325	1137.80004882813
1246.7739232716	1126
1247.43909644987	1139
1248.10418444569	1134.59997558594
1248.76918726671	1140.80004882813
1249.43410492059	1143.19995117188
1250.09893741496	1147.80004882813
1250.76368475747	1142.40002441406
1251.42834695576	1133.40002441406
1252.09292401749	1136.19995117188
1252.75741595029	1134.19995117188
1253.42182276182	1128.80004882813
1254.08614445971	1128.40002441406
1254.75038105161	1133.59997558594
1255.41453254515	1127.19995117188
1256.07859894799	1122.40002441406
1256.74258026777	1134.59997558594
1257.40647651213	1132.80004882813
1258.0702876887	1141.59997558594
1258.73401380514	1141.80004882813
1259.39765486908	1138.19995117188
1260.06121088817	1145.59997558594
1260.72468187004	1146.40002441406
1261.38806782233	1140.80004882813
1262.05136875269	1135.59997558594
1262.71458466875	1137.80004882813
1263.37771557815	1134.59997558594
1264.04076148854	1138.40002441406
1264.70372240753	1133.59997558594
1265.3665983428	1133.40002441406
1266.02938930195	1139
1266.69209529263	1132.80004882813
1267.35471632249	1143
1268.01725239914	1137.59997558594
1268.67970353024	1131.80004882813
1269.34206972342	1131.59997558594
1270.00435098631	1135.19995117188
1270.66654732655	1144.40002441406
1271.32865875177	1137.40002441406
1271.9906852696	1144.59997558594
1272.65262688768	1139
1273.31448361365	1142
1273.97625545514	1136
1274.63794241978	1135.80004882813
1275.2995445152	1136
1275.96106174903	1131.80004882813
1276.62249412892	1127.40002441406
1277.28384166248	1123.40002441406
1277.94510435735	1129.59997558594
1278.60628222116	1130.19995117188
1279.26737526155	1129.59997558594
1279.92838348613	1134.40002441406
1280.58930690255	1136.40002441406
1281.25014551842	1134
1281.91089934139	1139.59997558594
1282.57156837907	1135.19995117188
1283.2321526391	1132
1283.89265212911	1137.19995117188
1284.55306685671	1134.19995117188
1285.21339682955	1136.19995117188
1285.87364205525	1132
1286.53380254142	1121.19995117188
1287.19387829571	1125.80004882813
1287.85386932573	1123.80004882813
1288.51377563911	1112
1289.17359724348	1125
1289.83333414646	1126
1290.49298635567	1130
1291.15255387874	1142.59997558594
1291.8120367233	1136.59997558594
1292.47143489696	1143
1293.13074840736	1135.59997558594
1293.7899772621	1139.19995117188
1294.44912146882	1134.40002441406
1295.10818103513	1139.19995117188
1295.76715596866	1139.19995117188
1296.42604627704	1130
1297.08485196787	1133.80004882813
1297.74357304878	1128.40002441406
1298.4022095274	1130.80004882813
1299.06076141134	1143
1299.71922870821	1140.40002441406
1300.37761142565	1144.40002441406
1301.03590957126	1148.19995117188
1301.69412315268	1150.19995117188
1302.3522521775	1155.59997558594
1303.01029665336	1159
1303.66825658787	1150.40002441406
1304.32613198865	1156.80004882813
1304.98392286332	1147.19995117188
1305.64162921948	1146.80004882813
1306.29925106476	1154.59997558594
1306.95678840677	1151.19995117188
1307.61424125312	1158
1308.27160961145	1159.40002441406
1308.92889348934	1160.40002441406
1309.58609289443	1156.59997558594
1310.24320783432	1156.80004882813
1310.90023831664	1157
1311.55718434898	1152.80004882813
1312.21404593897	1151.80004882813
1312.87082309421	1152.40002441406
1313.52751582233	1150
1314.18412413092	1154
1314.84064802761	1149.19995117188
1315.49708752	1148.80004882813
1316.1534426157	1150.80004882813
1316.80971332233	1149.40002441406
1317.46589964749	1152.40002441406
1318.1220015988	1150.80004882813
1318.77801918386	1149.80004882813
1319.43395241028	1153
1320.08980128567	1142.19995117188
1320.74556581764	1147.80004882813
1321.4012460138	1146.59997558594
1322.05684188176	1133
1322.71235342911	1139.59997558594
1323.36778066347	1142.59997558594
1324.02312359245	1139.19995117188
1324.67838222365	1148
1325.33355656468	1150.19995117188
1325.98864662314	1141.40002441406
1326.64365240663	1147
1327.29857392277	1145.40002441406
1327.95341117915	1143.40002441406
1328.60816418339	1148
1329.26283294308	1146.80004882813
1329.91741746582	1145.80004882813
1330.57191775923	1143.19995117188
1331.2263338309	1137.80004882813
1331.88066568843	1135
1332.53491333943	1135.80004882813
1333.1890767915	1141.80004882813
1333.84315605224	1136.40002441406
1334.49715112925	1134.19995117188
1335.15106203013	1137.40002441406
1335.80488876249	1129.80004882813
1336.45863133391	1132.80004882813
1337.112289752	1141.19995117188
1337.76586402437	1139.80004882813
1338.4193541586	1132.40002441406
1339.0727601623	1130.19995117188
1339.72608204306	1133.19995117188
1340.37931980849	1133.59997558594
1341.03247346617	1134
1341.68554302372	1142.59997558594
1342.33852848871	1126.19995117188
1342.99142986876	1135.40002441406
1343.64424717145	1139.40002441406
1344.29698040438	1139.40002441406
1344.94962957515	1147
1345.60219469135	1144.19995117188
1346.25467576058	1154.19995117188
1346.90707279042	1166
1347.55938578848	1145.80004882813
1348.21161476235	1151.40002441406
1348.86375971962	1148.80004882813
1349.51582066787	1145.19995117188
1350.16779761472	1148.59997558594
1350.81969056774	1149.80004882813
1351.47149953453	1147.80004882813
1352.12322452269	1148
1352.77486553979	1155.80004882813
1353.42642259344	1154.59997558594
1354.07789569122	1155.19995117188
1354.72928484072	1175
1355.38059004953	1164.19995117188
1356.03181132525	1162.80004882813
1356.68294867545	1165
1357.33400210773	1168.59997558594
1357.98497162968	1162.80004882813
1358.63585724889	1165.19995117188
1359.28665897294	1165.59997558594
1359.93737680942	1174.59997558594
1360.58801076591	1177.59997558594
1361.23856085001	1178.59997558594
1361.88902706929	1181.19995117188
1362.53940943135	1177.59997558594
1363.18970794377	1178.59997558594
1363.83992261413	1175.40002441406
1364.49005345003	1174.19995117188
1365.14010045904	1178.59997558594
1365.79006364874	1176.19995117188
1366.43994302673	1180.40002441406
1367.08973860058	1169.40002441406
1367.73945037788	1162
1368.38907836621	1154.40002441406
1369.03862257315	1163.40002441406
1369.68808300629	1155.40002441406
1370.3374596732	1152.59997558594
1370.98675258148	1145.40002441406
1371.63596173868	1136.40002441406
1372.28508715241	1144.80004882813
1372.93412883024	1144.59997558594
1373.58308677974	1133.80004882813
1374.2319610085	1143.19995117188
1374.8807515241	1135.59997558594
1375.52945833412	1129.80004882813
1376.17808144612	1137
1376.82662086771	1130.80004882813
1377.47507660644	1127.40002441406
1378.12344866989	1120.80004882813
1378.77173706565	1133.80004882813
1379.41994180129	1116.19995117188
1380.06806288439	1134
1380.71610032252	1134.40002441406
1381.36405412326	1132.19995117188
1382.01192429419	1138.80004882813
1382.65971084287	1128.59997558594
1383.30741377688	1129.59997558594
1383.95503310381	1123
1384.60256883121	1119.40002441406
1385.25002096667	1125.19995117188
1385.89738951775	1128.40002441406
1386.54467449204	1127
1387.19187589709	1130.59997558594
1387.8389937405	1122.40002441406
1388.48602802982	1131
1389.13297877262	1125.19995117188
1389.77984597649	1134.59997558594
1390.42662964899	1120.40002441406
1391.07332979768	1124.59997558594
1391.71994643015	1123.59997558594
1392.36647955395	1116.19995117188
1393.01292917667	1122.40002441406
1393.65929530586	1120.80004882813
1394.3055779491	1111.59997558594
1394.95177711395	1123.19995117188
1395.59789280799	1123
1396.24392503877	1119.59997558594
1396.88987381387	1112
1397.53573914086	1121
1398.1815210273	1111.59997558594
1398.82721948075	1121.40002441406
1399.47283450878	1117.59997558594
1400.11836611897	1120.19995117188
1400.76381431886	1100.19995117188
1401.40917911603	1104.40002441406
1402.05446051805	1108.19995117188
1402.69965853247	1114.80004882813
1403.34477316686	1112.40002441406
1403.98980442878	1109.40002441406
1404.6347523258	1115.59997558594
1405.27961686548	1116
1405.92439805538	1108.59997558594
1406.56909590306	1105.40002441406
1407.21371041608	1105.80004882813
1407.85824160202	1100.59997558594
1408.50268946841	1106
1409.14705402284	1098.40002441406
1409.79133527285	1103.40002441406
1410.43553322601	1109.40002441406
1411.07964788987	1117.40002441406
1411.723679272	1111.19995117188
1412.36762737996	1119
1413.01149222129	1117.40002441406
1413.65527380357	1107.80004882813
1414.29897213435	1109
1414.94258722118	1107.80004882813
1415.58611907163	1111.19995117188
1416.22956769325	1105.59997558594
1416.87293309359	1113.80004882813
1417.51621528021	1120.19995117188
1418.15941426067	1119.40002441406
1418.80253004253	1112.19995117188
1419.44556263333	1113.59997558594
1420.08851204063	1112.19995117188
1420.731378272	1111
1421.37416133497	1113.59997558594
1422.0168612371	1116
1422.65947798596	1117
1423.30201158908	1121.59997558594
1423.94446205403	1114.19995117188
1424.58682938835	1116.80004882813
1425.2291135996	1111
1425.87131469532	1107.80004882813
1426.51343268308	1111.19995117188
1427.15546757042	1118
1427.79741936488	1117.40002441406
1428.43928807403	1115.40002441406
1429.0810737054	1114.80004882813
1429.72277626656	1106
1430.36439576504	1112.19995117188
1431.00593220841	1109.40002441406
1431.64738560419	1106.80004882813
1432.28875595995	1118
1432.93004328324	1117
1433.57124758159	1120.80004882813
1434.21236886255	1123.19995117188
1434.85340713368	1121
1435.49436240252	1114.19995117188
1436.13523467661	1113.19995117188
1436.77602396349	1115.19995117188
1437.41673027073	1111.59997558594
1438.05735360585	1101.59997558594
1438.69789397641	1114.19995117188
1439.33835138994	1116.59997558594
1439.978725854	1112.80004882813
1440.61901737612	1107.40002441406
1441.25922596385	1106.80004882813
1441.89935162473	1104
1442.53939436631	1109.19995117188
1443.17935419612	1102.80004882813
1443.81923112171	1111.19995117188
1444.45902515061	1093
1445.09873629038	1106.80004882813
1445.73836454854	1091.59997558594
1446.37790993265	1098.19995117188
1447.01737245024	1108.59997558594
1447.65675210885	1110.19995117188
1448.29604891602	1116.19995117188
1448.93526287928	1119
1449.57439400618	1113.80004882813
1450.21344230426	1105.80004882813
1450.85240778105	1110.59997558594
1451.49129044409	1105.19995117188
1452.13009030092	1113.19995117188
1452.76880735907	1112.40002441406
1453.40744162608	1102.19995117188
1454.04599310949	1103.40002441406
1454.68446181683	1095.40002441406
1455.32284775564	1104.59997558594
1455.96115093345	1104.59997558594
1456.5993713578	1108.59997558594
1457.23750903623	1106.40002441406
1457.87556397626	1107.59997558594
1458.51353618543	1110.19995117188
1459.15142567127	1112.40002441406
1459.78923244132	1108.19995117188
1460.42695650311	1107.59997558594
1461.06459786417	1114.19995117188
1461.70215653203	1108.19995117188
1462.33963251423	1102
1462.97702581829	1105.59997558594
1463.61433645175	1109
1464.25156442214	1104.80004882813
1464.88870973699	1105.40002441406
1465.52577240382	1101.19995117188
1466.16275243017	1107.80004882813
1466.79964982356	1099
1467.43646459154	1104
1468.07319674161	1104
1468.70984628132	1103
1469.34641321818	1101.59997558594
1469.98289755974	1104.19995117188
1470.6192993135	1105.19995117188
1471.25561848701	1109.19995117188
1471.89185508779	1111.80004882813
1472.52800912336	1115
1473.16408060124	1111.80004882813
1473.80006952897	1106.19995117188
1474.43597591407	1103.40002441406
1475.07179976406	1105
1475.70754108647	1109.80004882813
1476.34319988883	1106.19995117188
1476.97877617865	1097.40002441406
1477.61426996345	1107.19995117188
1478.24968125077	1100.59997558594
1478.88501004812	1099.59997558594
1479.52025636303	1093
1480.15542020302	1102
1480.79050157561	1098.40002441406
1481.42550048832	1109.59997558594
1482.06041694867	1109.80004882813
1482.69525096418	1102.59997558594
1483.33000254237	1103.80004882813
1483.96467169077	1098.80004882813
1484.59925841689	1102.80004882813
1485.23376272825	1105.59997558594
1485.86818463237	1108
1486.50252413677	1101
1487.13678124896	1098.80004882813
1487.77095597646	1095.80004882813
1488.4050483268	1096.19995117188
1489.03905830749	1091
1489.67298592604	1092.80004882813
1490.30683118996	1110.40002441406
1490.9405941068	1104.19995117188
1491.57427468403	1102
1492.2078729292	1096.80004882813
1492.84138884981	1105.19995117188
1493.47482245338	1102.19995117188
1494.10817374742	1102.40002441406
1494.74144273944	1101.59997558594
1495.37462943696	1115.19995117188
1496.0077338475	1113.19995117188
1496.64075597856	1110.80004882813
1497.27369583765	1117
1497.9065534323	1106.19995117188
1498.53932877001	1104.59997558594
1499.17202185829	1105.80004882813
1499.80463270465	1110.19995117188
1500.43716131661	1111.40002441406
1501.06960770167	1108
1501.70197186735	1108.19995117188
1502.33425382116	1117.59997558594
1502.96645357059	1115
1503.59857112317	1119
1504.23060648641	1115.80004882813
1504.8625596678	1115.40002441406
1505.49443067486	1122.40002441406
1506.1262195151	1128
1506.75792619602	1126.19995117188
1507.38955072513	1126.59997558594
1508.02109310993	1130.40002441406
1508.65255335794	1116.80004882813
1509.28393147666	1117.59997558594
1509.91522747359	1124.19995117188
1510.54644135624	1117.80004882813
1511.17757313212	1118.80004882813
1511.80862280872	1115.80004882813
1512.43959039356	1118
1513.07047589413	1119
1513.70127931795	1123
1514.33200067251	1122.40002441406
1514.96263996531	1130.19995117188
1515.59319720386	1122.40002441406
1516.22367239567	1114.19995117188
1516.85406554822	1114.40002441406
1517.48437666903	1115.40002441406
1518.1146057656	1107.19995117188
1518.74475284542	1104.19995117188
1519.374817916	1096.40002441406
1520.00480098483	1106.40002441406
1520.63470205942	1101.80004882813
1521.26452114726	1108.40002441406
1521.89425825586	1103.80004882813
1522.52391339271	1096.59997558594
1523.15348656531	1091.40002441406
1523.78297778116	1090
1524.41238704775	1086.59997558594
1525.04171437259	1091.59997558594
1525.67095976317	1098.19995117188
1526.30012322699	1105.40002441406
1526.92920477154	1108
1527.55820440432	1106
1528.18712213283	1104.19995117188
1528.81595796455	1106.59997558594
1529.44471190699	1102.40002441406
1530.07338396764	1096.40002441406
1530.70197415399	1089
1531.33048247353	1087.40002441406
1531.95890893377	1084.80004882813
1532.58725354219	1098
1533.21551630629	1088
1533.84369723356	1093.40002441406
1534.47179633148	1090
1535.09981360757	1096.59997558594
1535.72774906929	1099.19995117188
1536.35560272415	1091.19995117188
1536.98337457963	1093.59997558594
1537.61106464323	1084.59997558594
1538.23867292243	1096.40002441406
1538.86619942473	1096
1539.49364415762	1092.19995117188
1540.12100712857	1092.80004882813
1540.74828834509	1092.80004882813
1541.37548781466	1093.80004882813
1542.00260554478	1094.80004882813
1542.62964154291	1089.59997558594
1543.25659581655	1098
1543.8834683732	1092.59997558594
1544.51025922034	1094.40002441406
1545.13696836544	1084.59997558594
1545.76359581601	1090.40002441406
1546.39014157952	1090.19995117188
1547.01660566345	1094.80004882813
1547.64298807531	1088.40002441406
1548.26928882255	1085.80004882813
1548.89550791269	1079
1549.52164535318	1081.40002441406
1550.14770115153	1079
1550.77367531521	1079
1551.39956785171	1078
1552.0253787685	1076.40002441406
1552.65110807307	1083.59997558594
1553.2767557729	1083
1553.90232187548	1076.59997558594
1554.52780638828	1077.80004882813
1555.15320931879	1079
1555.77853067447	1081.80004882813
1556.40377046282	1073.80004882813
1557.02892869132	1073.59997558594
1557.65400536744	1067.19995117188
1558.27900049866	1072
1558.90391409247	1077.59997558594
1559.52874615633	1080.80004882813
1560.15349669773	1076.59997558594
1560.77816572414	1080.59997558594
1561.40275324305	1077.40002441406
1562.02725926192	1076.19995117188
1562.65168378824	1070.80004882813
1563.27602682948	1071
1563.90028839311	1072.40002441406
1564.52446848662	1066.80004882813
1565.14856711748	1072.40002441406
1565.77258429316	1067.40002441406
1566.39652002113	1063.40002441406
1567.02037430887	1077.59997558594
1567.64414716387	1076.19995117188
1568.26783859357	1078.40002441406
1568.89144860547	1081.19995117188
1569.51497720703	1079.40002441406
1570.13842440573	1089.19995117188
1570.76179020904	1089.19995117188
1571.38507462442	1090.40002441406
1572.00827765936	1091.19995117188
1572.63139932132	1091.80004882813
1573.25443961777	1086
1573.87739855618	1092.19995117188
1574.50027614402	1103.19995117188
1575.12307238877	1093.40002441406
1575.74578729789	1095.40002441406
1576.36842087885	1088.40002441406
1576.99097313912	1090.40002441406
1577.61344408616	1082.19995117188
1578.23583372745	1091.80004882813
1578.85814207046	1083
1579.48036912264	1072.40002441406
1580.10251489147	1074
1580.72457938441	1071
1581.34656260893	1069.59997558594
1581.9684645725	1067.40002441406
1582.59028528258	1068.80004882813
1583.21202474663	1069.19995117188
1583.83368297212	1069
1584.45525996652	1083.40002441406
1585.07675573728	1071
1585.69817029188	1071
1586.31950363778	1066.19995117188
1586.94075578243	1068.80004882813
1587.5619267333	1057
1588.18301649786	1064.40002441406
1588.80402508357	1059.80004882813
1589.42495249788	1068
1590.04579874826	1061.59997558594
1590.66656384217	1063.19995117188
1591.28724778707	1070
1591.90785059042	1067.40002441406
1592.52837225968	1070.40002441406
1593.14881280232	1073.59997558594
1593.76917222578	1063.59997558594
1594.38945053753	1061.59997558594
1595.00964774502	1069
1595.62976385573	1061.59997558594
1596.24979887709	1066
1596.86975281657	1066.40002441406
1597.48962568164	1067.19995117188
1598.10941747974	1058.80004882813
1598.72912821832	1062
1599.34875790486	1056.80004882813
1599.9683065468	1056
1600.58777415159	1055.80004882813
1601.2071607267	1051.59997558594
1601.82646627958	1047
1602.44569081769	1062
1603.06483434846	1059.59997558594
1603.68389687937	1061.19995117188
1604.30287841786	1059
1604.92177897139	1056.59997558594
1605.54059854741	1056.19995117188
1606.15933715337	1056.40002441406
1606.77799479672	1057.80004882813
1607.39657148492	1069.59997558594
1608.01506722542	1064.40002441406
1608.63348202566	1063.59997558594
1609.2518158931	1063
1609.87006883519	1067.59997558594
1610.48824085939	1073.19995117188
1611.10633197312	1066.80004882813
1611.72434218386	1064
1612.34227149904	1048.40002441406
1612.96011992612	1053
1613.57788747254	1044.80004882813
1614.19557414575	1040.80004882813
1614.8131799532	1047.19995117188
1615.43070490234	1037.40002441406
1616.04814900061	1042
1616.66551225545	1042.19995117188
1617.28279467433	1050.40002441406
1617.89999626467	1045.80004882813
1618.51711703393	1046
1619.13415698955	1049.59997558594
1619.75111613898	1052.80004882813
1620.36799448966	1059.80004882813
1620.98479204903	1051
1621.60150882455	1053.59997558594
1622.21814482364	1054.80004882813
1622.83470005376	1053
1623.45117452235	1062.19995117188
1624.06756823685	1055.19995117188
1624.6838812047	1066.19995117188
1625.30011343335	1060.19995117188
1625.91626493022	1064.40002441406
1626.53233570278	1056.80004882813
1627.14832575845	1055.80004882813
1627.76423510468	1052.59997558594
1628.38006374891	1056.59997558594
1628.99581169857	1051.59997558594
1629.61147896111	1050
1630.22706554397	1052.80004882813
1630.84257145457	1048
1631.45799670038	1054.19995117188
1632.07334128881	1053
1632.6886052273	1054.40002441406
1633.3037885233	1056.19995117188
1633.91889118425	1048.80004882813
1634.53391321757	1052
1635.1488546307	1045.40002441406
1635.76371543108	1046.40002441406
1636.37849562616	1041
1636.99319522335	1042.80004882813
1637.60781423009	1046.80004882813
1638.22235265383	1038.59997558594
1638.83681050198	1038.59997558594
1639.451187782	1047.19995117188
1640.0654845013	1047.19995117188
1640.67970066734	1052
1641.29383628752	1055.59997558594
1641.9078913693	1052.40002441406
1642.5218659201	1059.40002441406
1643.13575994735	1055
1643.74957345849	1061.59997558594
1644.36330646094	1056.40002441406
1644.97695896213	1064.80004882813
1645.59053096951	1061.59997558594
1646.20402249049	1062.19995117188
1646.8174335325	1056.80004882813
1647.43076410298	1060.59997558594
1648.04401420935	1061
1648.65718385905	1057
1649.2702730595	1058.80004882813
1649.88328181812	1057.19995117188
1650.49621014236	1056
1651.10905803963	1052.19995117188
1651.72182551735	1063.40002441406
1652.33451258297	1066.80004882813
1652.9471192439	1061.40002441406
1653.55964550757	1058.19995117188
1654.1720913814	1054.59997558594
1654.78445687283	1048.59997558594
1655.39674198926	1044
1656.00894673814	1041.19995117188
1656.62107112688	1037.59997558594
1657.23311516291	1034
1657.84507885365	1035
1658.45696220652	1038.59997558594
1659.06876522895	1030.59997558594
1659.68048792835	1034.19995117188
1660.29213031217	1027.80004882813
1660.90369238779	1027.40002441406
1661.51517416267	1024.59997558594
1662.12657564421	1021.59997558594
1662.73789683984	1023.59997558594
1663.34913775697	1023
1663.96029840303	1019.40002441406
1664.57137878544	1014.79998779297
1665.18237891161	1024.19995117188
1665.79329878897	1024
1666.40413842493	1012.59997558594
1667.01489782691	1018.40002441406
1667.62557700233	1017.59997558594
1668.2361759586	1017.59997558594
1668.84669470315	1018.79998779297
1669.4571332434	1025
1670.06749158675	1013
1670.67776974062	1013.20001220703
1671.28796771243	1011.59997558594
1671.8980855096	1009.59997558594
1672.50812313954	1004.20001220703
1673.11808060967	1004
1673.72795792739	1007.59997558594
1674.33775510013	1002.20001220703
1674.9474721353	1002.79998779297
1675.55710904031	1003
1676.16666582257	1000.40002441406
1676.7761424895	994.799987792969
1677.38553904851	998.599975585938
1677.99485550702	1005.40002441406
1678.60409187243	995.599975585938
1679.21324815215	991.400024414063
1679.8223243536	1001.20001220703
1680.43132048419	997.200012207031
1681.04023655132	1000.79998779297
1681.64907256241	1001.79998779297
1682.25782852487	1009
1682.86650444611	1005
1683.47510033353	1002
1684.08361619455	1005.40002441406
1684.69205203657	1006.20001220703
1685.300407867	1002
1685.90868369325	999.599975585938
1686.51687952272	1002.79998779297
1687.12499536283	1003.40002441406
1687.73303122098	1003.20001220703
1688.34098710457	999.799987792969
1688.94886302101	997.799987792969
1689.55665897772	1005
1690.16437498208	1001.79998779297
1690.77201104152	996
1691.37956716342	998.400024414063
1691.9870433552	994.599975585938
1692.59443962426	997.599975585938
1693.20175597801	995.400024414063
1693.80899242384	995
1694.41614896916	989.599975585938
1695.02322562138	988.400024414063
1695.63022238789	990.799987792969
1696.23713927609	996.200012207031
1696.8439762934	999.799987792969
1697.4507334472	1001
1698.05741074491	992
1698.66400819391	992.200012207031
1699.27052580161	996.599975585938
1699.87696357542	994.599975585938
1700.48332152272	993.599975585938
1701.08959965092	993
1701.69579796742	992.200012207031
1702.30191647962	994
1702.90795519491	997.400024414063
1703.51391412069	991
1704.11979326437	988.799987792969
1704.72559263332	991.799987792969
1705.33131223496	986.200012207031
1705.93695207668	989.200012207031
1706.54251216588	991.400024414063
1707.14799250994	988.200012207031
1707.75339311628	987.599975585938
1708.35871399227	984.599975585938
1708.96395514532	986.400024414063
1709.56911658282	982.599975585938
