634.948122577771	1038
635.690341530823	1041.40002441406
636.43246851086	1040.80004882813
637.174503525845	1040.80004882813
637.916446583745	1037.80004882813
638.658297692538	1036.80004882813
639.400056860179	1035.80004882813
640.141724094637	1036.19995117188
640.883299403885	1039.80004882813
641.62478279588	1038
642.366174278594	1029.40002441406
643.107473859989	1027.80004882813
643.848681548029	1037.40002441406
644.589797350679	1039.40002441406
645.330821275901	1035
646.071753331665	1037.80004882813
646.812593525922	1035.40002441406
647.553341866646	1033.80004882813
648.293998361798	1049
649.03456301933	1048.40002441406
649.775035847216	1051.59997558594
650.515416853409	1056.40002441406
651.255706045874	1046.80004882813
651.995903432568	1048
652.736009021453	1039.19995117188
653.476022820486	1040.19995117188
654.215944837629	1043.40002441406
654.955775080842	1040.80004882813
655.695513558081	1040.19995117188
656.435160277301	1045
657.174715246465	1042.40002441406
657.914178473527	1055.80004882813
658.653549966449	1050.40002441406
659.392829733176	1047.40002441406
660.132017781678	1053.19995117188
660.871114119901	1057.19995117188
661.610118755803	1053.59997558594
662.349031697343	1055.19995117188
663.087852952468	1057
663.826582529139	1055
664.565220435305	1047.59997558594
665.30376667892	1045.19995117188
666.04222126794	1050.19995117188
666.780584210316	1048.80004882813
667.518855514	1048.80004882813
668.25703518694	1045.59997558594
668.995123237096	1046.59997558594
669.733119672413	1041.80004882813
670.471024500842	1043.19995117188
671.208837730333	1043.80004882813
671.946559368839	1050.59997558594
672.684189424308	1052.59997558594
673.421727904689	1046.40002441406
674.159174817929	1057.80004882813
674.896530171977	1050.80004882813
675.633793974786	1050.59997558594
676.370966234295	1050
677.108046958461	1050
677.845036155219	1056.40002441406
678.581933832528	1063.40002441406
679.318739998323	1059.80004882813
680.055454660558	1060.80004882813
680.792077827172	1056
681.528609506116	1055.19995117188
682.265049705331	1053.59997558594
683.001398432759	1050.59997558594
683.737655696349	1050
684.47382150404	1052.19995117188
685.20989586378	1046
685.945878783503	1042.80004882813
686.68177027116	1045.40002441406
687.417570334688	1045.40002441406
688.153278982032	1048.19995117188
688.888896221129	1039.40002441406
689.624422059921	1042.40002441406
690.359856506349	1043.59997558594
691.095199568354	1049.59997558594
691.830451253874	1046
692.565611570844	1057.19995117188
693.300680527212	1053.19995117188
694.03565813091	1053
694.770544389877	1055.80004882813
695.505339312053	1051.19995117188
696.240042905372	1049.40002441406
696.974655177772	1051
697.70917613719	1054
698.443605791561	1046
699.177944148826	1053.59997558594
699.912191216909	1053.19995117188
700.646347003755	1056.19995117188
701.380411517295	1050.59997558594
702.114384765465	1057.19995117188
702.848266756195	1056.80004882813
703.582057497421	1061
704.315756997074	1058.19995117188
705.049365263089	1056
705.782882303399	1061.59997558594
706.516308125936	1065.19995117188
707.249642738626	1057.59997558594
707.982886149403	1049.40002441406
708.716038366204	1053.80004882813
709.449099396949	1054.40002441406
710.182069249577	1059.59997558594
710.914947932009	1058.19995117188
711.647735452181	1052.19995117188
712.380431818022	1056.40002441406
713.113037037454	1062.40002441406
713.845551118411	1051.19995117188
714.577974068818	1051.19995117188
715.310305896604	1048
716.042546609694	1052.80004882813
716.774696216013	1053.19995117188
717.506754723493	1048.80004882813
718.238722140053	1047.40002441406
718.970598473624	1045.59997558594
719.702383732127	1041.80004882813
720.43407792349	1047.19995117188
721.165681055634	1047.80004882813
721.897193136486	1043.80004882813
722.628614173966	1056
723.359944175997	1054
724.091183150505	1045.80004882813
724.822331105412	1042.59997558594
725.553388048638	1048
726.284353988106	1053.40002441406
727.015228931734	1054.19995117188
727.746012887449	1056.80004882813
728.476705863162	1062
729.207307866803	1060
729.937818906289	1053.19995117188
730.668238989535	1060.80004882813
731.398568124459	1062.59997558594
732.128806318986	1053.59997558594
732.858953581034	1059
733.589009918514	1061.40002441406
734.318975339348	1063.19995117188
735.048849851452	1059.40002441406
735.778633462744	1064.19995117188
736.508326181137	1053
737.237928014549	1059.40002441406
737.967438970897	1055
738.696859058095	1053
739.426188284054	1056.40002441406
740.155426656692	1057.80004882813
740.884574183922	1052.80004882813
741.613630873659	1052.59997558594
742.342596733815	1055.19995117188
743.071471772302	1051.19995117188
743.800255997034	1053.80004882813
744.528949415921	1055.40002441406
745.257552036877	1053.59997558594
745.986063867811	1059
746.714484916638	1056.40002441406
747.442815191261	1055.80004882813
748.171054699597	1059
748.899203449554	1055.40002441406
749.627261449039	1052.40002441406
750.355228705966	1052.40002441406
751.083105228239	1054
751.810891023765	1053.19995117188
752.538586100459	1054
753.266190466218	1054.19995117188
753.99370412896	1049.40002441406
754.721127096582	1050.40002441406
755.448459377	1056.80004882813
756.175700978114	1054.19995117188
756.902851907828	1053.40002441406
757.629912174055	1058.59997558594
758.356881784688	1050.80004882813
759.083760747639	1058
759.810549070817	1058.40002441406
760.537246762113	1059.59997558594
761.263853829442	1061.80004882813
761.990370280698	1054.80004882813
762.716796123791	1057
763.443131366618	1061.19995117188
764.169376017082	1065.40002441406
764.895530083085	1067
765.621593572527	1069
766.347566493312	1074
767.073448853336	1078.19995117188
767.799240660502	1075.80004882813
768.524941922707	1081.59997558594
769.250552647854	1084.59997558594
769.976072843836	1088
770.701502518551	1090.40002441406
771.426841679905	1099.40002441406
772.152090335793	1096.40002441406
772.877248494107	1092.80004882813
773.602316162747	1089
774.327293349609	1096.80004882813
775.052180062592	1094
775.776976309589	1091.59997558594
776.501682098496	1089.80004882813
777.226297437206	1088.80004882813
777.950822333616	1084.19995117188
778.675256795621	1075.80004882813
779.399600831111	1073.59997558594
780.123854447983	1070.80004882813
780.84801765413	1069.59997558594
781.572090457441	1074.40002441406
782.296072865811	1062
783.019964887131	1061.19995117188
783.743766529297	1056.40002441406
784.467477800194	1056.80004882813
785.191098707719	1058.40002441406
785.914629259756	1056.59997558594
786.638069464194	1054.80004882813
787.361419328932	1059
788.084678861852	1059.40002441406
788.807848070845	1059
789.530926963798	1058
790.253915548602	1054.19995117188
790.976813833144	1058.19995117188
791.699621825307	1058.59997558594
792.422339532986	1055.40002441406
793.144966964061	1065.19995117188
793.86750412642	1055.80004882813
794.589951027946	1057.40002441406
795.312307676536	1061
796.03457408006	1062
796.756750246417	1062.40002441406
797.478836183477	1060.59997558594
798.200831899137	1056.59997558594
798.92273740127	1059.80004882813
799.644552697769	1053.80004882813
800.36627779651	1044.59997558594
801.087912705374	1052.59997558594
801.809457432251	1052.80004882813
802.530911985017	1052.80004882813
803.252276371558	1055.59997558594
803.973550599748	1064.59997558594
804.694734677472	1062.19995117188
805.415828612611	1067.80004882813
806.136832413045	1065.59997558594
806.857746086646	1060.40002441406
807.578569641305	1059.19995117188
808.299303084892	1057.19995117188
809.019946425289	1057
809.740499670372	1053.40002441406
810.460962828022	1054
811.181335906114	1057.59997558594
811.901618912524	1049.80004882813
812.621811855131	1056.40002441406
813.341914741809	1051
814.061927580433	1054.19995117188
814.781850378881	1049.40002441406
815.501683145025	1057.59997558594
816.221425886743	1061.80004882813
816.941078611903	1056.40002441406
817.660641328387	1063.19995117188
818.380114044065	1063.80004882813
819.099496766808	1063.40002441406
819.818789504492	1058
820.53799226499	1051.59997558594
821.257105056168	1059.19995117188
821.976127885904	1060.19995117188
822.695060762064	1060
823.413903692525	1055.19995117188
824.132656685151	1052.80004882813
824.851319747817	1051.19995117188
825.569892888388	1044.40002441406
826.288376114739	1048
827.006769434737	1051.59997558594
827.725072856249	1045.59997558594
828.443286387142	1054.40002441406
829.161410035285	1050.59997558594
829.87944380855	1053.40002441406
830.597387714798	1055.59997558594
831.315241761898	1052.80004882813
832.033005957715	1045.40002441406
832.750680310119	1047.40002441406
833.468264826969	1049.59997558594
834.18575951614	1043.40002441406
834.903164385486	1047
835.620479442878	1053
836.337704696181	1056.19995117188
837.054840153255	1056.19995117188
837.771885821962	1059.40002441406
838.488841710172	1045
839.20570782574	1045.59997558594
839.922484176531	1049.40002441406
840.639170770409	1055.19995117188
841.355767615231	1057.19995117188
842.072274718864	1046
842.788692089164	1047
843.505019733993	1046.80004882813
844.221257661209	1047.40002441406
844.937405878676	1054.19995117188
845.65346439425	1046
846.369433215789	1052.40002441406
847.085312351156	1047.40002441406
847.801101808205	1043
848.516801594793	1049.80004882813
849.232411718781	1053.19995117188
849.947932188021	1042.40002441406
850.663363010376	1040
851.378704193698	1037.19995117188
852.093955745842	1035.19995117188
852.809117674669	1043
853.524189988028	1037.19995117188
854.239172693778	1046.19995117188
854.954065799768	1054.80004882813
855.668869313857	1054.59997558594
856.383583243899	1052.19995117188
857.098207597743	1049.40002441406
857.812742383246	1044.80004882813
858.527187608255	1044.19995117188
859.241543280628	1055.40002441406
859.955809408218	1047.80004882813
860.669985998868	1051.19995117188
861.384073060437	1049
862.098070600772	1044.59997558594
862.811978627724	1050.59997558594
863.52579714914	1037.19995117188
864.239526172873	1035.80004882813
864.953165706776	1035
865.666715758687	1039.59997558594
866.380176336464	1043.19995117188
867.093547447951	1045.80004882813
867.806829100996	1044.59997558594
868.520021303444	1048.59997558594
869.233124063149	1043.40002441406
869.94613738795	1045
870.659061285693	1036.59997558594
871.37189576423	1043
872.084640831403	1037.19995117188
872.797296495057	1043.19995117188
873.509862763039	1041.59997558594
874.22233964319	1047.59997558594
874.934727143353	1051.59997558594
875.647025271374	1048
876.359234035097	1046.80004882813
877.071353442361	1047
877.783383501015	1042.19995117188
878.495324218895	1044.40002441406
879.207175603844	1041
879.918937663705	1043.19995117188
880.630610406318	1049.19995117188
881.342193839524	1044.19995117188
882.053687971161	1048.40002441406
882.765092809069	1042
883.476408361091	1041.80004882813
884.187634635066	1041.59997558594
884.898771638828	1051.40002441406
885.609819380221	1041
886.320777867076	1040.19995117188
887.031647107236	1038.19995117188
887.742427108536	1035.59997558594
888.453117878816	1043.40002441406
889.16371942591	1043
889.874231757652	1053.19995117188
890.584654881883	1045.40002441406
891.294988806434	1040.19995117188
892.005233539141	1043
892.715389087837	1038
893.42545546036	1035.19995117188
894.135432664543	1046.80004882813
894.845320708216	1041.59997558594
895.555119599216	1042.40002441406
896.264829345375	1043.19995117188
896.974449954526	1050
897.683981434496	1048.59997558594
898.393423793125	1047.19995117188
899.102777038235	1044.80004882813
899.812041177664	1048.40002441406
900.521216219239	1047.80004882813
901.230302170793	1045
901.939299040155	1041
902.64820683515	1044
903.357025563612	1043.59997558594
904.065755233368	1037
904.774395852247	1038.40002441406
905.482947428076	1044.80004882813
906.191409968682	1041.40002441406
906.899783481897	1042.40002441406
907.608067975538	1040.40002441406
908.316263457443	1042.80004882813
909.02436993543	1045.80004882813
909.732387417327	1052.19995117188
910.440315910959	1044.59997558594
911.148155424154	1053.19995117188
911.855905964731	1051
912.563567540521	1045.19995117188
913.271140159339	1055.59997558594
913.978623829017	1051.19995117188
914.686018557374	1045.59997558594
915.393324352237	1045.80004882813
916.100541221421	1046.59997558594
916.807669172752	1048.80004882813
917.514708214054	1047.19995117188
918.221658353142	1048.40002441406
918.928519597843	1044
919.635291955976	1045.40002441406
920.341975435358	1048.40002441406
921.048570043813	1055
921.75507578916	1049.40002441406
922.461492679212	1044.59997558594
923.167820721795	1042.59997558594
923.874059924726	1045.40002441406
924.58021029582	1040.19995117188
925.286271842893	1044.40002441406
925.992244573769	1044.80004882813
926.698128496262	1042.80004882813
927.403923618184	1044.59997558594
928.109629947355	1050.19995117188
928.815247491593	1047
929.520776258708	1051.40002441406
930.226216256519	1046.80004882813
930.931567492841	1044.59997558594
931.636829975482	1051.80004882813
932.342003712263	1045.80004882813
933.047088710995	1044.40002441406
933.752084979491	1049.19995117188
934.456992525564	1042.80004882813
935.161811357024	1043.59997558594
935.866541481688	1039.19995117188
936.571182907363	1049.40002441406
937.275735641861	1047.59997558594
937.980199692995	1045.40002441406
938.684575068572	1041.40002441406
939.388861776411	1043.40002441406
940.093059824311	1043.59997558594
940.797169220085	1043.40002441406
941.501189971544	1051.80004882813
942.205122086495	1043
942.908965572751	1039.40002441406
943.612720438111	1043.19995117188
944.316386690391	1036.40002441406
945.019964337391	1039.19995117188
945.723453386924	1040.59997558594
946.426853846795	1040
947.130165724808	1041
947.83338902877	1033.19995117188
948.536523766488	1033
949.239569945764	1030.19995117188
949.942527574402	1041.59997558594
950.64539666021	1036.40002441406
951.348177210993	1033.80004882813
952.050869234548	1035.59997558594
952.753472738683	1035.80004882813
953.455987731199	1042.40002441406
954.158414219898	1033.40002441406
954.860752212587	1039.19995117188
955.563001717061	1038.80004882813
956.265162741124	1041
956.967235292576	1039.80004882813
957.669219379224	1036.19995117188
958.371115008857	1033.40002441406
959.072922189283	1038.19995117188
959.774640928301	1029.19995117188
960.476271233708	1038.80004882813
961.177813113301	1036.19995117188
961.879266574882	1036.19995117188
962.580631626248	1036.19995117188
963.281908275194	1037
963.98309652952	1036.80004882813
964.684196397022	1033.40002441406
965.3852078855	1031
966.086131002745	1031.59997558594
966.786965756555	1033.40002441406
967.487712154726	1033
968.188370205055	1028.40002441406
968.888939915331	1023.59997558594
969.589421293352	1023.79998779297
970.289814346909	1030.59997558594
970.990119083801	1029.19995117188
971.690335511819	1029
972.39046363875	1035.80004882813
973.090503472398	1030
973.790455020545	1033.19995117188
974.490318290987	1037.80004882813
975.190093291516	1036
975.889780029923	1028.59997558594
976.589378513998	1030.59997558594
977.288888751527	1031.40002441406
977.988310750308	1034.19995117188
978.687644518122	1031.40002441406
979.386890062767	1031.80004882813
980.086047392025	1034.80004882813
980.785116513689	1037
981.484097435542	1031.19995117188
982.182990165377	1029.59997558594
982.88179471098	1035
983.580511080137	1031.19995117188
984.279139280632	1034.40002441406
984.977679320253	1032.80004882813
985.67613120679	1040
986.374494948027	1038.59997558594
987.072770551745	1036.19995117188
987.770958025731	1035.19995117188
988.469057377772	1033.80004882813
989.167068615649	1031.80004882813
989.864991747145	1029
990.562826780047	1026.40002441406
991.260573722134	1023.20001220703
991.958232581195	1025.19995117188
992.655803365003	1031.19995117188
993.353286081346	1023
994.050680738006	1025.19995117188
994.74798734276	1030.80004882813
995.44520590339	1033.40002441406
996.142336427681	1035.80004882813
996.839378923407	1032.80004882813
997.536333398348	1038
998.233199860289	1036.40002441406
998.929978317004	1032.59997558594
999.626668776274	1026
1000.32327124587	1019.59997558594
1001.01978573359	1016
1001.71621224718	1020.79998779297
1002.41255079445	1015.59997558594
1003.10880138315	1026.19995117188
1003.80496402107	1027.59997558594
1004.50103871599	1026.80004882813
1005.19702547567	1026
1005.8929243079	1028.40002441406
1006.58873522045	1027.59997558594
1007.2844582211	1036.19995117188
1007.98009331761	1031.19995117188
1008.67564051776	1039.59997558594
1009.37109982933	1027.19995117188
1010.06647126009	1037.40002441406
1010.7617548178	1028.19995117188
1011.45695051026	1034.59997558594
1012.15205834522	1034.59997558594
1012.84707833045	1033
1013.54201047373	1028.80004882813
1014.23685478284	1024.80004882813
1014.93161126553	1028.40002441406
1015.62627992959	1038.40002441406
1016.32086078277	1033
1017.01535383285	1034
1017.70975908761	1031.40002441406
1018.40407655479	1035.80004882813
1019.09830624219	1038.80004882813
1019.79244815755	1036.59997558594
1020.48650230866	1043
1021.18046870328	1032.40002441406
1021.87434734917	1034.59997558594
1022.56813825411	1032.80004882813
1023.26184142584	1036.40002441406
1023.95545687216	1034
1024.64898460082	1029.40002441406
1025.34242461957	1027.59997558594
1026.0357769362	1029.19995117188
1026.72904155846	1031
1027.42221849412	1033.40002441406
1028.11530775094	1030.19995117188
1028.80830933668	1025.59997558594
1029.50122325911	1023.79998779297
1030.19404952599	1016.59997558594
1030.88678814508	1031.40002441406
1031.57943912414	1025.40002441406
1032.27200247093	1023.59997558594
1032.96447819323	1018.40002441406
1033.65686629878	1021.40002441406
1034.34916679534	1021.20001220703
1035.04137969068	1015
1035.73350499256	1019.79998779297
1036.42554270874	1029
1037.11749284697	1020.40002441406
1037.80935541501	1021
1038.50113042062	1022.59997558594
1039.19281787156	1017.40002441406
1039.88441777559	1024
1040.57593014046	1014.79998779297
1041.26735497393	1013.59997558594
1041.95869228376	1018.40002441406
1042.6499420777	1017.20001220703
1043.3411043635	1018.79998779297
1044.03217914893	1023.79998779297
1044.72316644174	1030.19995117188
1045.41406624968	1029.80004882813
1046.1048785805	1027.59997558594
1046.79560344197	1027
1047.48624084182	1022.20001220703
1048.17679078783	1020.20001220703
1048.86725328774	1022.59997558594
1049.55762834929	1030.80004882813
1050.24791598025	1027.80004882813
1050.93811618837	1026.40002441406
1051.62822898139	1029
1052.31825436707	1029.40002441406
1053.00819235315	1016.20001220703
1053.6980429474	1027.19995117188
1054.38780615755	1024.59997558594
1055.07748199136	1024.40002441406
1055.76707045658	1022
1056.45657156095	1023.40002441406
1057.14598531222	1025.19995117188
1057.83531171814	1028.19995117188
1058.52455078646	1031.40002441406
1059.21370252494	1019.59997558594
1059.90276694129	1015
1060.5917440433	1023.59997558594
1061.28063383868	1018.59997558594
1061.9694363352	1017.20001220703
1062.65815154059	1020
1063.34677946261	1016
1064.03532010899	1022.40002441406
1064.72377348748	1019.40002441406
1065.41213960583	1021.20001220703
1066.10041847177	1025
1066.78861009306	1026.80004882813
1067.47671447743	1024.80004882813
1068.16473163263	1027.80004882813
1068.85266156639	1027.19995117188
1069.54050428647	1028.80004882813
1070.2282598006	1023.79998779297
1070.91592811652	1024.80004882813
1071.60350924198	1016.59997558594
1072.29100318471	1020.40002441406
1072.97840995245	1020.40002441406
1073.66572955295	1018.20001220703
1074.35296199394	1019.59997558594
1075.04010728316	1017.40002441406
1075.72716542836	1018.20001220703
1076.41413643726	1018.20001220703
1077.10102031761	1016.79998779297
1077.78781707715	1015.20001220703
1078.4745267236	1019
1079.16114926471	1017.59997558594
1079.84768470822	1016.20001220703
1080.53413306185	1018
1081.22049433336	1020.40002441406
1081.90676853046	1019.40002441406
1082.5929556609	1019.79998779297
1083.27905573241	1019
1083.96506875272	1018.79998779297
1084.65099472957	1021.59997558594
1085.3368336707	1019
1086.02258558383	1021.79998779297
1086.70825047669	1031.19995117188
1087.39382835703	1019
1088.07931923257	1020.40002441406
1088.76472311104	1016.20001220703
1089.45004000018	1018
1090.13526990771	1021.59997558594
1090.82041284137	1021.79998779297
1091.50546880889	1023.40002441406
1092.19043781799	1021
1092.87531987642	1018.59997558594
1093.56011499188	1020.40002441406
1094.24482317212	1016.59997558594
1094.92944442486	1017.40002441406
1095.61397875783	1011.59997558594
1096.29842617876	1016.59997558594
1096.98278669537	1016.79998779297
1097.6670603154	1019.59997558594
1098.35124704656	1018.59997558594
1099.03534689659	1015
1099.71935987322	1018.40002441406
1100.40328598416	1012.40002441406
1101.08712523713	1011.40002441406
1101.77087763988	1016.40002441406
1102.45454320012	1012.40002441406
1103.13812192557	1015.20001220703
1103.82161382396	1015.59997558594
1104.50501890301	1008.59997558594
1105.18833717045	1013
1105.87156863399	1012.20001220703
1106.55471330137	1018
1107.2377711803	1013.79998779297
1107.9207422785	1010.59997558594
1108.60362660369	1018.20001220703
1109.2864241636	1022.20001220703
1109.96913496594	1018.40002441406
1110.65175901844	1024.19995117188
1111.33429632882	1020.79998779297
1112.01674690479	1020.20001220703
1112.69911075408	1022.59997558594
1113.38138788439	1022
1114.06357830346	1016.59997558594
1114.745682019	1009.40002441406
1115.42769903872	1013.79998779297
1116.10962937035	1007.40002441406
1116.7914730216	1014.79998779297
1117.47323000018	1022.59997558594
1118.15490031382	1020.40002441406
1118.83648397022	1016.20001220703
1119.51798097712	1017.59997558594
1120.1993913422	1009.59997558594
1120.88071507321	1013
1121.56195217784	1017
1122.24310266381	1019.79998779297
1122.92416653884	1020
1123.60514381064	1015.40002441406
1124.28603448692	1021.40002441406
1124.9668385754	1007.20001220703
1125.64755608378	1015
1126.32818701978	1018
1127.00873139111	1018
1127.68918920548	1014
1128.3695604706	1022
1129.04984519419	1017.59997558594
1129.73004338394	1021.20001220703
1130.41015504758	1020.59997558594
1131.09018019281	1021.79998779297
1131.77011882734	1019.79998779297
1132.44997095888	1021.59997558594
1133.12973659514	1020.79998779297
1133.80941574381	1018
1134.48900841263	1021.20001220703
1135.16851460927	1015.79998779297
1135.84793434147	1015.79998779297
1136.52726761692	1020
1137.20651444333	1015.79998779297
1137.8856748284	1006.59997558594
1138.56474877984	1008.40002441406
1139.24373630536	1007
1139.92263741265	1002.59997558594
1140.60145210943	1004.40002441406
1141.28018040339	1001.79998779297
1141.95882230225	1004.20001220703
1142.6373778137	1009.40002441406
1143.31584694545	1002
1143.99422970519	1003.79998779297
1144.67252610064	1008
1145.35073613949	1007.20001220703
1146.02885982944	1008.59997558594
1146.7068971782	1012.59997558594
1147.38484819347	1011
1148.06271288294	1010.79998779297
1148.74049125432	1013.40002441406
1149.41818331531	1014.59997558594
1150.0957890736	1021.79998779297
1150.77330853689	1017.20001220703
1151.45074171289	1016.20001220703
1152.12808860928	1017.59997558594
1152.80534923378	1011.59997558594
1153.48252359407	1011
1154.15961169786	1011.20001220703
1154.83661355283	1015.79998779297
1155.51352916669	1013.20001220703
1156.19035854713	1009.20001220703
1156.86710170185	1007.40002441406
1157.54375863855	1007.59997558594
1158.22032936491	1004
1158.89681388863	1005.40002441406
1159.57321221741	1010.59997558594
1160.24952435894	1008.79998779297
1160.92575032092	1011
1161.60189011103	1013.20001220703
1162.27794373697	1013.79998779297
1162.95391120644	1011
1163.62979252712	1009
1164.3055877067	1012.40002441406
1164.98129675288	1016
1165.65691967336	1018.59997558594
1166.33245647581	1010.59997558594
1167.00790716792	1020.59997558594
1167.6832717574	1010.20001220703
1168.35855025193	1015.59997558594
1169.0337426592	1013.20001220703
1169.70884898689	1013.59997558594
1170.3838692427	1011
1171.05880343431	1010.79998779297
1171.73365156941	1007.79998779297
1172.40841365569	1009.20001220703
1173.08308970083	1005.79998779297
1173.75767971253	1009.20001220703
1174.43218369847	1008.20001220703
1175.10660166633	1011.40002441406
1175.7809336238	1012.40002441406
1176.45517957857	1008.79998779297
1177.12933953832	1007.59997558594
1177.80341351073	1016.40002441406
1178.47740150349	1015.20001220703
1179.15130352429	1017
1179.8251195808	1025
1180.49884968071	1015
1181.1724938317	1023
1181.84605204145	1020.20001220703
1182.51952431766	1019.59997558594
1183.19291066799	1025.19995117188
1183.86621110013	1024
1184.53942562176	1023.40002441406
1185.21255424057	1021.20001220703
1185.88559696422	1025.80004882813
1186.55855380041	1022.79998779297
1187.2314247568	1018.40002441406
1187.90420984109	1021.40002441406
1188.57690906095	1014.59997558594
1189.24952242405	1018.20001220703
1189.92204993808	1023.79998779297
1190.59449161071	1024.19995117188
1191.26684744962	1024.80004882813
1191.93911746249	1012.40002441406
1192.61130165699	1013.59997558594
1193.28340004081	1017.59997558594
1193.95541262161	1020.20001220703
1194.62733940707	1019.79998779297
1195.29918040487	1017
1195.97093562269	1020.40002441406
1196.64260506819	1018.40002441406
1197.31418874905	1013.59997558594
1197.98568667295	1012.79998779297
1198.65709884755	1016
1199.32842528053	1013
1199.99966597957	1009.59997558594
1200.67082095234	1010.59997558594
1201.3418902065	1013.40002441406
1202.01287374974	1009.59997558594
1202.68377158971	1010.59997558594
1203.3545837341	1012.40002441406
1204.02531019057	1005
1204.6959509668	1010
1205.36650607045	1009.20001220703
1206.03697550919	1011.59997558594
1206.70735929069	1014.40002441406
1207.37765742263	1013.79998779297
1208.04786991266	1016.59997558594
1208.71799676846	1009.79998779297
1209.38803799769	1013.79998779297
1210.05799360803	1014
1210.72786360714	1012.40002441406
1211.39764800268	1017
1212.06734680233	1007.79998779297
1212.73696001375	1008.20001220703
1213.4064876446	1011.20001220703
1214.07592970255	1006
1214.74528619526	1007
1215.4145571304	1005
1216.08374251564	1009
1216.75284235863	999.799987792969
1217.42185666704	1002
1218.09078544854	1003
1218.75962871078	999.400024414063
1219.42838646143	1005.59997558594
1220.09705870816	1003.79998779297
1220.76564545861	1000.59997558594
1221.43414672046	1001.20001220703
1222.10256250136	1001.59997558594
1222.77089280898	995.599975585938
1223.43913765098	1002.59997558594
1224.107297035	999.200012207031
1224.77537096873	1007.79998779297
1225.44335945981	1006.40002441406
1226.1112625159	1007
1226.77908014467	1004.20001220703
1227.44681235376	1004.59997558594
1228.11445915085	1003.40002441406
1228.78202054357	1004.20001220703
1229.44949653961	1005.79998779297
1230.11688714659	1002.40002441406
1230.7841923722	1007.20001220703
1231.45141222407	999.400024414063
1232.11854670988	998.400024414063
1232.78559583726	996.400024414063
1233.45255961388	994.200012207031
1234.1194380474	995.599975585938
1234.78623114546	995.799987792969
1235.45293891572	996.599975585938
1236.11956136583	992.400024414063
1236.78609850345	996
1237.45255033623	995
1238.11891687182	1002
1238.78519811788	996.200012207031
1239.45139408205	995.400024414063
1240.11750477198	995.799987792969
1240.78353019534	1000.20001220703
1241.44947035976	999
1242.11532527291	999.400024414063
1242.78109494242	1000.79998779297
1243.44677937595	996.400024414063
1244.11237858115	1001
1244.77789256567	1002.79998779297
1245.44332133715	1002.59997558594
1246.10866490325	1003.79998779297
1246.7739232716	1003.20001220703
1247.43909644987	998.400024414063
1248.10418444569	1003.59997558594
1248.76918726671	997.799987792969
1249.43410492059	999
1250.09893741496	999.599975585938
1250.76368475747	1002.20001220703
1251.42834695576	997
1252.09292401749	997
1252.75741595029	995.400024414063
1253.42182276182	997
1254.08614445971	998.200012207031
1254.75038105161	995.200012207031
1255.41453254515	996.799987792969
1256.07859894799	1000
1256.74258026777	999.799987792969
1257.40647651213	999.400024414063
1258.0702876887	998.400024414063
1258.73401380514	1005.40002441406
1259.39765486908	1001.20001220703
1260.06121088817	1006
1260.72468187004	1003.40002441406
1261.38806782233	990.799987792969
1262.05136875269	992.799987792969
1262.71458466875	994.799987792969
1263.37771557815	991.200012207031
1264.04076148854	995
1264.70372240753	998.799987792969
1265.3665983428	1001.20001220703
1266.02938930195	1001.59997558594
1266.69209529263	1003.40002441406
1267.35471632249	995
1268.01725239914	997
1268.67970353024	996.599975585938
1269.34206972342	990.400024414063
1270.00435098631	999
1270.66654732655	995.200012207031
1271.32865875177	994
1271.9906852696	999.799987792969
1272.65262688768	1000.20001220703
1273.31448361365	998
1273.97625545514	997.400024414063
1274.63794241978	998.400024414063
1275.2995445152	999.799987792969
1275.96106174903	996.799987792969
1276.62249412892	1000.40002441406
1277.28384166248	1000.79998779297
1277.94510435735	988.200012207031
1278.60628222116	995.799987792969
1279.26737526155	1000
1279.92838348613	996.799987792969
1280.58930690255	997.400024414063
1281.25014551842	999.200012207031
1281.91089934139	1001.40002441406
1282.57156837907	997.400024414063
1283.2321526391	994.599975585938
1283.89265212911	999.599975585938
1284.55306685671	995.599975585938
1285.21339682955	997.599975585938
1285.87364205525	994.799987792969
1286.53380254142	992.400024414063
1287.19387829571	991.599975585938
1287.85386932573	993
1288.51377563911	994.599975585938
1289.17359724348	997.599975585938
1289.83333414646	993.400024414063
1290.49298635567	995
1291.15255387874	1001
1291.8120367233	993.799987792969
1292.47143489696	999.200012207031
1293.13074840736	995
1293.7899772621	997.799987792969
1294.44912146882	1002.20001220703
1295.10818103513	994
1295.76715596866	1002.40002441406
1296.42604627704	1002
1297.08485196787	1000
1297.74357304878	1007.59997558594
1298.4022095274	1004
1299.06076141134	1004.40002441406
1299.71922870821	999.599975585938
1300.37761142565	1004.59997558594
1301.03590957126	997.400024414063
1301.69412315268	997.400024414063
1302.3522521775	1001
1303.01029665336	1009.79998779297
1303.66825658787	1001
1304.32613198865	1003.59997558594
1304.98392286332	1001
1305.64162921948	1002
1306.29925106476	1004
1306.95678840677	1007.79998779297
1307.61424125312	1007.40002441406
1308.27160961145	1007.40002441406
1308.92889348934	1005
1309.58609289443	1004.20001220703
1310.24320783432	1008.59997558594
1310.90023831664	1009.79998779297
1311.55718434898	1008
1312.21404593897	1011.20001220703
1312.87082309421	1004.79998779297
1313.52751582233	1008.40002441406
1314.18412413092	1005
1314.84064802761	998.400024414063
1315.49708752	1003.20001220703
1316.1534426157	1003
1316.80971332233	1002.59997558594
1317.46589964749	999.799987792969
1318.1220015988	1000.20001220703
1318.77801918386	1001.79998779297
1319.43395241028	997.200012207031
1320.08980128567	998
1320.74556581764	999.799987792969
1321.4012460138	996.200012207031
1322.05684188176	995.599975585938
1322.71235342911	998.400024414063
1323.36778066347	998.200012207031
1324.02312359245	996.200012207031
1324.67838222365	1000
1325.33355656468	1002.40002441406
1325.98864662314	1001.59997558594
1326.64365240663	994.200012207031
1327.29857392277	999.599975585938
1327.95341117915	994.599975585938
1328.60816418339	994.599975585938
1329.26283294308	993.400024414063
1329.91741746582	1000.59997558594
1330.57191775923	995.799987792969
1331.2263338309	996.200012207031
1331.88066568843	997.799987792969
1332.53491333943	996.599975585938
1333.1890767915	995.599975585938
1333.84315605224	998
1334.49715112925	1000.79998779297
1335.15106203013	996.599975585938
1335.80488876249	991.599975585938
1336.45863133391	995.400024414063
1337.112289752	999.200012207031
1337.76586402437	996.599975585938
1338.4193541586	992.200012207031
1339.0727601623	996.799987792969
1339.72608204306	1000.79998779297
1340.37931980849	994.599975585938
1341.03247346617	996.400024414063
1341.68554302372	999.599975585938
1342.33852848871	995.400024414063
1342.99142986876	994.599975585938
1343.64424717145	994.799987792969
1344.29698040438	995.200012207031
1344.94962957515	990.599975585938
1345.60219469135	1000
1346.25467576058	1002.59997558594
1346.90707279042	1000.40002441406
1347.55938578848	1000
1348.21161476235	1004.40002441406
1348.86375971962	1001.79998779297
1349.51582066787	1000.20001220703
1350.16779761472	994
1350.81969056774	997
1351.47149953453	1002
1352.12322452269	1000.40002441406
1352.77486553979	1004.59997558594
1353.42642259344	1007.59997558594
1354.07789569122	1008.59997558594
1354.72928484072	1011.20001220703
1355.38059004953	1013.20001220703
1356.03181132525	1018.59997558594
1356.68294867545	1015
1357.33400210773	1017.79998779297
1357.98497162968	1014
1358.63585724889	1021.40002441406
1359.28665897294	1020
1359.93737680942	1026.59997558594
1360.58801076591	1025.80004882813
1361.23856085001	1032
1361.88902706929	1032.59997558594
1362.53940943135	1029.40002441406
1363.18970794377	1030.80004882813
1363.83992261413	1023.79998779297
1364.49005345003	1028.80004882813
1365.14010045904	1028.80004882813
1365.79006364874	1034
1366.43994302673	1029
1367.08973860058	1028
1367.73945037788	1026.80004882813
1368.38907836621	1026.40002441406
1369.03862257315	1022.20001220703
1369.68808300629	1025.40002441406
1370.3374596732	1021.40002441406
1370.98675258148	1012.20001220703
1371.63596173868	1014.59997558594
1372.28508715241	1010
1372.93412883024	1009.20001220703
1373.58308677974	1009.59997558594
1374.2319610085	1003.20001220703
1374.8807515241	1001.59997558594
1375.52945833412	997.799987792969
1376.17808144612	991.599975585938
1376.82662086771	997.400024414063
1377.47507660644	996
1378.12344866989	992
1378.77173706565	995.400024414063
1379.41994180129	991
1380.06806288439	981.799987792969
1380.71610032252	997
1381.36405412326	993.599975585938
1382.01192429419	995.400024414063
1382.65971084287	997.599975585938
1383.30741377688	996.400024414063
1383.95503310381	993.599975585938
1384.60256883121	993.400024414063
1385.25002096667	996.400024414063
1385.89738951775	995.799987792969
1386.54467449204	996
1387.19187589709	997.400024414063
1387.8389937405	991
1388.48602802982	996
1389.13297877262	993.200012207031
1389.77984597649	994.200012207031
1390.42662964899	998.799987792969
1391.07332979768	1000.79998779297
1391.71994643015	997.200012207031
1392.36647955395	994.599975585938
1393.01292917667	994.400024414063
1393.65929530586	996.200012207031
1394.3055779491	997.599975585938
1394.95177711395	989.400024414063
1395.59789280799	989.200012207031
1396.24392503877	991.599975585938
1396.88987381387	989.400024414063
1397.53573914086	986.599975585938
1398.1815210273	987.599975585938
1398.82721948075	988.799987792969
1399.47283450878	988.799987792969
1400.11836611897	990.400024414063
1400.76381431886	987.599975585938
1401.40917911603	992
1402.05446051805	989
1402.69965853247	987.200012207031
1403.34477316686	985.400024414063
1403.98980442878	985.799987792969
1404.6347523258	980.200012207031
1405.27961686548	985.200012207031
1405.92439805538	983.599975585938
1406.56909590306	979.400024414063
1407.21371041608	980.599975585938
1407.85824160202	984.799987792969
1408.50268946841	976.799987792969
1409.14705402284	980.200012207031
1409.79133527285	976.400024414063
1410.43553322601	979.799987792969
1411.07964788987	981
1411.723679272	983
1412.36762737996	977.200012207031
1413.01149222129	982
1413.65527380357	980.400024414063
1414.29897213435	980
1414.94258722118	978.799987792969
1415.58611907163	975.599975585938
1416.22956769325	976.200012207031
1416.87293309359	979.400024414063
1417.51621528021	985.400024414063
1418.15941426067	981.200012207031
1418.80253004253	979.599975585938
1419.44556263333	977.200012207031
1420.08851204063	982.400024414063
1420.731378272	985.799987792969
1421.37416133497	986.400024414063
1422.0168612371	983.200012207031
1422.65947798596	985.799987792969
1423.30201158908	985.799987792969
1423.94446205403	980
1424.58682938835	985.799987792969
1425.2291135996	980.599975585938
1425.87131469532	989.200012207031
1426.51343268308	990
1427.15546757042	987.400024414063
1427.79741936488	986
1428.43928807403	989.799987792969
1429.0810737054	986.400024414063
1429.72277626656	987
1430.36439576504	983
1431.00593220841	986.400024414063
1431.64738560419	988.799987792969
1432.28875595995	985.400024414063
1432.93004328324	981.599975585938
1433.57124758159	986.599975585938
1434.21236886255	990.200012207031
1434.85340713368	982.200012207031
1435.49436240252	981.200012207031
1436.13523467661	981.799987792969
1436.77602396349	979.799987792969
1437.41673027073	980.400024414063
1438.05735360585	983.200012207031
1438.69789397641	980.200012207031
1439.33835138994	975.200012207031
1439.978725854	975.400024414063
1440.61901737612	975.799987792969
1441.25922596385	973.400024414063
1441.89935162473	978
1442.53939436631	978.400024414063
1443.17935419612	971.200012207031
1443.81923112171	976.400024414063
1444.45902515061	973.599975585938
1445.09873629038	972
1445.73836454854	979
1446.37790993265	972.400024414063
1447.01737245024	978.400024414063
1447.65675210885	980.400024414063
1448.29604891602	981.799987792969
1448.93526287928	988.799987792969
1449.57439400618	978
1450.21344230426	977.799987792969
1450.85240778105	979.799987792969
1451.49129044409	976.400024414063
1452.13009030092	978.400024414063
1452.76880735907	977.599975585938
1453.40744162608	977.200012207031
1454.04599310949	979.599975585938
1454.68446181683	978.400024414063
1455.32284775564	979.599975585938
1455.96115093345	978
1456.5993713578	974
1457.23750903623	978.200012207031
1457.87556397626	976.599975585938
1458.51353618543	982.799987792969
1459.15142567127	980
1459.78923244132	984.799987792969
1460.42695650311	982.799987792969
1461.06459786417	983
1461.70215653203	980.599975585938
1462.33963251423	985
1462.97702581829	980
1463.61433645175	987.200012207031
1464.25156442214	983.799987792969
1464.88870973699	985.799987792969
1465.52577240382	975.599975585938
1466.16275243017	979.599975585938
1466.79964982356	977
1467.43646459154	975.400024414063
1468.07319674161	984.599975585938
1468.70984628132	977.799987792969
1469.34641321818	977.799987792969
1469.98289755974	980
1470.6192993135	979.400024414063
1471.25561848701	980
1471.89185508779	978.200012207031
1472.52800912336	984.400024414063
1473.16408060124	973
1473.80006952897	975.200012207031
1474.43597591407	976
1475.07179976406	972
1475.70754108647	975.799987792969
1476.34319988883	979.400024414063
1476.97877617865	974.200012207031
1477.61426996345	982.200012207031
1478.24968125077	983.400024414063
1478.88501004812	979.400024414063
1479.52025636303	978.200012207031
1480.15542020302	979.400024414063
1480.79050157561	976.799987792969
1481.42550048832	981.599975585938
1482.06041694867	978.200012207031
1482.69525096418	979.599975585938
1483.33000254237	979.599975585938
1483.96467169077	982.599975585938
1484.59925841689	981
1485.23376272825	981
1485.86818463237	981
1486.50252413677	984
1487.13678124896	980.599975585938
1487.77095597646	980.200012207031
1488.4050483268	980.400024414063
1489.03905830749	978.400024414063
1489.67298592604	980.799987792969
1490.30683118996	988.599975585938
1490.9405941068	983.599975585938
1491.57427468403	982
1492.2078729292	982.799987792969
1492.84138884981	980
1493.47482245338	982.400024414063
1494.10817374742	984.400024414063
1494.74144273944	981.400024414063
1495.37462943696	987
1496.0077338475	980.599975585938
1496.64075597856	985.400024414063
1497.27369583765	984
1497.9065534323	986.599975585938
1498.53932877001	985.400024414063
1499.17202185829	984.799987792969
1499.80463270465	980.799987792969
1500.43716131661	981
1501.06960770167	985.599975585938
1501.70197186735	991
1502.33425382116	986.200012207031
1502.96645357059	988.400024414063
1503.59857112317	986.599975585938
1504.23060648641	989.799987792969
1504.8625596678	994.799987792969
1505.49443067486	994.200012207031
1506.1262195151	998
1506.75792619602	995.599975585938
1507.38955072513	996.599975585938
1508.02109310993	994.200012207031
1508.65255335794	996.599975585938
1509.28393147666	996.400024414063
1509.91522747359	990
1510.54644135624	996.799987792969
1511.17757313212	998.400024414063
1511.80862280872	993.400024414063
1512.43959039356	987
1513.07047589413	992.200012207031
1513.70127931795	996.400024414063
1514.33200067251	994.200012207031
1514.96263996531	994.599975585938
1515.59319720386	992
1516.22367239567	992.200012207031
1516.85406554822	990
1517.48437666903	988
1518.1146057656	985.799987792969
1518.74475284542	982.400024414063
1519.374817916	976.599975585938
1520.00480098483	979.799987792969
1520.63470205942	982.200012207031
1521.26452114726	981
1521.89425825586	977.400024414063
1522.52391339271	978.599975585938
1523.15348656531	975.599975585938
1523.78297778116	977.799987792969
1524.41238704775	980.200012207031
1525.04171437259	978.400024414063
1525.67095976317	979.200012207031
1526.30012322699	978.200012207031
1526.92920477154	984.400024414063
1527.55820440432	980.799987792969
1528.18712213283	977.200012207031
1528.81595796455	978.200012207031
1529.44471190699	977
1530.07338396764	970.799987792969
1530.70197415399	973.200012207031
1531.33048247353	978.599975585938
1531.95890893377	977.799987792969
1532.58725354219	969.599975585938
1533.21551630629	975.599975585938
1533.84369723356	977.799987792969
1534.47179633148	978.200012207031
1535.09981360757	977.400024414063
1535.72774906929	981.599975585938
1536.35560272415	984.599975585938
1536.98337457963	978
1537.61106464323	982.400024414063
1538.23867292243	979.400024414063
1538.86619942473	973.599975585938
1539.49364415762	975.799987792969
1540.12100712857	977.599975585938
1540.74828834509	976.400024414063
1541.37548781466	973.799987792969
1542.00260554478	972.599975585938
1542.62964154291	974.400024414063
1543.25659581655	975.200012207031
1543.8834683732	976
1544.51025922034	974.599975585938
1545.13696836544	972.400024414063
1545.76359581601	974
1546.39014157952	971
1547.01660566345	971.599975585938
1547.64298807531	971.599975585938
1548.26928882255	971.599975585938
1548.89550791269	965.400024414063
1549.52164535318	966.400024414063
1550.14770115153	965.200012207031
1550.77367531521	972.599975585938
1551.39956785171	963.400024414063
1552.0253787685	963.200012207031
1552.65110807307	964.799987792969
1553.2767557729	966.599975585938
1553.90232187548	968.200012207031
1554.52780638828	964
1555.15320931879	970
1555.77853067447	971.200012207031
1556.40377046282	970
1557.02892869132	970
1557.65400536744	971.799987792969
1558.27900049866	961.599975585938
1558.90391409247	970.200012207031
1559.52874615633	971.400024414063
1560.15349669773	970.200012207031
1560.77816572414	975.799987792969
1561.40275324305	971
1562.02725926192	969.599975585938
1562.65168378824	971.799987792969
1563.27602682948	971.400024414063
1563.90028839311	970.599975585938
1564.52446848662	973.599975585938
1565.14856711748	973.799987792969
1565.77258429316	974.200012207031
1566.39652002113	971.200012207031
1567.02037430887	972.799987792969
1567.64414716387	976.200012207031
1568.26783859357	976
1568.89144860547	972.400024414063
1569.51497720703	974.799987792969
1570.13842440573	975
1570.76179020904	974.799987792969
1571.38507462442	973.599975585938
1572.00827765936	972.200012207031
1572.63139932132	976.599975585938
1573.25443961777	979
1573.87739855618	976.799987792969
1574.50027614402	976.799987792969
1575.12307238877	981.200012207031
1575.74578729789	978.200012207031
1576.36842087885	969.200012207031
1576.99097313912	973.200012207031
1577.61344408616	968.599975585938
1578.23583372745	975.599975585938
1578.85814207046	971.200012207031
1579.48036912264	968.200012207031
1580.10251489147	968
1580.72457938441	966
1581.34656260893	959.599975585938
1581.9684645725	958.799987792969
1582.59028528258	963.200012207031
1583.21202474663	960.599975585938
1583.83368297212	957
1584.45525996652	965.200012207031
1585.07675573728	960.799987792969
1585.69817029188	954.799987792969
1586.31950363778	956.599975585938
1586.94075578243	957
1587.5619267333	954
1588.18301649786	953.200012207031
1588.80402508357	957
1589.42495249788	957.400024414063
1590.04579874826	960.599975585938
1590.66656384217	961
1591.28724778707	963.799987792969
1591.90785059042	955.799987792969
1592.52837225968	955.200012207031
1593.14881280232	953.400024414063
1593.76917222578	956.599975585938
1594.38945053753	959.200012207031
1595.00964774502	953.200012207031
1595.62976385573	953.400024414063
1596.24979887709	963.799987792969
1596.86975281657	960.599975585938
1597.48962568164	961.200012207031
1598.10941747974	959.200012207031
1598.72912821832	956.200012207031
1599.34875790486	953.799987792969
1599.9683065468	954.400024414063
1600.58777415159	958
1601.2071607267	956.400024414063
1601.82646627958	955.200012207031
1602.44569081769	958.599975585938
1603.06483434846	957
1603.68389687937	956.799987792969
1604.30287841786	956.400024414063
1604.92177897139	959.400024414063
1605.54059854741	958.599975585938
1606.15933715337	958.200012207031
1606.77799479672	957.200012207031
1607.39657148492	957.200012207031
1608.01506722542	960.400024414063
1608.63348202566	958.400024414063
1609.2518158931	957.400024414063
1609.87006883519	956.799987792969
1610.48824085939	954.599975585938
1611.10633197312	953.799987792969
1611.72434218386	952
1612.34227149904	950.400024414063
1612.96011992612	952
1613.57788747254	953.400024414063
1614.19557414575	956.400024414063
1614.8131799532	953.200012207031
1615.43070490234	956.799987792969
1616.04814900061	949.799987792969
1616.66551225545	952
1617.28279467433	948.200012207031
1617.89999626467	953.599975585938
1618.51711703393	951
1619.13415698955	952.400024414063
1619.75111613898	954
1620.36799448966	952.400024414063
1620.98479204903	957.799987792969
1621.60150882455	954.400024414063
1622.21814482364	957
1622.83470005376	958.200012207031
1623.45117452235	953
1624.06756823685	952.799987792969
1624.6838812047	957.799987792969
1625.30011343335	953.799987792969
1625.91626493022	956.799987792969
1626.53233570278	957.400024414063
1627.14832575845	958.200012207031
1627.76423510468	955.599975585938
1628.38006374891	956.799987792969
1628.99581169857	958.200012207031
1629.61147896111	957.200012207031
1630.22706554397	957.200012207031
1630.84257145457	960.200012207031
1631.45799670038	958
1632.07334128881	961.400024414063
1632.6886052273	957.599975585938
1633.3037885233	955.799987792969
1633.91889118425	953
1634.53391321757	951.599975585938
1635.1488546307	958.599975585938
1635.76371543108	953
1636.37849562616	953.200012207031
1636.99319522335	946.200012207031
1637.60781423009	950.200012207031
1638.22235265383	949.400024414063
1638.83681050198	949.599975585938
1639.451187782	949.799987792969
1640.0654845013	953.200012207031
1640.67970066734	953
1641.29383628752	951.599975585938
1641.9078913693	953.200012207031
1642.5218659201	955.400024414063
1643.13575994735	956.599975585938
1643.74957345849	955.400024414063
1644.36330646094	960.799987792969
1644.97695896213	957.200012207031
1645.59053096951	956.400024414063
1646.20402249049	960.200012207031
1646.8174335325	962
1647.43076410298	965.200012207031
1648.04401420935	965.400024414063
1648.65718385905	967
1649.2702730595	976.200012207031
1649.88328181812	976
1650.49621014236	979.200012207031
1651.10905803963	972.400024414063
1651.72182551735	975
1652.33451258297	973.400024414063
1652.9471192439	970.599975585938
1653.55964550757	973
1654.1720913814	964.200012207031
1654.78445687283	966.799987792969
1655.39674198926	963.599975585938
1656.00894673814	957.400024414063
1656.62107112688	962
1657.23311516291	963.200012207031
1657.84507885365	957.799987792969
1658.45696220652	962
1659.06876522895	952.200012207031
1659.68048792835	956.400024414063
1660.29213031217	959.799987792969
1660.90369238779	951.799987792969
1661.51517416267	952.400024414063
1662.12657564421	948.400024414063
1662.73789683984	951.200012207031
1663.34913775697	952.799987792969
1663.96029840303	945
1664.57137878544	947.599975585938
1665.18237891161	947.200012207031
1665.79329878897	944.599975585938
1666.40413842493	943.799987792969
1667.01489782691	943.799987792969
1667.62557700233	944.400024414063
1668.2361759586	947.200012207031
1668.84669470315	940.599975585938
1669.4571332434	937.599975585938
1670.06749158675	939.799987792969
1670.67776974062	938.200012207031
1671.28796771243	939.799987792969
1671.8980855096	935.200012207031
1672.50812313954	934.599975585938
1673.11808060967	937.400024414063
1673.72795792739	934.799987792969
1674.33775510013	932.799987792969
1674.9474721353	938
1675.55710904031	934.400024414063
1676.16666582257	938
1676.7761424895	933.799987792969
1677.38553904851	938.599975585938
1677.99485550702	936.599975585938
1678.60409187243	930.200012207031
1679.21324815215	931
1679.8223243536	934.799987792969
1680.43132048419	935.599975585938
1681.04023655132	937.200012207031
1681.64907256241	942
1682.25782852487	936
1682.86650444611	936
1683.47510033353	937.400024414063
1684.08361619455	936.599975585938
1684.69205203657	934.799987792969
1685.300407867	939
1685.90868369325	934
1686.51687952272	939.400024414063
1687.12499536283	936
1687.73303122098	936.599975585938
1688.34098710457	936.400024414063
1688.94886302101	930.400024414063
1689.55665897772	930.599975585938
1690.16437498208	931.200012207031
1690.77201104152	931.400024414063
1691.37956716342	933.200012207031
1691.9870433552	932.799987792969
1692.59443962426	929.200012207031
1693.20175597801	932.799987792969
1693.80899242384	935.599975585938
1694.41614896916	930.599975585938
1695.02322562138	927.200012207031
1695.63022238789	929.799987792969
1696.23713927609	924.400024414063
1696.8439762934	924.599975585938
1697.4507334472	925.799987792969
1698.05741074491	926.200012207031
1698.66400819391	923.799987792969
1699.27052580161	926.799987792969
1699.87696357542	928
1700.48332152272	927.200012207031
1701.08959965092	929.599975585938
1701.69579796742	926
1702.30191647962	926
1702.90795519491	925.799987792969
1703.51391412069	925.400024414063
1704.11979326437	928.799987792969
1704.72559263332	926.400024414063
1705.33131223496	924.599975585938
1705.93695207668	925.200012207031
1706.54251216588	932.799987792969
1707.14799250994	932
1707.75339311628	930.799987792969
1708.35871399227	927
1708.96395514532	928.799987792969
1709.56911658282	928.400024414063
