634.948122577771	1373.59997558594
635.690341530823	1361.80004882813
636.43246851086	1369.19995117188
637.174503525845	1372.59997558594
637.916446583745	1361.80004882813
638.658297692538	1365.40002441406
639.400056860179	1371.19995117188
640.141724094637	1357
640.883299403885	1377.19995117188
641.62478279588	1366.59997558594
642.366174278594	1369.40002441406
643.107473859989	1373
643.848681548029	1369.80004882813
644.589797350679	1357.80004882813
645.330821275901	1355.40002441406
646.071753331665	1357.59997558594
646.812593525922	1361.19995117188
647.553341866646	1372
648.293998361798	1366.40002441406
649.03456301933	1361.59997558594
649.775035847216	1358.59997558594
650.515416853409	1359
651.255706045874	1350.80004882813
651.995903432568	1354
652.736009021453	1355.40002441406
653.476022820486	1344
654.215944837629	1371.19995117188
654.955775080842	1359.80004882813
655.695513558081	1365.19995117188
656.435160277301	1375.19995117188
657.174715246465	1369.19995117188
657.914178473527	1374.59997558594
658.653549966449	1368.40002441406
659.392829733176	1361.19995117188
660.132017781678	1382.19995117188
660.871114119901	1385.19995117188
661.610118755803	1370.59997558594
662.349031697343	1389
663.087852952468	1399
663.826582529139	1395.80004882813
664.565220435305	1400
665.30376667892	1388.80004882813
666.04222126794	1387.19995117188
666.780584210316	1390
667.518855514	1380.59997558594
668.25703518694	1389.40002441406
668.995123237096	1390.40002441406
669.733119672413	1391
670.471024500842	1387.19995117188
671.208837730333	1400
671.946559368839	1394
672.684189424308	1395.19995117188
673.421727904689	1381.40002441406
674.159174817929	1396.59997558594
674.896530171977	1373.80004882813
675.633793974786	1371.80004882813
676.370966234295	1381.80004882813
677.108046958461	1393.80004882813
677.845036155219	1380.80004882813
678.581933832528	1390.80004882813
679.318739998323	1383
680.055454660558	1386.59997558594
680.792077827172	1383.40002441406
681.528609506116	1384
682.265049705331	1387.80004882813
683.001398432759	1399
683.737655696349	1390.19995117188
684.47382150404	1398
685.20989586378	1379.40002441406
685.945878783503	1387.19995117188
686.68177027116	1379.40002441406
687.417570334688	1378.59997558594
688.153278982032	1382.59997558594
688.888896221129	1380.59997558594
689.624422059921	1392.40002441406
690.359856506349	1389.80004882813
691.095199568354	1398.19995117188
691.830451253874	1397.19995117188
692.565611570844	1396.40002441406
693.300680527212	1408.40002441406
694.03565813091	1413.40002441406
694.770544389877	1401.40002441406
695.505339312053	1404.80004882813
696.240042905372	1403.19995117188
696.974655177772	1407.19995117188
697.70917613719	1418.59997558594
698.443605791561	1431.59997558594
699.177944148826	1420.59997558594
699.912191216909	1422.59997558594
700.646347003755	1421.40002441406
701.380411517295	1413.59997558594
702.114384765465	1423
702.848266756195	1408.59997558594
703.582057497421	1412.19995117188
704.315756997074	1396.40002441406
705.049365263089	1400.40002441406
705.782882303399	1402.19995117188
706.516308125936	1396.80004882813
707.249642738626	1394.59997558594
707.982886149403	1388.40002441406
708.716038366204	1383.59997558594
709.449099396949	1383.59997558594
710.182069249577	1378.59997558594
710.914947932009	1386.59997558594
711.647735452181	1385.19995117188
712.380431818022	1380.80004882813
713.113037037454	1391
713.845551118411	1405
714.577974068818	1399.80004882813
715.310305896604	1394.59997558594
716.042546609694	1380.80004882813
716.774696216013	1387.59997558594
717.506754723493	1403.59997558594
718.238722140053	1391.59997558594
718.970598473624	1401
719.702383732127	1403.19995117188
720.43407792349	1411.19995117188
721.165681055634	1398.19995117188
721.897193136486	1395.40002441406
722.628614173966	1393.59997558594
723.359944175997	1393.19995117188
724.091183150505	1394.80004882813
724.822331105412	1404
725.553388048638	1399.80004882813
726.284353988106	1418
727.015228931734	1401.80004882813
727.746012887449	1403.19995117188
728.476705863162	1417.59997558594
729.207307866803	1408
729.937818906289	1400.59997558594
730.668238989535	1395.59997558594
731.398568124459	1390.59997558594
732.128806318986	1375.80004882813
732.858953581034	1385.80004882813
733.589009918514	1394
734.318975339348	1413.59997558594
735.048849851452	1403.19995117188
735.778633462744	1414
736.508326181137	1414.40002441406
737.237928014549	1413.19995117188
737.967438970897	1428.40002441406
738.696859058095	1423.80004882813
739.426188284054	1418
740.155426656692	1413.59997558594
740.884574183922	1413
741.613630873659	1413.80004882813
742.342596733815	1400
743.071471772302	1410.59997558594
743.800255997034	1418.59997558594
744.528949415921	1418
745.257552036877	1404.19995117188
745.986063867811	1407
746.714484916638	1409.59997558594
747.442815191261	1410.59997558594
748.171054699597	1421.19995117188
748.899203449554	1411.80004882813
749.627261449039	1406.80004882813
750.355228705966	1410
751.083105228239	1404.19995117188
751.810891023765	1415.80004882813
752.538586100459	1421.19995117188
753.266190466218	1416
753.99370412896	1420.80004882813
754.721127096582	1431.80004882813
755.448459377	1416.40002441406
756.175700978114	1418.19995117188
756.902851907828	1398.40002441406
757.629912174055	1404.80004882813
758.356881784688	1407.59997558594
759.083760747639	1410.59997558594
759.810549070817	1403.40002441406
760.537246762113	1400.19995117188
761.263853829442	1406.80004882813
761.990370280698	1406.80004882813
762.716796123791	1413.80004882813
763.443131366618	1408.19995117188
764.169376017082	1412.19995117188
764.895530083085	1414.40002441406
765.621593572527	1430.19995117188
766.347566493312	1435.19995117188
767.073448853336	1442.40002441406
767.799240660502	1442.59997558594
768.524941922707	1454.59997558594
769.250552647854	1449.59997558594
769.976072843836	1442.59997558594
770.701502518551	1434
771.426841679905	1445.19995117188
772.152090335793	1438.80004882813
772.877248494107	1451.40002441406
773.602316162747	1451.19995117188
774.327293349609	1445.59997558594
775.052180062592	1443
775.776976309589	1440.40002441406
776.501682098496	1438.80004882813
777.226297437206	1441.80004882813
777.950822333616	1442.59997558594
778.675256795621	1435.59997558594
779.399600831111	1456.40002441406
780.123854447983	1445.40002441406
780.84801765413	1442
781.572090457441	1448.80004882813
782.296072865811	1442.40002441406
783.019964887131	1441
783.743766529297	1437.19995117188
784.467477800194	1452.19995117188
785.191098707719	1439.80004882813
785.914629259756	1451.80004882813
786.638069464194	1445.59997558594
787.361419328932	1443.19995117188
788.084678861852	1429.40002441406
788.807848070845	1421.19995117188
789.530926963798	1429.40002441406
790.253915548602	1423.40002441406
790.976813833144	1424.80004882813
791.699621825307	1428
792.422339532986	1434.59997558594
793.144966964061	1425.80004882813
793.86750412642	1415.59997558594
794.589951027946	1418
795.312307676536	1417.59997558594
796.03457408006	1428.40002441406
796.756750246417	1419.59997558594
797.478836183477	1411.80004882813
798.200831899137	1423
798.92273740127	1416.19995117188
799.644552697769	1420.80004882813
800.36627779651	1427.40002441406
801.087912705374	1431.59997558594
801.809457432251	1422.59997558594
802.530911985017	1410.59997558594
803.252276371558	1406.80004882813
803.973550599748	1407.40002441406
804.694734677472	1405
805.415828612611	1409
806.136832413045	1410.40002441406
806.857746086646	1420.80004882813
807.578569641305	1432
808.299303084892	1434.59997558594
809.019946425289	1430.80004882813
809.740499670372	1420
810.460962828022	1421.40002441406
811.181335906114	1424
811.901618912524	1424.59997558594
812.621811855131	1414.80004882813
813.341914741809	1410.80004882813
814.061927580433	1422.19995117188
814.781850378881	1420.80004882813
815.501683145025	1437.19995117188
816.221425886743	1424.19995117188
816.941078611903	1427.40002441406
817.660641328387	1424.19995117188
818.380114044065	1415.40002441406
819.099496766808	1407.40002441406
819.818789504492	1396.19995117188
820.53799226499	1404.59997558594
821.257105056168	1406.80004882813
821.976127885904	1420.40002441406
822.695060762064	1430.59997558594
823.413903692525	1426.80004882813
824.132656685151	1433.19995117188
824.851319747817	1429.59997558594
825.569892888388	1427.59997558594
826.288376114739	1410.59997558594
827.006769434737	1417.40002441406
827.725072856249	1409
828.443286387142	1424.80004882813
829.161410035285	1407.80004882813
829.87944380855	1425
830.597387714798	1403.80004882813
831.315241761898	1404.80004882813
832.033005957715	1401.59997558594
832.750680310119	1405.40002441406
833.468264826969	1409.80004882813
834.18575951614	1423.40002441406
834.903164385486	1423
835.620479442878	1426.59997558594
836.337704696181	1421
837.054840153255	1416.59997558594
837.771885821962	1422.19995117188
838.488841710172	1415.80004882813
839.20570782574	1410.59997558594
839.922484176531	1413.59997558594
840.639170770409	1409
841.355767615231	1419.59997558594
842.072274718864	1410
842.788692089164	1413
843.505019733993	1418.19995117188
844.221257661209	1433.80004882813
844.937405878676	1424.19995117188
845.65346439425	1422.80004882813
846.369433215789	1418.59997558594
847.085312351156	1415.59997558594
847.801101808205	1397.19995117188
848.516801594793	1405.59997558594
849.232411718781	1390.19995117188
849.947932188021	1389
850.663363010376	1394.80004882813
851.378704193698	1395.19995117188
852.093955745842	1401.19995117188
852.809117674669	1414.40002441406
853.524189988028	1415.59997558594
854.239172693778	1405
854.954065799768	1395.59997558594
855.668869313857	1405.40002441406
856.383583243899	1386
857.098207597743	1393
857.812742383246	1391.19995117188
858.527187608255	1399
859.241543280628	1401.59997558594
859.955809408218	1426.59997558594
860.669985998868	1420
861.384073060437	1420
862.098070600772	1436.19995117188
862.811978627724	1436.19995117188
863.52579714914	1418.59997558594
864.239526172873	1422
864.953165706776	1399
865.666715758687	1409
866.380176336464	1397.19995117188
867.093547447951	1422.40002441406
867.806829100996	1413
868.520021303444	1414.19995117188
869.233124063149	1410.40002441406
869.94613738795	1402.59997558594
870.659061285693	1400.40002441406
871.37189576423	1407.19995117188
872.084640831403	1406.59997558594
872.797296495057	1417.40002441406
873.509862763039	1416.80004882813
874.22233964319	1401.59997558594
874.934727143353	1411.19995117188
875.647025271374	1425.80004882813
876.359234035097	1424
877.071353442361	1420.40002441406
877.783383501015	1422.19995117188
878.495324218895	1412.59997558594
879.207175603844	1416.59997558594
879.918937663705	1420.80004882813
880.630610406318	1422.80004882813
881.342193839524	1428.59997558594
882.053687971161	1426.40002441406
882.765092809069	1422.19995117188
883.476408361091	1430.59997558594
884.187634635066	1434.19995117188
884.898771638828	1426.59997558594
885.609819380221	1431.80004882813
886.320777867076	1430
887.031647107236	1430.19995117188
887.742427108536	1416.19995117188
888.453117878816	1423.19995117188
889.16371942591	1415.40002441406
889.874231757652	1415.59997558594
890.584654881883	1403.19995117188
891.294988806434	1414.80004882813
892.005233539141	1422.80004882813
892.715389087837	1404.59997558594
893.42545546036	1413.19995117188
894.135432664543	1419.40002441406
894.845320708216	1416.59997558594
895.555119599216	1427.40002441406
896.264829345375	1420.19995117188
896.974449954526	1425.19995117188
897.683981434496	1428.80004882813
898.393423793125	1423.59997558594
899.102777038235	1422.59997558594
899.812041177664	1425.19995117188
900.521216219239	1411.59997558594
901.230302170793	1400.19995117188
901.939299040155	1421
902.64820683515	1410.80004882813
903.357025563612	1411.59997558594
904.065755233368	1412.40002441406
904.774395852247	1418.40002441406
905.482947428076	1416.19995117188
906.191409968682	1420
906.899783481897	1413.40002441406
907.608067975538	1427.19995117188
908.316263457443	1428.80004882813
909.02436993543	1433.19995117188
909.732387417327	1433.40002441406
910.440315910959	1439
911.148155424154	1417.40002441406
911.855905964731	1418.80004882813
912.563567540521	1398.40002441406
913.271140159339	1397
913.978623829017	1412.40002441406
914.686018557374	1411
915.393324352237	1413.19995117188
916.100541221421	1414.59997558594
916.807669172752	1415.40002441406
917.514708214054	1408.40002441406
918.221658353142	1419.40002441406
918.928519597843	1402
919.635291955976	1404.19995117188
920.341975435358	1398.40002441406
921.048570043813	1405
921.75507578916	1411.59997558594
922.461492679212	1418.80004882813
923.167820721795	1412.59997558594
923.874059924726	1419.59997558594
924.58021029582	1416.59997558594
925.286271842893	1418.80004882813
925.992244573769	1413.40002441406
926.698128496262	1398.80004882813
927.403923618184	1406.80004882813
928.109629947355	1383.59997558594
928.815247491593	1386.80004882813
929.520776258708	1376.40002441406
930.226216256519	1389.19995117188
930.931567492841	1390
931.636829975482	1388.19995117188
932.342003712263	1390
933.047088710995	1408.19995117188
933.752084979491	1404
934.456992525564	1405.80004882813
935.161811357024	1413
935.866541481688	1412.80004882813
936.571182907363	1387
937.275735641861	1387.40002441406
937.980199692995	1391.80004882813
938.684575068572	1393.40002441406
939.388861776411	1397.40002441406
940.093059824311	1406.59997558594
940.797169220085	1406.59997558594
941.501189971544	1413
942.205122086495	1422.40002441406
942.908965572751	1411
943.612720438111	1414.40002441406
944.316386690391	1416.19995117188
945.019964337391	1411.40002441406
945.723453386924	1413.40002441406
946.426853846795	1416.40002441406
947.130165724808	1418
947.83338902877	1412
948.536523766488	1404
949.239569945764	1413.59997558594
949.942527574402	1400.59997558594
950.64539666021	1414.59997558594
951.348177210993	1404.40002441406
952.050869234548	1409.80004882813
952.753472738683	1396
953.455987731199	1393.40002441406
954.158414219898	1393.40002441406
954.860752212587	1398.80004882813
955.563001717061	1396.19995117188
956.265162741124	1386.80004882813
956.967235292576	1386.19995117188
957.669219379224	1385.19995117188
958.371115008857	1394.80004882813
959.072922189283	1395.59997558594
959.774640928301	1396
960.476271233708	1399.80004882813
961.177813113301	1395.19995117188
961.879266574882	1389.80004882813
962.580631626248	1395
963.281908275194	1393.80004882813
963.98309652952	1391.19995117188
964.684196397022	1396.59997558594
965.3852078855	1398
966.086131002745	1404
966.786965756555	1411.59997558594
967.487712154726	1403.40002441406
968.188370205055	1407.19995117188
968.888939915331	1397.59997558594
969.589421293352	1393
970.289814346909	1389
970.990119083801	1400.80004882813
971.690335511819	1385.40002441406
972.39046363875	1385.80004882813
973.090503472398	1388.80004882813
973.790455020545	1381.19995117188
974.490318290987	1389.80004882813
975.190093291516	1399.59997558594
975.889780029923	1404.40002441406
976.589378513998	1397.19995117188
977.288888751527	1392.80004882813
977.988310750308	1411.59997558594
978.687644518122	1404.19995117188
979.386890062767	1399.80004882813
980.086047392025	1408.59997558594
980.785116513689	1410
981.484097435542	1407.59997558594
982.182990165377	1393.59997558594
982.88179471098	1380
983.580511080137	1387.59997558594
984.279139280632	1378
984.977679320253	1376.80004882813
985.67613120679	1375.40002441406
986.374494948027	1386.19995117188
987.072770551745	1391
987.770958025731	1399.59997558594
988.469057377772	1392.80004882813
989.167068615649	1397.40002441406
989.864991747145	1390.40002441406
990.562826780047	1388.80004882813
991.260573722134	1395.59997558594
991.958232581195	1396.40002441406
992.655803365003	1390.80004882813
993.353286081346	1380.59997558594
994.050680738006	1399.59997558594
994.74798734276	1401.59997558594
995.44520590339	1403.80004882813
996.142336427681	1406.59997558594
996.839378923407	1398
997.536333398348	1398.80004882813
998.233199860289	1391.80004882813
998.929978317004	1393.40002441406
999.626668776274	1393.40002441406
1000.32327124587	1389.19995117188
1001.01978573359	1365.59997558594
1001.71621224718	1387.59997558594
1002.41255079445	1404.59997558594
1003.10880138315	1404.40002441406
1003.80496402107	1403.59997558594
1004.50103871599	1404.80004882813
1005.19702547567	1412.59997558594
1005.8929243079	1396.40002441406
1006.58873522045	1390.80004882813
1007.2844582211	1396.80004882813
1007.98009331761	1395.80004882813
1008.67564051776	1387
1009.37109982933	1391
1010.06647126009	1396.80004882813
1010.7617548178	1390.59997558594
1011.45695051026	1385
1012.15205834522	1379.59997558594
1012.84707833045	1377.40002441406
1013.54201047373	1380.19995117188
1014.23685478284	1376.59997558594
1014.93161126553	1373
1015.62627992959	1367
1016.32086078277	1387
1017.01535383285	1384.59997558594
1017.70975908761	1386.40002441406
1018.40407655479	1375.19995117188
1019.09830624219	1394.19995117188
1019.79244815755	1396.40002441406
1020.48650230866	1395.19995117188
1021.18046870328	1413.40002441406
1021.87434734917	1401
1022.56813825411	1402.59997558594
1023.26184142584	1396.80004882813
1023.95545687216	1389.40002441406
1024.64898460082	1394.59997558594
1025.34242461957	1403.40002441406
1026.0357769362	1392
1026.72904155846	1400.59997558594
1027.42221849412	1397
1028.11530775094	1394.59997558594
1028.80830933668	1401.80004882813
1029.50122325911	1401
1030.19404952599	1407.59997558594
1030.88678814508	1407.40002441406
1031.57943912414	1400
1032.27200247093	1373.59997558594
1032.96447819323	1378.40002441406
1033.65686629878	1375.59997558594
1034.34916679534	1372.59997558594
1035.04137969068	1397.80004882813
1035.73350499256	1391.80004882813
1036.42554270874	1391.59997558594
1037.11749284697	1395.19995117188
1037.80935541501	1393.59997558594
1038.50113042062	1403.80004882813
1039.19281787156	1383.40002441406
1039.88441777559	1384.19995117188
1040.57593014046	1382.40002441406
1041.26735497393	1376.40002441406
1041.95869228376	1386.59997558594
1042.6499420777	1392.59997558594
1043.3411043635	1386
1044.03217914893	1384.80004882813
1044.72316644174	1375
1045.41406624968	1392.40002441406
1046.1048785805	1382.40002441406
1046.79560344197	1387.80004882813
1047.48624084182	1392
1048.17679078783	1384.19995117188
1048.86725328774	1380.80004882813
1049.55762834929	1387
1050.24791598025	1374.59997558594
1050.93811618837	1368
1051.62822898139	1375.59997558594
1052.31825436707	1384.59997558594
1053.00819235315	1377.80004882813
1053.6980429474	1381.40002441406
1054.38780615755	1383.80004882813
1055.07748199136	1376.59997558594
1055.76707045658	1375.40002441406
1056.45657156095	1363.40002441406
1057.14598531222	1374.40002441406
1057.83531171814	1369.80004882813
1058.52455078646	1371.19995117188
1059.21370252494	1357.19995117188
1059.90276694129	1359.19995117188
1060.5917440433	1371.80004882813
1061.28063383868	1378.59997558594
1061.9694363352	1372
1062.65815154059	1375.19995117188
1063.34677946261	1389.19995117188
1064.03532010899	1386.40002441406
1064.72377348748	1385.80004882813
1065.41213960583	1385.59997558594
1066.10041847177	1388.80004882813
1066.78861009306	1376.59997558594
1067.47671447743	1376.40002441406
1068.16473163263	1370.80004882813
1068.85266156639	1370.80004882813
1069.54050428647	1365.19995117188
1070.2282598006	1380.19995117188
1070.91592811652	1365.40002441406
1071.60350924198	1374.19995117188
1072.29100318471	1380
1072.97840995245	1388.59997558594
1073.66572955295	1379.19995117188
1074.35296199394	1380
1075.04010728316	1370
1075.72716542836	1372.80004882813
1076.41413643726	1378.40002441406
1077.10102031761	1375.80004882813
1077.78781707715	1372.80004882813
1078.4745267236	1355.80004882813
1079.16114926471	1366.40002441406
1079.84768470822	1374.80004882813
1080.53413306185	1359.40002441406
1081.22049433336	1363.80004882813
1081.90676853046	1361.19995117188
1082.5929556609	1369.59997558594
1083.27905573241	1375.19995117188
1083.96506875272	1384.40002441406
1084.65099472957	1367.40002441406
1085.3368336707	1377.40002441406
1086.02258558383	1373.19995117188
1086.70825047669	1378.59997558594
1087.39382835703	1383.59997558594
1088.07931923257	1371.59997558594
1088.76472311104	1373.80004882813
1089.45004000018	1384.40002441406
1090.13526990771	1373.19995117188
1090.82041284137	1368.59997558594
1091.50546880889	1373.19995117188
1092.19043781799	1367.19995117188
1092.87531987642	1379.40002441406
1093.56011499188	1367.40002441406
1094.24482317212	1366.40002441406
1094.92944442486	1355.40002441406
1095.61397875783	1366
1096.29842617876	1363.59997558594
1096.98278669537	1376
1097.6670603154	1363.80004882813
1098.35124704656	1363.40002441406
1099.03534689659	1358.80004882813
1099.71935987322	1349.80004882813
1100.40328598416	1366.40002441406
1101.08712523713	1366.80004882813
1101.77087763988	1363.19995117188
1102.45454320012	1384
1103.13812192557	1370.40002441406
1103.82161382396	1377.40002441406
1104.50501890301	1380.19995117188
1105.18833717045	1377.40002441406
1105.87156863399	1374.59997558594
1106.55471330137	1379.40002441406
1107.2377711803	1381.40002441406
1107.9207422785	1394.80004882813
1108.60362660369	1399.80004882813
1109.2864241636	1389.40002441406
1109.96913496594	1383.19995117188
1110.65175901844	1378.59997558594
1111.33429632882	1376.59997558594
1112.01674690479	1377
1112.69911075408	1373.40002441406
1113.38138788439	1363.40002441406
1114.06357830346	1374.59997558594
1114.745682019	1375.59997558594
1115.42769903872	1382.19995117188
1116.10962937035	1387
1116.7914730216	1385.59997558594
1117.47323000018	1375.80004882813
1118.15490031382	1383.19995117188
1118.83648397022	1381.59997558594
1119.51798097712	1370.80004882813
1120.1993913422	1365.80004882813
1120.88071507321	1368.40002441406
1121.56195217784	1369.40002441406
1122.24310266381	1369.40002441406
1122.92416653884	1393
1123.60514381064	1377.40002441406
1124.28603448692	1395
1124.9668385754	1386
1125.64755608378	1375.40002441406
1126.32818701978	1369.80004882813
1127.00873139111	1367.40002441406
1127.68918920548	1372.40002441406
1128.3695604706	1374.40002441406
1129.04984519419	1372.59997558594
1129.73004338394	1373.59997558594
1130.41015504758	1374
1131.09018019281	1387
1131.77011882734	1380.40002441406
1132.44997095888	1376.40002441406
1133.12973659514	1385.40002441406
1133.80941574381	1375.59997558594
1134.48900841263	1377.40002441406
1135.16851460927	1364.40002441406
1135.84793434147	1353.40002441406
1136.52726761692	1361
1137.20651444333	1371
1137.8856748284	1366.80004882813
1138.56474877984	1366.40002441406
1139.24373630536	1364.80004882813
1139.92263741265	1370.19995117188
1140.60145210943	1362.19995117188
1141.28018040339	1367.59997558594
1141.95882230225	1380
1142.6373778137	1367.59997558594
1143.31584694545	1367.40002441406
1143.99422970519	1375.40002441406
1144.67252610064	1378.80004882813
1145.35073613949	1364
1146.02885982944	1363.80004882813
1146.7068971782	1360.80004882813
1147.38484819347	1356.19995117188
1148.06271288294	1365.19995117188
1148.74049125432	1372.59997558594
1149.41818331531	1375
1150.0957890736	1385.19995117188
1150.77330853689	1383.19995117188
1151.45074171289	1364
1152.12808860928	1366.19995117188
1152.80534923378	1361.80004882813
1153.48252359407	1343.59997558594
1154.15961169786	1346.40002441406
1154.83661355283	1352.19995117188
1155.51352916669	1359
1156.19035854713	1353.40002441406
1156.86710170185	1351.80004882813
1157.54375863855	1358.40002441406
1158.22032936491	1355
1158.89681388863	1356.19995117188
1159.57321221741	1363.59997558594
1160.24952435894	1372.80004882813
1160.92575032092	1361.40002441406
1161.60189011103	1367
1162.27794373697	1372.19995117188
1162.95391120644	1377.80004882813
1163.62979252712	1374.80004882813
1164.3055877067	1370.40002441406
1164.98129675288	1364
1165.65691967336	1369.40002441406
1166.33245647581	1371
1167.00790716792	1378.40002441406
1167.6832717574	1353
1168.35855025193	1368.59997558594
1169.0337426592	1365.40002441406
1169.70884898689	1360.80004882813
1170.3838692427	1364.40002441406
1171.05880343431	1358.59997558594
1171.73365156941	1357.80004882813
1172.40841365569	1358.40002441406
1173.08308970083	1366.19995117188
1173.75767971253	1363.40002441406
1174.43218369847	1379.19995117188
1175.10660166633	1372.59997558594
1175.7809336238	1364.59997558594
1176.45517957857	1362.80004882813
1177.12933953832	1369.19995117188
1177.80341351073	1365.40002441406
1178.47740150349	1371.40002441406
1179.15130352429	1368.59997558594
1179.8251195808	1375.40002441406
1180.49884968071	1374.59997558594
1181.1724938317	1375.59997558594
1181.84605204145	1382.40002441406
1182.51952431766	1371.59997558594
1183.19291066799	1389.80004882813
1183.86621110013	1381.80004882813
1184.53942562176	1381.59997558594
1185.21255424057	1379.40002441406
1185.88559696422	1390.59997558594
1186.55855380041	1372.80004882813
1187.2314247568	1368.80004882813
1187.90420984109	1379.80004882813
1188.57690906095	1396.19995117188
1189.24952242405	1392.59997558594
1189.92204993808	1388.80004882813
1190.59449161071	1395.59997558594
1191.26684744962	1399.19995117188
1191.93911746249	1399.80004882813
1192.61130165699	1391.80004882813
1193.28340004081	1388.80004882813
1193.95541262161	1390.59997558594
1194.62733940707	1403
1195.29918040487	1401.19995117188
1195.97093562269	1389.40002441406
1196.64260506819	1397.80004882813
1197.31418874905	1383.19995117188
1197.98568667295	1388
1198.65709884755	1393.59997558594
1199.32842528053	1378.80004882813
1199.99966597957	1369.40002441406
1200.67082095234	1383
1201.3418902065	1371.19995117188
1202.01287374974	1377.40002441406
1202.68377158971	1376.19995117188
1203.3545837341	1379.59997558594
1204.02531019057	1377
1204.6959509668	1363.40002441406
1205.36650607045	1372.40002441406
1206.03697550919	1367.80004882813
1206.70735929069	1374.80004882813
1207.37765742263	1375
1208.04786991266	1358.40002441406
1208.71799676846	1364.59997558594
1209.38803799769	1352
1210.05799360803	1349.80004882813
1210.72786360714	1348.80004882813
1211.39764800268	1354.19995117188
1212.06734680233	1356.80004882813
1212.73696001375	1362.59997558594
1213.4064876446	1350
1214.07592970255	1349.19995117188
1214.74528619526	1331.80004882813
1215.4145571304	1339
1216.08374251564	1352.80004882813
1216.75284235863	1356
1217.42185666704	1349.19995117188
1218.09078544854	1358.59997558594
1218.75962871078	1360.19995117188
1219.42838646143	1353.59997558594
1220.09705870816	1346.19995117188
1220.76564545861	1352.19995117188
1221.43414672046	1348
1222.10256250136	1340.80004882813
1222.77089280898	1351.40002441406
1223.43913765098	1359.80004882813
1224.107297035	1357
1224.77537096873	1360.59997558594
1225.44335945981	1350.40002441406
1226.1112625159	1339.40002441406
1226.77908014467	1343.59997558594
1227.44681235376	1353
1228.11445915085	1343.80004882813
1228.78202054357	1346.59997558594
1229.44949653961	1353.59997558594
1230.11688714659	1354.40002441406
1230.7841923722	1353.59997558594
1231.45141222407	1364.19995117188
1232.11854670988	1370.59997558594
1232.78559583726	1372.59997558594
1233.45255961388	1359.40002441406
1234.1194380474	1360.80004882813
1234.78623114546	1375.59997558594
1235.45293891572	1369.40002441406
1236.11956136583	1370.40002441406
1236.78609850345	1380.19995117188
1237.45255033623	1379.40002441406
1238.11891687182	1379.40002441406
1238.78519811788	1369.40002441406
1239.45139408205	1368.59997558594
1240.11750477198	1358.80004882813
1240.78353019534	1357.40002441406
1241.44947035976	1350.40002441406
1242.11532527291	1342.59997558594
1242.78109494242	1340.19995117188
1243.44677937595	1353.59997558594
1244.11237858115	1347.19995117188
1244.77789256567	1345
1245.44332133715	1353.19995117188
1246.10866490325	1355
1246.7739232716	1364.19995117188
1247.43909644987	1361.59997558594
1248.10418444569	1366
1248.76918726671	1365.19995117188
1249.43410492059	1364
1250.09893741496	1363.80004882813
1250.76368475747	1346.59997558594
1251.42834695576	1349.40002441406
1252.09292401749	1350.19995117188
1252.75741595029	1349.59997558594
1253.42182276182	1340.59997558594
1254.08614445971	1359.19995117188
1254.75038105161	1356.80004882813
1255.41453254515	1344.80004882813
1256.07859894799	1343.40002441406
1256.74258026777	1342.19995117188
1257.40647651213	1348.19995117188
1258.0702876887	1333
1258.73401380514	1351.59997558594
1259.39765486908	1342.59997558594
1260.06121088817	1352
1260.72468187004	1355.80004882813
1261.38806782233	1351.80004882813
1262.05136875269	1350.19995117188
1262.71458466875	1360
1263.37771557815	1344.59997558594
1264.04076148854	1357.80004882813
1264.70372240753	1349
1265.3665983428	1353.40002441406
1266.02938930195	1357.19995117188
1266.69209529263	1361.19995117188
1267.35471632249	1367.19995117188
1268.01725239914	1355.40002441406
1268.67970353024	1338.40002441406
1269.34206972342	1345.40002441406
1270.00435098631	1343
1270.66654732655	1339.19995117188
1271.32865875177	1351.19995117188
1271.9906852696	1352.19995117188
1272.65262688768	1349.19995117188
1273.31448361365	1358
1273.97625545514	1359.40002441406
1274.63794241978	1351
1275.2995445152	1343.40002441406
1275.96106174903	1349.80004882813
1276.62249412892	1352.40002441406
1277.28384166248	1354
1277.94510435735	1347.19995117188
1278.60628222116	1351.40002441406
1279.26737526155	1348.40002441406
1279.92838348613	1341
1280.58930690255	1348.80004882813
1281.25014551842	1352.80004882813
1281.91089934139	1358.80004882813
1282.57156837907	1350
1283.2321526391	1361.80004882813
1283.89265212911	1351.59997558594
1284.55306685671	1364.80004882813
1285.21339682955	1330.59997558594
1285.87364205525	1341.19995117188
1286.53380254142	1342.59997558594
1287.19387829571	1330
1287.85386932573	1353.40002441406
1288.51377563911	1343.80004882813
1289.17359724348	1347.40002441406
1289.83333414646	1345.40002441406
1290.49298635567	1334.40002441406
1291.15255387874	1347
1291.8120367233	1345
1292.47143489696	1346.19995117188
1293.13074840736	1343.40002441406
1293.7899772621	1357.40002441406
1294.44912146882	1358.19995117188
1295.10818103513	1346.80004882813
1295.76715596866	1362
1296.42604627704	1358.40002441406
1297.08485196787	1356.40002441406
1297.74357304878	1354
1298.4022095274	1358.59997558594
1299.06076141134	1365.19995117188
1299.71922870821	1360.80004882813
1300.37761142565	1361.19995117188
1301.03590957126	1365.19995117188
1301.69412315268	1345.80004882813
1302.3522521775	1351
1303.01029665336	1343.59997558594
1303.66825658787	1354.59997558594
1304.32613198865	1347.40002441406
1304.98392286332	1345
1305.64162921948	1341
1306.29925106476	1331.19995117188
1306.95678840677	1344.59997558594
1307.61424125312	1348.80004882813
1308.27160961145	1363.40002441406
1308.92889348934	1368.80004882813
1309.58609289443	1368.40002441406
1310.24320783432	1358.80004882813
1310.90023831664	1363.19995117188
1311.55718434898	1354
1312.21404593897	1354.40002441406
1312.87082309421	1355.19995117188
1313.52751582233	1345.59997558594
1314.18412413092	1338.40002441406
1314.84064802761	1333.19995117188
1315.49708752	1347.40002441406
1316.1534426157	1352.59997558594
1316.80971332233	1356.59997558594
1317.46589964749	1372.59997558594
1318.1220015988	1368.80004882813
1318.77801918386	1358.59997558594
1319.43395241028	1363.40002441406
1320.08980128567	1351
1320.74556581764	1342.40002441406
1321.4012460138	1331.59997558594
1322.05684188176	1336.59997558594
1322.71235342911	1350.80004882813
1323.36778066347	1351.59997558594
1324.02312359245	1356.19995117188
1324.67838222365	1371.80004882813
1325.33355656468	1353.40002441406
1325.98864662314	1351.40002441406
1326.64365240663	1356.59997558594
1327.29857392277	1355.80004882813
1327.95341117915	1352
1328.60816418339	1344
1329.26283294308	1342.59997558594
1329.91741746582	1332.80004882813
1330.57191775923	1334.80004882813
1331.2263338309	1349.19995117188
1331.88066568843	1354.40002441406
1332.53491333943	1350.19995117188
1333.1890767915	1357.59997558594
1333.84315605224	1356.80004882813
1334.49715112925	1356.40002441406
1335.15106203013	1349.40002441406
1335.80488876249	1345.80004882813
1336.45863133391	1347.19995117188
1337.112289752	1356.80004882813
1337.76586402437	1360.80004882813
1338.4193541586	1361.40002441406
1339.0727601623	1362.40002441406
1339.72608204306	1373.19995117188
1340.37931980849	1363.59997558594
1341.03247346617	1379
1341.68554302372	1372.59997558594
1342.33852848871	1370
1342.99142986876	1369.40002441406
1343.64424717145	1372.59997558594
1344.29698040438	1377.80004882813
1344.94962957515	1374.40002441406
1345.60219469135	1388.19995117188
1346.25467576058	1386.19995117188
1346.90707279042	1400.59997558594
1347.55938578848	1378.19995117188
1348.21161476235	1380.40002441406
1348.86375971962	1373.40002441406
1349.51582066787	1369.59997558594
1350.16779761472	1387
1350.81969056774	1377.59997558594
1351.47149953453	1381.80004882813
1352.12322452269	1378.19995117188
1352.77486553979	1370.40002441406
1353.42642259344	1372.80004882813
1354.07789569122	1381
1354.72928484072	1367.19995117188
1355.38059004953	1390.40002441406
1356.03181132525	1388.19995117188
1356.68294867545	1392
1357.33400210773	1393.59997558594
1357.98497162968	1387.59997558594
1358.63585724889	1393.19995117188
1359.28665897294	1389.19995117188
1359.93737680942	1399.80004882813
1360.58801076591	1402.40002441406
1361.23856085001	1394.19995117188
1361.88902706929	1407.19995117188
1362.53940943135	1401
1363.18970794377	1396.59997558594
1363.83992261413	1404.40002441406
1364.49005345003	1393.80004882813
1365.14010045904	1393.19995117188
1365.79006364874	1391.19995117188
1366.43994302673	1394.40002441406
1367.08973860058	1406.80004882813
1367.73945037788	1397.19995117188
1368.38907836621	1399.59997558594
1369.03862257315	1385.80004882813
1369.68808300629	1382.59997558594
1370.3374596732	1376
1370.98675258148	1388.80004882813
1371.63596173868	1373.19995117188
1372.28508715241	1387
1372.93412883024	1376.19995117188
1373.58308677974	1379
1374.2319610085	1368.80004882813
1374.8807515241	1360.40002441406
1375.52945833412	1367.80004882813
1376.17808144612	1360.80004882813
1376.82662086771	1373
1377.47507660644	1357.59997558594
1378.12344866989	1357.40002441406
1378.77173706565	1359.19995117188
1379.41994180129	1360
1380.06806288439	1356
1380.71610032252	1354.80004882813
1381.36405412326	1351.59997558594
1382.01192429419	1354
1382.65971084287	1357.59997558594
1383.30741377688	1361
1383.95503310381	1337
1384.60256883121	1344.80004882813
1385.25002096667	1350.19995117188
1385.89738951775	1362
1386.54467449204	1354.59997558594
1387.19187589709	1354
1387.8389937405	1350.19995117188
1388.48602802982	1347
1389.13297877262	1348.19995117188
1389.77984597649	1349.80004882813
1390.42662964899	1349.59997558594
1391.07332979768	1345.59997558594
1391.71994643015	1342.59997558594
1392.36647955395	1353.19995117188
1393.01292917667	1335.80004882813
1393.65929530586	1344.59997558594
1394.3055779491	1328.59997558594
1394.95177711395	1327
1395.59789280799	1341.19995117188
1396.24392503877	1334.80004882813
1396.88987381387	1338.59997558594
1397.53573914086	1332.59997558594
1398.1815210273	1344.40002441406
1398.82721948075	1340.80004882813
1399.47283450878	1337.80004882813
1400.11836611897	1342.19995117188
1400.76381431886	1349.80004882813
1401.40917911603	1333.19995117188
1402.05446051805	1331.19995117188
1402.69965853247	1328.59997558594
1403.34477316686	1329
1403.98980442878	1326.59997558594
1404.6347523258	1340.59997558594
1405.27961686548	1342.19995117188
1405.92439805538	1324.19995117188
1406.56909590306	1340.40002441406
1407.21371041608	1325.19995117188
1407.85824160202	1333.80004882813
1408.50268946841	1328.80004882813
1409.14705402284	1321.59997558594
1409.79133527285	1330.59997558594
1410.43553322601	1346
1411.07964788987	1332
1411.723679272	1336.80004882813
1412.36762737996	1338.59997558594
1413.01149222129	1323.59997558594
1413.65527380357	1319.59997558594
1414.29897213435	1322
1414.94258722118	1314.19995117188
1415.58611907163	1316.59997558594
1416.22956769325	1310.19995117188
1416.87293309359	1315.59997558594
1417.51621528021	1324.59997558594
1418.15941426067	1326.80004882813
1418.80253004253	1325.59997558594
1419.44556263333	1323.80004882813
1420.08851204063	1329
1420.731378272	1339.80004882813
1421.37416133497	1329.19995117188
1422.0168612371	1330.59997558594
1422.65947798596	1336.40002441406
1423.30201158908	1330
1423.94446205403	1327.80004882813
1424.58682938835	1329
1425.2291135996	1329.19995117188
1425.87131469532	1319.40002441406
1426.51343268308	1326.80004882813
1427.15546757042	1332.19995117188
1427.79741936488	1327
1428.43928807403	1339.59997558594
1429.0810737054	1346.40002441406
1429.72277626656	1337.59997558594
1430.36439576504	1335.40002441406
1431.00593220841	1327
1431.64738560419	1328
1432.28875595995	1327.19995117188
1432.93004328324	1326
1433.57124758159	1330
1434.21236886255	1322.19995117188
1434.85340713368	1322.59997558594
1435.49436240252	1329.40002441406
1436.13523467661	1323
1436.77602396349	1326
1437.41673027073	1323
1438.05735360585	1319.40002441406
1438.69789397641	1325
1439.33835138994	1322.80004882813
1439.978725854	1316.59997558594
1440.61901737612	1317.19995117188
1441.25922596385	1323.40002441406
1441.89935162473	1325.80004882813
1442.53939436631	1317.80004882813
1443.17935419612	1315.80004882813
1443.81923112171	1317
1444.45902515061	1313.40002441406
1445.09873629038	1327.59997558594
1445.73836454854	1332.59997558594
1446.37790993265	1334.80004882813
1447.01737245024	1331.19995117188
1447.65675210885	1343.19995117188
1448.29604891602	1334.59997558594
1448.93526287928	1331.19995117188
1449.57439400618	1319.40002441406
1450.21344230426	1321.40002441406
1450.85240778105	1308
1451.49129044409	1314.80004882813
1452.13009030092	1317.59997558594
1452.76880735907	1308.59997558594
1453.40744162608	1310.40002441406
1454.04599310949	1316.40002441406
1454.68446181683	1314.40002441406
1455.32284775564	1316.19995117188
1455.96115093345	1317.80004882813
1456.5993713578	1311.40002441406
1457.23750903623	1304.19995117188
1457.87556397626	1304
1458.51353618543	1301
1459.15142567127	1294.40002441406
1459.78923244132	1305.40002441406
1460.42695650311	1304
1461.06459786417	1302
1461.70215653203	1309.59997558594
1462.33963251423	1312.40002441406
1462.97702581829	1306.80004882813
1463.61433645175	1309.19995117188
1464.25156442214	1321.40002441406
1464.88870973699	1311.40002441406
1465.52577240382	1307.59997558594
1466.16275243017	1319
1466.79964982356	1306.19995117188
1467.43646459154	1311
1468.07319674161	1319
1468.70984628132	1313.40002441406
1469.34641321818	1311.19995117188
1469.98289755974	1316.80004882813
1470.6192993135	1335.59997558594
1471.25561848701	1326.59997558594
1471.89185508779	1326.80004882813
1472.52800912336	1328
1473.16408060124	1337.19995117188
1473.80006952897	1326.19995117188
1474.43597591407	1338.59997558594
1475.07179976406	1328.19995117188
1475.70754108647	1325.19995117188
1476.34319988883	1327.80004882813
1476.97877617865	1335.40002441406
1477.61426996345	1325.40002441406
1478.24968125077	1325.19995117188
1478.88501004812	1326.59997558594
1479.52025636303	1333.40002441406
1480.15542020302	1332.40002441406
1480.79050157561	1329.19995117188
1481.42550048832	1331.59997558594
1482.06041694867	1331
1482.69525096418	1320.59997558594
1483.33000254237	1325.19995117188
1483.96467169077	1313.40002441406
1484.59925841689	1308.59997558594
1485.23376272825	1313.40002441406
1485.86818463237	1308.80004882813
1486.50252413677	1309.40002441406
1487.13678124896	1302.40002441406
1487.77095597646	1301.19995117188
1488.4050483268	1295.80004882813
1489.03905830749	1306
1489.67298592604	1307
1490.30683118996	1321.40002441406
1490.9405941068	1320.80004882813
1491.57427468403	1320.19995117188
1492.2078729292	1325.59997558594
1492.84138884981	1323.19995117188
1493.47482245338	1333.40002441406
1494.10817374742	1325.59997558594
1494.74144273944	1316.80004882813
1495.37462943696	1323
1496.0077338475	1318.19995117188
1496.64075597856	1323.80004882813
1497.27369583765	1305.19995117188
1497.9065534323	1308.59997558594
1498.53932877001	1310.19995117188
1499.17202185829	1318.40002441406
1499.80463270465	1303
1500.43716131661	1307.59997558594
1501.06960770167	1303.80004882813
1501.70197186735	1311.59997558594
1502.33425382116	1301.40002441406
1502.96645357059	1307.40002441406
1503.59857112317	1325.80004882813
1504.23060648641	1319.40002441406
1504.8625596678	1307.40002441406
1505.49443067486	1320.40002441406
1506.1262195151	1312.80004882813
1506.75792619602	1304
1507.38955072513	1306.40002441406
1508.02109310993	1312.59997558594
1508.65255335794	1314
1509.28393147666	1322.59997558594
1509.91522747359	1315
1510.54644135624	1313.19995117188
1511.17757313212	1314.40002441406
1511.80862280872	1321.40002441406
1512.43959039356	1327
1513.07047589413	1299.59997558594
1513.70127931795	1315.40002441406
1514.33200067251	1308.80004882813
1514.96263996531	1297.80004882813
1515.59319720386	1297.80004882813
1516.22367239567	1288.40002441406
1516.85406554822	1284.40002441406
1517.48437666903	1281
1518.1146057656	1280.40002441406
1518.74475284542	1283.40002441406
1519.374817916	1279.40002441406
1520.00480098483	1277.80004882813
1520.63470205942	1274.19995117188
1521.26452114726	1280.40002441406
1521.89425825586	1285.19995117188
1522.52391339271	1298.40002441406
1523.15348656531	1296
1523.78297778116	1300.80004882813
1524.41238704775	1303.80004882813
1525.04171437259	1300.80004882813
1525.67095976317	1296
1526.30012322699	1302.59997558594
1526.92920477154	1296.19995117188
1527.55820440432	1303
1528.18712213283	1301.40002441406
1528.81595796455	1312.40002441406
1529.44471190699	1293.59997558594
1530.07338396764	1299.59997558594
1530.70197415399	1294.40002441406
1531.33048247353	1295.40002441406
1531.95890893377	1306.40002441406
1532.58725354219	1306.40002441406
1533.21551630629	1315.80004882813
1533.84369723356	1322.19995117188
1534.47179633148	1316.80004882813
1535.09981360757	1311
1535.72774906929	1320
1536.35560272415	1309.40002441406
1536.98337457963	1316
1537.61106464323	1321.19995117188
1538.23867292243	1328
1538.86619942473	1334.80004882813
1539.49364415762	1328.19995117188
1540.12100712857	1337
1540.74828834509	1321.19995117188
1541.37548781466	1317.59997558594
1542.00260554478	1321
1542.62964154291	1310
1543.25659581655	1309
1543.8834683732	1299.40002441406
1544.51025922034	1304
1545.13696836544	1309.19995117188
1545.76359581601	1294.80004882813
1546.39014157952	1291.59997558594
1547.01660566345	1288
1547.64298807531	1283.80004882813
1548.26928882255	1290.80004882813
1548.89550791269	1297
1549.52164535318	1295.80004882813
1550.14770115153	1299
1550.77367531521	1296.59997558594
1551.39956785171	1292
1552.0253787685	1303.40002441406
1552.65110807307	1292.40002441406
1553.2767557729	1289.19995117188
1553.90232187548	1287
1554.52780638828	1281.19995117188
1555.15320931879	1283.59997558594
1555.77853067447	1276.40002441406
1556.40377046282	1285.40002441406
1557.02892869132	1290.59997558594
1557.65400536744	1289.80004882813
1558.27900049866	1285.19995117188
1558.90391409247	1286.80004882813
1559.52874615633	1291.40002441406
1560.15349669773	1284
1560.77816572414	1286.59997558594
1561.40275324305	1286.59997558594
1562.02725926192	1288.59997558594
1562.65168378824	1282.80004882813
1563.27602682948	1276.19995117188
1563.90028839311	1288.40002441406
1564.52446848662	1291.19995117188
1565.14856711748	1302.80004882813
1565.77258429316	1300.59997558594
1566.39652002113	1305.40002441406
1567.02037430887	1307.80004882813
1567.64414716387	1306.40002441406
1568.26783859357	1303.80004882813
1568.89144860547	1306.80004882813
1569.51497720703	1294.80004882813
1570.13842440573	1299.40002441406
1570.76179020904	1296
1571.38507462442	1290
1572.00827765936	1293.59997558594
1572.63139932132	1293.19995117188
1573.25443961777	1291.80004882813
1573.87739855618	1287
1574.50027614402	1293.19995117188
1575.12307238877	1285.59997558594
1575.74578729789	1292.19995117188
1576.36842087885	1290
1576.99097313912	1284.19995117188
1577.61344408616	1283.19995117188
1578.23583372745	1275.80004882813
1578.85814207046	1286.59997558594
1579.48036912264	1289.40002441406
1580.10251489147	1294.80004882813
1580.72457938441	1292.80004882813
1581.34656260893	1289.19995117188
1581.9684645725	1283.80004882813
1582.59028528258	1287.40002441406
1583.21202474663	1284.80004882813
1583.83368297212	1271.80004882813
1584.45525996652	1271.80004882813
1585.07675573728	1281.59997558594
1585.69817029188	1280.19995117188
1586.31950363778	1272.19995117188
1586.94075578243	1275.19995117188
1587.5619267333	1267.40002441406
1588.18301649786	1264.19995117188
1588.80402508357	1259.59997558594
1589.42495249788	1260.80004882813
1590.04579874826	1259.59997558594
1590.66656384217	1250.40002441406
1591.28724778707	1252.19995117188
1591.90785059042	1240.80004882813
1592.52837225968	1243.40002441406
1593.14881280232	1241.19995117188
1593.76917222578	1240.40002441406
1594.38945053753	1253
1595.00964774502	1244.19995117188
1595.62976385573	1251.59997558594
1596.24979887709	1250
1596.86975281657	1247.40002441406
1597.48962568164	1260.80004882813
1598.10941747974	1257
1598.72912821832	1258.19995117188
1599.34875790486	1265
1599.9683065468	1245.40002441406
1600.58777415159	1251.40002441406
1601.2071607267	1249
1601.82646627958	1249.19995117188
1602.44569081769	1244.19995117188
1603.06483434846	1244
1603.68389687937	1238
1604.30287841786	1247.59997558594
1604.92177897139	1228.19995117188
1605.54059854741	1246
1606.15933715337	1240.80004882813
1606.77799479672	1230
1607.39657148492	1238
1608.01506722542	1234
1608.63348202566	1223.59997558594
1609.2518158931	1226.19995117188
1609.87006883519	1231.19995117188
1610.48824085939	1224.59997558594
1611.10633197312	1233.40002441406
1611.72434218386	1237.19995117188
1612.34227149904	1245.40002441406
1612.96011992612	1235.19995117188
1613.57788747254	1242.40002441406
1614.19557414575	1239.19995117188
1614.8131799532	1232.59997558594
1615.43070490234	1245
1616.04814900061	1243
1616.66551225545	1249.19995117188
1617.28279467433	1242.59997558594
1617.89999626467	1252.80004882813
1618.51711703393	1235.19995117188
1619.13415698955	1239.40002441406
1619.75111613898	1236.59997558594
1620.36799448966	1233.40002441406
1620.98479204903	1246.80004882813
1621.60150882455	1236.40002441406
1622.21814482364	1246.59997558594
1622.83470005376	1251.40002441406
1623.45117452235	1260.59997558594
1624.06756823685	1258.59997558594
1624.6838812047	1260.40002441406
1625.30011343335	1260.40002441406
1625.91626493022	1261.80004882813
1626.53233570278	1264.80004882813
1627.14832575845	1259.40002441406
1627.76423510468	1247
1628.38006374891	1254
1628.99581169857	1251.80004882813
1629.61147896111	1248.40002441406
1630.22706554397	1248.59997558594
1630.84257145457	1245.40002441406
1631.45799670038	1250.40002441406
1632.07334128881	1247
1632.6886052273	1243.40002441406
1633.3037885233	1237.40002441406
1633.91889118425	1225.80004882813
1634.53391321757	1222
1635.1488546307	1216.59997558594
1635.76371543108	1210
1636.37849562616	1206
1636.99319522335	1195
1637.60781423009	1205.19995117188
1638.22235265383	1209
1638.83681050198	1213.59997558594
1639.451187782	1209.19995117188
1640.0654845013	1208.19995117188
1640.67970066734	1211.19995117188
1641.29383628752	1204.59997558594
1641.9078913693	1206
1642.5218659201	1207.80004882813
1643.13575994735	1217.40002441406
1643.74957345849	1216.59997558594
1644.36330646094	1210.80004882813
1644.97695896213	1217.19995117188
1645.59053096951	1215.80004882813
1646.20402249049	1216.80004882813
1646.8174335325	1225.59997558594
1647.43076410298	1232.40002441406
1648.04401420935	1241.19995117188
1648.65718385905	1248.59997558594
1649.2702730595	1248
1649.88328181812	1255.19995117188
1650.49621014236	1248.19995117188
1651.10905803963	1251.59997558594
1651.72182551735	1246
1652.33451258297	1243.59997558594
1652.9471192439	1236.19995117188
1653.55964550757	1236.40002441406
1654.1720913814	1227.59997558594
1654.78445687283	1227.80004882813
1655.39674198926	1231.80004882813
1656.00894673814	1226.40002441406
1656.62107112688	1227.19995117188
1657.23311516291	1220.59997558594
1657.84507885365	1211.19995117188
1658.45696220652	1222.80004882813
1659.06876522895	1218.19995117188
1659.68048792835	1207.80004882813
1660.29213031217	1215.40002441406
1660.90369238779	1206.80004882813
1661.51517416267	1212.80004882813
1662.12657564421	1210.80004882813
1662.73789683984	1217.40002441406
1663.34913775697	1207
1663.96029840303	1193
1664.57137878544	1190.59997558594
1665.18237891161	1188.40002441406
1665.79329878897	1178.59997558594
1666.40413842493	1181.40002441406
1667.01489782691	1189.80004882813
1667.62557700233	1177.80004882813
1668.2361759586	1181.40002441406
1668.84669470315	1180.80004882813
1669.4571332434	1176.19995117188
1670.06749158675	1173.80004882813
1670.67776974062	1184.59997558594
1671.28796771243	1172
1671.8980855096	1177.40002441406
1672.50812313954	1178.80004882813
1673.11808060967	1178.19995117188
1673.72795792739	1171.59997558594
1674.33775510013	1179.80004882813
1674.9474721353	1184.59997558594
1675.55710904031	1176
1676.16666582257	1177.19995117188
1676.7761424895	1174.19995117188
1677.38553904851	1172
1677.99485550702	1162
1678.60409187243	1154.80004882813
1679.21324815215	1142.80004882813
1679.8223243536	1140
1680.43132048419	1142.40002441406
1681.04023655132	1148.80004882813
1681.64907256241	1150.59997558594
1682.25782852487	1148.19995117188
1682.86650444611	1156.40002441406
1683.47510033353	1150
1684.08361619455	1151.19995117188
1684.69205203657	1143.59997558594
1685.300407867	1148.40002441406
1685.90868369325	1144.40002441406
1686.51687952272	1141.59997558594
1687.12499536283	1148
1687.73303122098	1145.80004882813
1688.34098710457	1146
1688.94886302101	1153.40002441406
1689.55665897772	1151.40002441406
1690.16437498208	1146.59997558594
1690.77201104152	1158.40002441406
1691.37956716342	1160
1691.9870433552	1152.40002441406
1692.59443962426	1153.19995117188
1693.20175597801	1149.59997558594
1693.80899242384	1148.19995117188
1694.41614896916	1145.80004882813
1695.02322562138	1146.40002441406
1695.63022238789	1158
1696.23713927609	1155.40002441406
1696.8439762934	1148
1697.4507334472	1157
1698.05741074491	1145
1698.66400819391	1138.19995117188
1699.27052580161	1147.19995117188
1699.87696357542	1147
1700.48332152272	1149.19995117188
1701.08959965092	1149.59997558594
1701.69579796742	1152.19995117188
1702.30191647962	1143.19995117188
1702.90795519491	1134.40002441406
1703.51391412069	1130
1704.11979326437	1136.19995117188
1704.72559263332	1140.19995117188
1705.33131223496	1141.59997558594
1705.93695207668	1144.59997558594
1706.54251216588	1139
1707.14799250994	1135.19995117188
1707.75339311628	1144.59997558594
1708.35871399227	1135
1708.96395514532	1128.59997558594
1709.56911658282	1125.59997558594
