634.948122577771	1328.19995117188
635.690341530823	1331.80004882813
636.43246851086	1325.19995117188
637.174503525845	1322.19995117188
637.916446583745	1325.19995117188
638.658297692538	1323.80004882813
639.400056860179	1315.80004882813
640.141724094637	1309
640.883299403885	1310
641.62478279588	1322.40002441406
642.366174278594	1319.59997558594
643.107473859989	1314.19995117188
643.848681548029	1324.19995117188
644.589797350679	1314.80004882813
645.330821275901	1319
646.071753331665	1310.19995117188
646.812593525922	1314
647.553341866646	1314.80004882813
648.293998361798	1324.40002441406
649.03456301933	1314.80004882813
649.775035847216	1321.19995117188
650.515416853409	1312.19995117188
651.255706045874	1307.59997558594
651.995903432568	1307.80004882813
652.736009021453	1317.19995117188
653.476022820486	1314.80004882813
654.215944837629	1329.80004882813
654.955775080842	1337
655.695513558081	1331.40002441406
656.435160277301	1337.59997558594
657.174715246465	1333.59997558594
657.914178473527	1329
658.653549966449	1329.80004882813
659.392829733176	1330.40002441406
660.132017781678	1336.59997558594
660.871114119901	1338.59997558594
661.610118755803	1335.19995117188
662.349031697343	1340.19995117188
663.087852952468	1351.80004882813
663.826582529139	1344.59997558594
664.565220435305	1338.59997558594
665.30376667892	1341.80004882813
666.04222126794	1347.40002441406
666.780584210316	1343.80004882813
667.518855514	1341.19995117188
668.25703518694	1346.80004882813
668.995123237096	1337.59997558594
669.733119672413	1338.80004882813
670.471024500842	1332.59997558594
671.208837730333	1344.19995117188
671.946559368839	1341.19995117188
672.684189424308	1347.59997558594
673.421727904689	1347.40002441406
674.159174817929	1339.80004882813
674.896530171977	1328.19995117188
675.633793974786	1331.80004882813
676.370966234295	1328
677.108046958461	1330
677.845036155219	1323.59997558594
678.581933832528	1332.19995117188
679.318739998323	1333.40002441406
680.055454660558	1328.59997558594
680.792077827172	1333
681.528609506116	1348.59997558594
682.265049705331	1349.40002441406
683.001398432759	1338.40002441406
683.737655696349	1346
684.47382150404	1348.40002441406
685.20989586378	1342.19995117188
685.945878783503	1337.59997558594
686.68177027116	1348.80004882813
687.417570334688	1336.19995117188
688.153278982032	1336.80004882813
688.888896221129	1338
689.624422059921	1335.80004882813
690.359856506349	1346.59997558594
691.095199568354	1349.59997558594
691.830451253874	1340.59997558594
692.565611570844	1345.59997558594
693.300680527212	1349.19995117188
694.03565813091	1358.40002441406
694.770544389877	1359.19995117188
695.505339312053	1348.80004882813
696.240042905372	1348.40002441406
696.974655177772	1354.40002441406
697.70917613719	1369.59997558594
698.443605791561	1368.59997558594
699.177944148826	1367.19995117188
699.912191216909	1382.19995117188
700.646347003755	1368.19995117188
701.380411517295	1367.19995117188
702.114384765465	1363.19995117188
702.848266756195	1361.19995117188
703.582057497421	1351.59997558594
704.315756997074	1348
705.049365263089	1350.40002441406
705.782882303399	1340.59997558594
706.516308125936	1341.59997558594
707.249642738626	1343.19995117188
707.982886149403	1344
708.716038366204	1343.19995117188
709.449099396949	1342.40002441406
710.182069249577	1335
710.914947932009	1346.40002441406
711.647735452181	1349.80004882813
712.380431818022	1338.40002441406
713.113037037454	1339.40002441406
713.845551118411	1354.59997558594
714.577974068818	1345.40002441406
715.310305896604	1343.80004882813
716.042546609694	1348.59997558594
716.774696216013	1345.80004882813
717.506754723493	1347.59997558594
718.238722140053	1351
718.970598473624	1356
719.702383732127	1362.59997558594
720.43407792349	1354
721.165681055634	1361.40002441406
721.897193136486	1361.59997558594
722.628614173966	1348.59997558594
723.359944175997	1353.59997558594
724.091183150505	1353
724.822331105412	1357
725.553388048638	1355.19995117188
726.284353988106	1358
727.015228931734	1366.19995117188
727.746012887449	1368.59997558594
728.476705863162	1369.40002441406
729.207307866803	1362
729.937818906289	1364.59997558594
730.668238989535	1345.59997558594
731.398568124459	1353.59997558594
732.128806318986	1348.80004882813
732.858953581034	1346.19995117188
733.589009918514	1357.80004882813
734.318975339348	1357
735.048849851452	1363.80004882813
735.778633462744	1360.80004882813
736.508326181137	1350.19995117188
737.237928014549	1356.59997558594
737.967438970897	1372.19995117188
738.696859058095	1369.59997558594
739.426188284054	1361.40002441406
740.155426656692	1358.80004882813
740.884574183922	1354.59997558594
741.613630873659	1360
742.342596733815	1354.80004882813
743.071471772302	1360.59997558594
743.800255997034	1364.19995117188
744.528949415921	1370.40002441406
745.257552036877	1367.40002441406
745.986063867811	1375
746.714484916638	1373.40002441406
747.442815191261	1375.40002441406
748.171054699597	1367.80004882813
748.899203449554	1367.40002441406
749.627261449039	1371.40002441406
750.355228705966	1356.59997558594
751.083105228239	1365.80004882813
751.810891023765	1365
752.538586100459	1373.40002441406
753.266190466218	1364.19995117188
753.99370412896	1365
754.721127096582	1366.59997558594
755.448459377	1363.59997558594
756.175700978114	1355.80004882813
756.902851907828	1345.59997558594
757.629912174055	1352.19995117188
758.356881784688	1344.19995117188
759.083760747639	1354.59997558594
759.810549070817	1351.80004882813
760.537246762113	1355.59997558594
761.263853829442	1361.19995117188
761.990370280698	1356.80004882813
762.716796123791	1358
763.443131366618	1364.80004882813
764.169376017082	1366.59997558594
764.895530083085	1373.80004882813
765.621593572527	1380.40002441406
766.347566493312	1383.19995117188
767.073448853336	1393.19995117188
767.799240660502	1400.40002441406
768.524941922707	1387.59997558594
769.250552647854	1393.40002441406
769.976072843836	1414.80004882813
770.701502518551	1401.59997558594
771.426841679905	1398
772.152090335793	1395.80004882813
772.877248494107	1392.80004882813
773.602316162747	1398.80004882813
774.327293349609	1399.59997558594
775.052180062592	1431.19995117188
775.776976309589	1415.40002441406
776.501682098496	1400.40002441406
777.226297437206	1403.19995117188
777.950822333616	1403.19995117188
778.675256795621	1394.40002441406
779.399600831111	1397.59997558594
780.123854447983	1402.59997558594
780.84801765413	1401
781.572090457441	1386.59997558594
782.296072865811	1390.80004882813
783.019964887131	1401.80004882813
783.743766529297	1392.40002441406
784.467477800194	1397.59997558594
785.191098707719	1392.40002441406
785.914629259756	1389.59997558594
786.638069464194	1395
787.361419328932	1394.59997558594
788.084678861852	1381.59997558594
788.807848070845	1368.40002441406
789.530926963798	1369.19995117188
790.253915548602	1366.40002441406
790.976813833144	1380
791.699621825307	1377
792.422339532986	1368.40002441406
793.144966964061	1378.59997558594
793.86750412642	1372.40002441406
794.589951027946	1376.19995117188
795.312307676536	1380.19995117188
796.03457408006	1382.59997558594
796.756750246417	1380.59997558594
797.478836183477	1388.59997558594
798.200831899137	1385.59997558594
798.92273740127	1374.40002441406
799.644552697769	1366.59997558594
800.36627779651	1374
801.087912705374	1379
801.809457432251	1368.19995117188
802.530911985017	1362
803.252276371558	1359.59997558594
803.973550599748	1357
804.694734677472	1353.40002441406
805.415828612611	1364
806.136832413045	1376
806.857746086646	1389
807.578569641305	1378.40002441406
808.299303084892	1384.80004882813
809.019946425289	1390.40002441406
809.740499670372	1381.40002441406
810.460962828022	1373.19995117188
811.181335906114	1366.40002441406
811.901618912524	1358.80004882813
812.621811855131	1356.40002441406
813.341914741809	1366.80004882813
814.061927580433	1373.40002441406
814.781850378881	1371.59997558594
815.501683145025	1377.40002441406
816.221425886743	1374.80004882813
816.941078611903	1375.59997558594
817.660641328387	1364.59997558594
818.380114044065	1363.80004882813
819.099496766808	1354.40002441406
819.818789504492	1351
820.53799226499	1351.80004882813
821.257105056168	1352.59997558594
821.976127885904	1351.80004882813
822.695060762064	1355.80004882813
823.413903692525	1364.40002441406
824.132656685151	1385.40002441406
824.851319747817	1376
825.569892888388	1387.80004882813
826.288376114739	1389.40002441406
827.006769434737	1386.80004882813
827.725072856249	1381.59997558594
828.443286387142	1383.19995117188
829.161410035285	1371.40002441406
829.87944380855	1356
830.597387714798	1364
831.315241761898	1361.19995117188
832.033005957715	1365.40002441406
832.750680310119	1355.80004882813
833.468264826969	1361.19995117188
834.18575951614	1364.80004882813
834.903164385486	1371.80004882813
835.620479442878	1365.59997558594
836.337704696181	1358.80004882813
837.054840153255	1352
837.771885821962	1377.59997558594
838.488841710172	1373.59997558594
839.20570782574	1363.80004882813
839.922484176531	1360.80004882813
840.639170770409	1368.59997558594
841.355767615231	1359.19995117188
842.072274718864	1357
842.788692089164	1370.59997558594
843.505019733993	1374.59997558594
844.221257661209	1387.40002441406
844.937405878676	1370.80004882813
845.65346439425	1374.40002441406
846.369433215789	1380.19995117188
847.085312351156	1365.19995117188
847.801101808205	1365.40002441406
848.516801594793	1364.59997558594
849.232411718781	1347.40002441406
849.947932188021	1349.19995117188
850.663363010376	1356
851.378704193698	1366.19995117188
852.093955745842	1364
852.809117674669	1377.19995117188
853.524189988028	1381.40002441406
854.239172693778	1374.80004882813
854.954065799768	1367.59997558594
855.668869313857	1348
856.383583243899	1346.19995117188
857.098207597743	1340.80004882813
857.812742383246	1346
858.527187608255	1357.80004882813
859.241543280628	1363.80004882813
859.955809408218	1369
860.669985998868	1371.59997558594
861.384073060437	1387.19995117188
862.098070600772	1396.19995117188
862.811978627724	1387.40002441406
863.52579714914	1381.59997558594
864.239526172873	1370.59997558594
864.953165706776	1366
865.666715758687	1363.80004882813
866.380176336464	1363.40002441406
867.093547447951	1365.40002441406
867.806829100996	1362.80004882813
868.520021303444	1372.19995117188
869.233124063149	1355.40002441406
869.94613738795	1358
870.659061285693	1362.59997558594
871.37189576423	1357.80004882813
872.084640831403	1364.80004882813
872.797296495057	1366.59997558594
873.509862763039	1371.19995117188
874.22233964319	1377
874.934727143353	1370.59997558594
875.647025271374	1366.59997558594
876.359234035097	1376.80004882813
877.071353442361	1385.40002441406
877.783383501015	1376.40002441406
878.495324218895	1378.59997558594
879.207175603844	1377.19995117188
879.918937663705	1381
880.630610406318	1379.40002441406
881.342193839524	1368.40002441406
882.053687971161	1372.59997558594
882.765092809069	1376.80004882813
883.476408361091	1376.59997558594
884.187634635066	1380.40002441406
884.898771638828	1383
885.609819380221	1379
886.320777867076	1376.59997558594
887.031647107236	1362
887.742427108536	1367
888.453117878816	1369.40002441406
889.16371942591	1363.19995117188
889.874231757652	1364
890.584654881883	1362.59997558594
891.294988806434	1374.59997558594
892.005233539141	1365
892.715389087837	1374
893.42545546036	1367.59997558594
894.135432664543	1356.59997558594
894.845320708216	1374
895.555119599216	1361.59997558594
896.264829345375	1380.40002441406
896.974449954526	1377.59997558594
897.683981434496	1379.59997558594
898.393423793125	1368
899.102777038235	1375
899.812041177664	1370.59997558594
900.521216219239	1363.59997558594
901.230302170793	1363.19995117188
901.939299040155	1374.80004882813
902.64820683515	1368
903.357025563612	1367.80004882813
904.065755233368	1365.59997558594
904.774395852247	1365.40002441406
905.482947428076	1374.59997558594
906.191409968682	1371
906.899783481897	1367.59997558594
907.608067975538	1374.59997558594
908.316263457443	1375.19995117188
909.02436993543	1370.40002441406
909.732387417327	1360.80004882813
910.440315910959	1363
911.148155424154	1366.59997558594
911.855905964731	1352.80004882813
912.563567540521	1343.59997558594
913.271140159339	1355.80004882813
913.978623829017	1357.40002441406
914.686018557374	1354
915.393324352237	1364.59997558594
916.100541221421	1366.59997558594
916.807669172752	1361.59997558594
917.514708214054	1355.80004882813
918.221658353142	1354.19995117188
918.928519597843	1354.80004882813
919.635291955976	1335
920.341975435358	1356.19995117188
921.048570043813	1349
921.75507578916	1361.80004882813
922.461492679212	1361.19995117188
923.167820721795	1369.59997558594
923.874059924726	1375.19995117188
924.58021029582	1371
925.286271842893	1367.19995117188
925.992244573769	1367
926.698128496262	1359
927.403923618184	1351.19995117188
928.109629947355	1340.59997558594
928.815247491593	1342.80004882813
929.520776258708	1348
930.226216256519	1348.40002441406
930.931567492841	1358.80004882813
931.636829975482	1352
932.342003712263	1342.59997558594
933.047088710995	1360.59997558594
933.752084979491	1356
934.456992525564	1356.19995117188
935.161811357024	1368.80004882813
935.866541481688	1350.40002441406
936.571182907363	1361
937.275735641861	1350.80004882813
937.980199692995	1347.40002441406
938.684575068572	1350.59997558594
939.388861776411	1353.40002441406
940.093059824311	1354
940.797169220085	1360.19995117188
941.501189971544	1360.40002441406
942.205122086495	1356.80004882813
942.908965572751	1371.40002441406
943.612720438111	1363.80004882813
944.316386690391	1354.19995117188
945.019964337391	1349
945.723453386924	1355.80004882813
946.426853846795	1350
947.130165724808	1346
947.83338902877	1353.19995117188
948.536523766488	1355.59997558594
949.239569945764	1357.19995117188
949.942527574402	1344.19995117188
950.64539666021	1357.40002441406
951.348177210993	1349.80004882813
952.050869234548	1349.59997558594
952.753472738683	1347.19995117188
953.455987731199	1330.80004882813
954.158414219898	1336.40002441406
954.860752212587	1336.80004882813
955.563001717061	1337.19995117188
956.265162741124	1335.80004882813
956.967235292576	1328.59997558594
957.669219379224	1333
958.371115008857	1340.19995117188
959.072922189283	1334.19995117188
959.774640928301	1346.40002441406
960.476271233708	1352.59997558594
961.177813113301	1342.59997558594
961.879266574882	1333.40002441406
962.580631626248	1343
963.281908275194	1335.59997558594
963.98309652952	1342.40002441406
964.684196397022	1345.80004882813
965.3852078855	1350
966.086131002745	1353.59997558594
966.786965756555	1356.80004882813
967.487712154726	1362
968.188370205055	1360
968.888939915331	1348
969.589421293352	1353.59997558594
970.289814346909	1348.40002441406
970.990119083801	1350.19995117188
971.690335511819	1347
972.39046363875	1343.40002441406
973.090503472398	1335
973.790455020545	1348.19995117188
974.490318290987	1340
975.190093291516	1352
975.889780029923	1346.80004882813
976.589378513998	1351.59997558594
977.288888751527	1352.59997558594
977.988310750308	1360.19995117188
978.687644518122	1364.59997558594
979.386890062767	1356.59997558594
980.086047392025	1361
980.785116513689	1356.19995117188
981.484097435542	1349.80004882813
982.182990165377	1341.40002441406
982.88179471098	1355.40002441406
983.580511080137	1345.40002441406
984.279139280632	1328.80004882813
984.977679320253	1309.40002441406
985.67613120679	1304.80004882813
986.374494948027	1316
987.072770551745	1336
987.770958025731	1341
988.469057377772	1341.59997558594
989.167068615649	1340
989.864991747145	1348.80004882813
990.562826780047	1349.19995117188
991.260573722134	1346.40002441406
991.958232581195	1352.40002441406
992.655803365003	1360.59997558594
993.353286081346	1364
994.050680738006	1357
994.74798734276	1359
995.44520590339	1370.19995117188
996.142336427681	1359.80004882813
996.839378923407	1363.80004882813
997.536333398348	1338.80004882813
998.233199860289	1345.59997558594
998.929978317004	1344.19995117188
999.626668776274	1327.19995117188
1000.32327124587	1343.40002441406
1001.01978573359	1357.80004882813
1001.71621224718	1340
1002.41255079445	1360.40002441406
1003.10880138315	1353.40002441406
1003.80496402107	1358
1004.50103871599	1351.40002441406
1005.19702547567	1357.59997558594
1005.8929243079	1350.40002441406
1006.58873522045	1347
1007.2844582211	1355.59997558594
1007.98009331761	1352.19995117188
1008.67564051776	1349.19995117188
1009.37109982933	1342.40002441406
1010.06647126009	1341
1010.7617548178	1342.19995117188
1011.45695051026	1326.40002441406
1012.15205834522	1325.59997558594
1012.84707833045	1337.80004882813
1013.54201047373	1333.80004882813
1014.23685478284	1326.59997558594
1014.93161126553	1338.19995117188
1015.62627992959	1336.80004882813
1016.32086078277	1337.80004882813
1017.01535383285	1341
1017.70975908761	1339.40002441406
1018.40407655479	1339.40002441406
1019.09830624219	1340.80004882813
1019.79244815755	1340.59997558594
1020.48650230866	1340
1021.18046870328	1346.80004882813
1021.87434734917	1349.40002441406
1022.56813825411	1352.59997558594
1023.26184142584	1347.19995117188
1023.95545687216	1353.40002441406
1024.64898460082	1356.40002441406
1025.34242461957	1361.59997558594
1026.0357769362	1353.59997558594
1026.72904155846	1360.59997558594
1027.42221849412	1354.19995117188
1028.11530775094	1351
1028.80830933668	1363.59997558594
1029.50122325911	1362.19995117188
1030.19404952599	1366.19995117188
1030.88678814508	1354.40002441406
1031.57943912414	1334
1032.27200247093	1339.59997558594
1032.96447819323	1320
1033.65686629878	1324.19995117188
1034.34916679534	1330.40002441406
1035.04137969068	1346.59997558594
1035.73350499256	1339.59997558594
1036.42554270874	1343.80004882813
1037.11749284697	1334.40002441406
1037.80935541501	1341.40002441406
1038.50113042062	1332.40002441406
1039.19281787156	1322.19995117188
1039.88441777559	1336.80004882813
1040.57593014046	1346.80004882813
1041.26735497393	1334.19995117188
1041.95869228376	1334.19995117188
1042.6499420777	1337.40002441406
1043.3411043635	1330.80004882813
1044.03217914893	1333
1044.72316644174	1343.80004882813
1045.41406624968	1337.19995117188
1046.1048785805	1339
1046.79560344197	1348.80004882813
1047.48624084182	1345.40002441406
1048.17679078783	1351.80004882813
1048.86725328774	1328.80004882813
1049.55762834929	1328.19995117188
1050.24791598025	1326
1050.93811618837	1322.59997558594
1051.62822898139	1320.40002441406
1052.31825436707	1318
1053.00819235315	1338.19995117188
1053.6980429474	1332.19995117188
1054.38780615755	1330.40002441406
1055.07748199136	1328.19995117188
1055.76707045658	1327
1056.45657156095	1334.40002441406
1057.14598531222	1332.19995117188
1057.83531171814	1340.80004882813
1058.52455078646	1339.40002441406
1059.21370252494	1335
1059.90276694129	1327.80004882813
1060.5917440433	1331.19995117188
1061.28063383868	1342.19995117188
1061.9694363352	1334.80004882813
1062.65815154059	1343.19995117188
1063.34677946261	1342.40002441406
1064.03532010899	1343.19995117188
1064.72377348748	1351
1065.41213960583	1342
1066.10041847177	1336.40002441406
1066.78861009306	1331.59997558594
1067.47671447743	1328.19995117188
1068.16473163263	1329.59997558594
1068.85266156639	1339.40002441406
1069.54050428647	1335
1070.2282598006	1337.59997558594
1070.91592811652	1336.59997558594
1071.60350924198	1335.40002441406
1072.29100318471	1333.19995117188
1072.97840995245	1324.80004882813
1073.66572955295	1340.19995117188
1074.35296199394	1336.19995117188
1075.04010728316	1324.19995117188
1075.72716542836	1331.19995117188
1076.41413643726	1331.80004882813
1077.10102031761	1335.19995117188
1077.78781707715	1322
1078.4745267236	1325.80004882813
1079.16114926471	1325.19995117188
1079.84768470822	1310.80004882813
1080.53413306185	1322
1081.22049433336	1315.80004882813
1081.90676853046	1322.40002441406
1082.5929556609	1322.40002441406
1083.27905573241	1335.19995117188
1083.96506875272	1341.40002441406
1084.65099472957	1335.40002441406
1085.3368336707	1334
1086.02258558383	1332.59997558594
1086.70825047669	1320.80004882813
1087.39382835703	1322.80004882813
1088.07931923257	1322.59997558594
1088.76472311104	1331.19995117188
1089.45004000018	1330.59997558594
1090.13526990771	1337.40002441406
1090.82041284137	1325.19995117188
1091.50546880889	1310
1092.19043781799	1313.19995117188
1092.87531987642	1317.40002441406
1093.56011499188	1310.80004882813
1094.24482317212	1314.19995117188
1094.92944442486	1314
1095.61397875783	1317.19995117188
1096.29842617876	1313.19995117188
1096.98278669537	1307.40002441406
1097.6670603154	1314.19995117188
1098.35124704656	1312.19995117188
1099.03534689659	1312.19995117188
1099.71935987322	1316
1100.40328598416	1320.80004882813
1101.08712523713	1336.19995117188
1101.77087763988	1331.80004882813
1102.45454320012	1326.19995117188
1103.13812192557	1322
1103.82161382396	1337.19995117188
1104.50501890301	1338.19995117188
1105.18833717045	1326.19995117188
1105.87156863399	1319.40002441406
1106.55471330137	1328.19995117188
1107.2377711803	1328.19995117188
1107.9207422785	1331.59997558594
1108.60362660369	1339.80004882813
1109.2864241636	1337
1109.96913496594	1341.80004882813
1110.65175901844	1342
1111.33429632882	1338.19995117188
1112.01674690479	1326.19995117188
1112.69911075408	1326.19995117188
1113.38138788439	1324.19995117188
1114.06357830346	1334.59997558594
1114.745682019	1330.59997558594
1115.42769903872	1335.40002441406
1116.10962937035	1342.19995117188
1116.7914730216	1328.59997558594
1117.47323000018	1330
1118.15490031382	1326.40002441406
1118.83648397022	1328.19995117188
1119.51798097712	1325
1120.1993913422	1327
1120.88071507321	1319
1121.56195217784	1320
1122.24310266381	1315.19995117188
1122.92416653884	1334.80004882813
1123.60514381064	1331.59997558594
1124.28603448692	1335.40002441406
1124.9668385754	1338
1125.64755608378	1321.40002441406
1126.32818701978	1335
1127.00873139111	1331.40002441406
1127.68918920548	1328.19995117188
1128.3695604706	1335
1129.04984519419	1333.80004882813
1129.73004338394	1331
1130.41015504758	1344.19995117188
1131.09018019281	1339.40002441406
1131.77011882734	1337.80004882813
1132.44997095888	1335
1133.12973659514	1338.80004882813
1133.80941574381	1335
1134.48900841263	1329.59997558594
1135.16851460927	1321.59997558594
1135.84793434147	1317.59997558594
1136.52726761692	1318.19995117188
1137.20651444333	1317
1137.8856748284	1328.19995117188
1138.56474877984	1319.40002441406
1139.24373630536	1317.19995117188
1139.92263741265	1323.19995117188
1140.60145210943	1317.19995117188
1141.28018040339	1325
1141.95882230225	1324.19995117188
1142.6373778137	1320.80004882813
1143.31584694545	1324.59997558594
1143.99422970519	1329.40002441406
1144.67252610064	1329
1145.35073613949	1330.59997558594
1146.02885982944	1323
1146.7068971782	1322.40002441406
1147.38484819347	1315.19995117188
1148.06271288294	1320
1148.74049125432	1335.19995117188
1149.41818331531	1332.80004882813
1150.0957890736	1333.19995117188
1150.77330853689	1323.40002441406
1151.45074171289	1316.19995117188
1152.12808860928	1318.19995117188
1152.80534923378	1302.40002441406
1153.48252359407	1313.59997558594
1154.15961169786	1307
1154.83661355283	1315.19995117188
1155.51352916669	1305
1156.19035854713	1316.19995117188
1156.86710170185	1306.80004882813
1157.54375863855	1305
1158.22032936491	1316.59997558594
1158.89681388863	1303
1159.57321221741	1309.40002441406
1160.24952435894	1315.59997558594
1160.92575032092	1315.59997558594
1161.60189011103	1331.40002441406
1162.27794373697	1331.59997558594
1162.95391120644	1313.80004882813
1163.62979252712	1326.80004882813
1164.3055877067	1326.19995117188
1164.98129675288	1322.40002441406
1165.65691967336	1310.59997558594
1166.33245647581	1302.59997558594
1167.00790716792	1307
1167.6832717574	1305
1168.35855025193	1302.40002441406
1169.0337426592	1303.40002441406
1169.70884898689	1297.40002441406
1170.3838692427	1300.40002441406
1171.05880343431	1304.19995117188
1171.73365156941	1308.19995117188
1172.40841365569	1306.80004882813
1173.08308970083	1317.59997558594
1173.75767971253	1308.59997558594
1174.43218369847	1314.40002441406
1175.10660166633	1310.40002441406
1175.7809336238	1312.40002441406
1176.45517957857	1314.19995117188
1177.12933953832	1307.19995117188
1177.80341351073	1310.80004882813
1178.47740150349	1310.40002441406
1179.15130352429	1319.59997558594
1179.8251195808	1326.19995117188
1180.49884968071	1325.80004882813
1181.1724938317	1328.80004882813
1181.84605204145	1317.80004882813
1182.51952431766	1320.40002441406
1183.19291066799	1321.59997558594
1183.86621110013	1333
1184.53942562176	1325.80004882813
1185.21255424057	1323.80004882813
1185.88559696422	1324.59997558594
1186.55855380041	1318.40002441406
1187.2314247568	1318.40002441406
1187.90420984109	1316.59997558594
1188.57690906095	1330.80004882813
1189.24952242405	1334
1189.92204993808	1328
1190.59449161071	1340
1191.26684744962	1332
1191.93911746249	1338.80004882813
1192.61130165699	1326
1193.28340004081	1335.19995117188
1193.95541262161	1328.19995117188
1194.62733940707	1327
1195.29918040487	1330.59997558594
1195.97093562269	1318.59997558594
1196.64260506819	1324.59997558594
1197.31418874905	1324.19995117188
1197.98568667295	1327.80004882813
1198.65709884755	1321.19995117188
1199.32842528053	1320.59997558594
1199.99966597957	1312
1200.67082095234	1314.59997558594
1201.3418902065	1311.80004882813
1202.01287374974	1322.59997558594
1202.68377158971	1321.40002441406
1203.3545837341	1316.19995117188
1204.02531019057	1313
1204.6959509668	1299.80004882813
1205.36650607045	1309.40002441406
1206.03697550919	1320.19995117188
1206.70735929069	1315
1207.37765742263	1330
1208.04786991266	1322.59997558594
1208.71799676846	1317
1209.38803799769	1302.59997558594
1210.05799360803	1303.59997558594
1210.72786360714	1298.80004882813
1211.39764800268	1298.19995117188
1212.06734680233	1290.19995117188
1212.73696001375	1307.40002441406
1213.4064876446	1298.80004882813
1214.07592970255	1301.59997558594
1214.74528619526	1304.59997558594
1215.4145571304	1295.80004882813
1216.08374251564	1301.19995117188
1216.75284235863	1304.59997558594
1217.42185666704	1313.19995117188
1218.09078544854	1308.59997558594
1218.75962871078	1307.40002441406
1219.42838646143	1302.19995117188
1220.09705870816	1303.19995117188
1220.76564545861	1299.19995117188
1221.43414672046	1302.40002441406
1222.10256250136	1301.19995117188
1222.77089280898	1303
1223.43913765098	1297.40002441406
1224.107297035	1294.19995117188
1224.77537096873	1292
1225.44335945981	1297.19995117188
1226.1112625159	1298.19995117188
1226.77908014467	1284.59997558594
1227.44681235376	1289
1228.11445915085	1300.19995117188
1228.78202054357	1297
1229.44949653961	1287
1230.11688714659	1289
1230.7841923722	1300.19995117188
1231.45141222407	1312
1232.11854670988	1306.80004882813
1232.78559583726	1315.80004882813
1233.45255961388	1315.80004882813
1234.1194380474	1315.80004882813
1234.78623114546	1317
1235.45293891572	1322.80004882813
1236.11956136583	1332
1236.78609850345	1317.40002441406
1237.45255033623	1323.40002441406
1238.11891687182	1332.59997558594
1238.78519811788	1315.19995117188
1239.45139408205	1313
1240.11750477198	1310.80004882813
1240.78353019534	1306.80004882813
1241.44947035976	1314.19995117188
1242.11532527291	1306.19995117188
1242.78109494242	1305.40002441406
1243.44677937595	1286.59997558594
1244.11237858115	1298.59997558594
1244.77789256567	1293.40002441406
1245.44332133715	1302.80004882813
1246.10866490325	1302.19995117188
1246.7739232716	1300.80004882813
1247.43909644987	1301.80004882813
1248.10418444569	1299.19995117188
1248.76918726671	1299.59997558594
1249.43410492059	1288.40002441406
1250.09893741496	1299.19995117188
1250.76368475747	1295.59997558594
1251.42834695576	1282
1252.09292401749	1293.19995117188
1252.75741595029	1300
1253.42182276182	1299.19995117188
1254.08614445971	1307.19995117188
1254.75038105161	1306.19995117188
1255.41453254515	1315
1256.07859894799	1299.80004882813
1256.74258026777	1302
1257.40647651213	1291.80004882813
1258.0702876887	1290.40002441406
1258.73401380514	1290.40002441406
1259.39765486908	1292.40002441406
1260.06121088817	1294.40002441406
1260.72468187004	1306.40002441406
1261.38806782233	1312
1262.05136875269	1307
1262.71458466875	1307.19995117188
1263.37771557815	1293.59997558594
1264.04076148854	1294.59997558594
1264.70372240753	1286.59997558594
1265.3665983428	1289.80004882813
1266.02938930195	1304.19995117188
1266.69209529263	1302.19995117188
1267.35471632249	1311.40002441406
1268.01725239914	1301.80004882813
1268.67970353024	1292.80004882813
1269.34206972342	1285
1270.00435098631	1293
1270.66654732655	1301
1271.32865875177	1298.40002441406
1271.9906852696	1288.40002441406
1272.65262688768	1295
1273.31448361365	1302.40002441406
1273.97625545514	1300
1274.63794241978	1294.40002441406
1275.2995445152	1289.59997558594
1275.96106174903	1299.40002441406
1276.62249412892	1301.40002441406
1277.28384166248	1300.19995117188
1277.94510435735	1295.80004882813
1278.60628222116	1288.19995117188
1279.26737526155	1283.19995117188
1279.92838348613	1286.40002441406
1280.58930690255	1278.40002441406
1281.25014551842	1297.59997558594
1281.91089934139	1299.40002441406
1282.57156837907	1295.80004882813
1283.2321526391	1292.59997558594
1283.89265212911	1294
1284.55306685671	1294.40002441406
1285.21339682955	1293
1285.87364205525	1276.40002441406
1286.53380254142	1270.59997558594
1287.19387829571	1277.80004882813
1287.85386932573	1268.59997558594
1288.51377563911	1283.59997558594
1289.17359724348	1279.40002441406
1289.83333414646	1275.59997558594
1290.49298635567	1288.80004882813
1291.15255387874	1277.19995117188
1291.8120367233	1291.40002441406
1292.47143489696	1285.40002441406
1293.13074840736	1280
1293.7899772621	1286.59997558594
1294.44912146882	1292
1295.10818103513	1282.80004882813
1295.76715596866	1286
1296.42604627704	1265.40002441406
1297.08485196787	1277.40002441406
1297.74357304878	1282.59997558594
1298.4022095274	1284
1299.06076141134	1299
1299.71922870821	1287.40002441406
1300.37761142565	1300.59997558594
1301.03590957126	1301.59997558594
1301.69412315268	1303.19995117188
1302.3522521775	1296.40002441406
1303.01029665336	1308
1303.66825658787	1290.59997558594
1304.32613198865	1305.19995117188
1304.98392286332	1303.40002441406
1305.64162921948	1302.59997558594
1306.29925106476	1287.80004882813
1306.95678840677	1292.59997558594
1307.61424125312	1295.40002441406
1308.27160961145	1296.40002441406
1308.92889348934	1301.40002441406
1309.58609289443	1291.40002441406
1310.24320783432	1303
1310.90023831664	1294.80004882813
1311.55718434898	1293.80004882813
1312.21404593897	1287.59997558594
1312.87082309421	1298
1313.52751582233	1287.59997558594
1314.18412413092	1282.80004882813
1314.84064802761	1285
1315.49708752	1289.80004882813
1316.1534426157	1288.19995117188
1316.80971332233	1288.40002441406
1317.46589964749	1289.59997558594
1318.1220015988	1297.40002441406
1318.77801918386	1304.59997558594
1319.43395241028	1298.59997558594
1320.08980128567	1302.40002441406
1320.74556581764	1290.40002441406
1321.4012460138	1289.40002441406
1322.05684188176	1288
1322.71235342911	1293.80004882813
1323.36778066347	1296.80004882813
1324.02312359245	1297.40002441406
1324.67838222365	1302
1325.33355656468	1296.59997558594
1325.98864662314	1293.59997558594
1326.64365240663	1275.80004882813
1327.29857392277	1273.19995117188
1327.95341117915	1274.19995117188
1328.60816418339	1280.80004882813
1329.26283294308	1273.40002441406
1329.91741746582	1273
1330.57191775923	1279.59997558594
1331.2263338309	1275.40002441406
1331.88066568843	1288
1332.53491333943	1293.19995117188
1333.1890767915	1295
1333.84315605224	1299.40002441406
1334.49715112925	1283.19995117188
1335.15106203013	1292.80004882813
1335.80488876249	1280.59997558594
1336.45863133391	1279.40002441406
1337.112289752	1281.59997558594
1337.76586402437	1288
1338.4193541586	1287
1339.0727601623	1290.19995117188
1339.72608204306	1306.40002441406
1340.37931980849	1301.19995117188
1341.03247346617	1303.80004882813
1341.68554302372	1309
1342.33852848871	1301.59997558594
1342.99142986876	1298.80004882813
1343.64424717145	1298
1344.29698040438	1294.59997558594
1344.94962957515	1303.19995117188
1345.60219469135	1304
1346.25467576058	1313.59997558594
1346.90707279042	1316.59997558594
1347.55938578848	1317
1348.21161476235	1298.80004882813
1348.86375971962	1298.40002441406
1349.51582066787	1293.40002441406
1350.16779761472	1302.40002441406
1350.81969056774	1299.19995117188
1351.47149953453	1297.59997558594
1352.12322452269	1306.40002441406
1352.77486553979	1297.80004882813
1353.42642259344	1291.19995117188
1354.07789569122	1291.80004882813
1354.72928484072	1305
1355.38059004953	1300.80004882813
1356.03181132525	1325.40002441406
1356.68294867545	1317.40002441406
1357.33400210773	1330.40002441406
1357.98497162968	1312.80004882813
1358.63585724889	1322.59997558594
1359.28665897294	1323.59997558594
1359.93737680942	1315.80004882813
1360.58801076591	1331.59997558594
1361.23856085001	1333.19995117188
1361.88902706929	1325.80004882813
1362.53940943135	1322.19995117188
1363.18970794377	1329.59997558594
1363.83992261413	1322.59997558594
1364.49005345003	1332.40002441406
1365.14010045904	1322.40002441406
1365.79006364874	1313.59997558594
1366.43994302673	1324.40002441406
1367.08973860058	1319.80004882813
1367.73945037788	1324
1368.38907836621	1328.40002441406
1369.03862257315	1328.80004882813
1369.68808300629	1315.59997558594
1370.3374596732	1316.19995117188
1370.98675258148	1316.80004882813
1371.63596173868	1327.80004882813
1372.28508715241	1316.80004882813
1372.93412883024	1312
1373.58308677974	1308.80004882813
1374.2319610085	1301.19995117188
1374.8807515241	1295.40002441406
1375.52945833412	1284.40002441406
1376.17808144612	1282.59997558594
1376.82662086771	1283.40002441406
1377.47507660644	1282.59997558594
1378.12344866989	1280.40002441406
1378.77173706565	1287
1379.41994180129	1294
1380.06806288439	1296
1380.71610032252	1302.59997558594
1381.36405412326	1292.19995117188
1382.01192429419	1291.19995117188
1382.65971084287	1286
1383.30741377688	1287
1383.95503310381	1284.40002441406
1384.60256883121	1278.40002441406
1385.25002096667	1287
1385.89738951775	1283.80004882813
1386.54467449204	1291.40002441406
1387.19187589709	1277.40002441406
1387.8389937405	1272.19995117188
1388.48602802982	1272.59997558594
1389.13297877262	1266.19995117188
1389.77984597649	1273.19995117188
1390.42662964899	1271.80004882813
1391.07332979768	1269.80004882813
1391.71994643015	1283.59997558594
1392.36647955395	1275.40002441406
1393.01292917667	1267.59997558594
1393.65929530586	1267
1394.3055779491	1263.40002441406
1394.95177711395	1270.40002441406
1395.59789280799	1253.80004882813
1396.24392503877	1264.40002441406
1396.88987381387	1274
1397.53573914086	1270.19995117188
1398.1815210273	1284.59997558594
1398.82721948075	1285
1399.47283450878	1292.59997558594
1400.11836611897	1282.19995117188
1400.76381431886	1286.19995117188
1401.40917911603	1259.40002441406
1402.05446051805	1249
1402.69965853247	1251.80004882813
1403.34477316686	1248.80004882813
1403.98980442878	1267
1404.6347523258	1260
1405.27961686548	1257.19995117188
1405.92439805538	1268.80004882813
1406.56909590306	1271
1407.21371041608	1267
1407.85824160202	1254.59997558594
1408.50268946841	1263.40002441406
1409.14705402284	1263
1409.79133527285	1265.19995117188
1410.43553322601	1270.40002441406
1411.07964788987	1272.40002441406
1411.723679272	1273.40002441406
1412.36762737996	1274.19995117188
1413.01149222129	1257.59997558594
1413.65527380357	1257.59997558594
1414.29897213435	1255.40002441406
1414.94258722118	1259.80004882813
1415.58611907163	1269
1416.22956769325	1260.40002441406
1416.87293309359	1254
1417.51621528021	1262.19995117188
1418.15941426067	1257.19995117188
1418.80253004253	1260.80004882813
1419.44556263333	1268.19995117188
1420.08851204063	1278.80004882813
1420.731378272	1279.59997558594
1421.37416133497	1281
1422.0168612371	1286.19995117188
1422.65947798596	1280.80004882813
1423.30201158908	1283.40002441406
1423.94446205403	1279.40002441406
1424.58682938835	1272.80004882813
1425.2291135996	1269
1425.87131469532	1279.19995117188
1426.51343268308	1271.19995117188
1427.15546757042	1274.80004882813
1427.79741936488	1283.40002441406
1428.43928807403	1273.40002441406
1429.0810737054	1284
1429.72277626656	1279.19995117188
1430.36439576504	1274.19995117188
1431.00593220841	1271.80004882813
1431.64738560419	1270.40002441406
1432.28875595995	1267.80004882813
1432.93004328324	1262
1433.57124758159	1255.19995117188
1434.21236886255	1263.59997558594
1434.85340713368	1273.59997558594
1435.49436240252	1278
1436.13523467661	1268.19995117188
1436.77602396349	1267
1437.41673027073	1262.40002441406
1438.05735360585	1267
1438.69789397641	1253.19995117188
1439.33835138994	1252
1439.978725854	1258.19995117188
1440.61901737612	1267.40002441406
1441.25922596385	1265
1441.89935162473	1262.80004882813
1442.53939436631	1256.80004882813
1443.17935419612	1254.40002441406
1443.81923112171	1247.19995117188
1444.45902515061	1263
1445.09873629038	1266.19995117188
1445.73836454854	1278.59997558594
1446.37790993265	1274.40002441406
1447.01737245024	1276.40002441406
1447.65675210885	1270.80004882813
1448.29604891602	1259
1448.93526287928	1260
1449.57439400618	1256
1450.21344230426	1252.40002441406
1450.85240778105	1259
1451.49129044409	1254.80004882813
1452.13009030092	1255.80004882813
1452.76880735907	1252.40002441406
1453.40744162608	1250.19995117188
1454.04599310949	1249.59997558594
1454.68446181683	1259
1455.32284775564	1243.40002441406
1455.96115093345	1247
1456.5993713578	1254
1457.23750903623	1241
1457.87556397626	1243.19995117188
1458.51353618543	1247.40002441406
1459.15142567127	1241.80004882813
1459.78923244132	1244
1460.42695650311	1248.80004882813
1461.06459786417	1257
1461.70215653203	1258.80004882813
1462.33963251423	1269.80004882813
1462.97702581829	1261.40002441406
1463.61433645175	1260.59997558594
1464.25156442214	1260.19995117188
1464.88870973699	1261.40002441406
1465.52577240382	1261.19995117188
1466.16275243017	1266
1466.79964982356	1251.40002441406
1467.43646459154	1250.59997558594
1468.07319674161	1252.40002441406
1468.70984628132	1254.19995117188
1469.34641321818	1251.80004882813
1469.98289755974	1260.80004882813
1470.6192993135	1253
1471.25561848701	1251.40002441406
1471.89185508779	1273.59997558594
1472.52800912336	1261.40002441406
1473.16408060124	1271
1473.80006952897	1264
1474.43597591407	1264.40002441406
1475.07179976406	1264.40002441406
1475.70754108647	1253.40002441406
1476.34319988883	1260.80004882813
1476.97877617865	1250.19995117188
1477.61426996345	1251
1478.24968125077	1251.19995117188
1478.88501004812	1247.80004882813
1479.52025636303	1251.40002441406
1480.15542020302	1253
1480.79050157561	1258
1481.42550048832	1258.59997558594
1482.06041694867	1253.19995117188
1482.69525096418	1257.59997558594
1483.33000254237	1251.59997558594
1483.96467169077	1258.19995117188
1484.59925841689	1248.40002441406
1485.23376272825	1244.40002441406
1485.86818463237	1240
1486.50252413677	1242.40002441406
1487.13678124896	1241
1487.77095597646	1237
1488.4050483268	1240.80004882813
1489.03905830749	1241
1489.67298592604	1245.80004882813
1490.30683118996	1246.19995117188
1490.9405941068	1252.80004882813
1491.57427468403	1250.40002441406
1492.2078729292	1260
1492.84138884981	1265.40002441406
1493.47482245338	1264.59997558594
1494.10817374742	1259.80004882813
1494.74144273944	1253.80004882813
1495.37462943696	1251.40002441406
1496.0077338475	1260.19995117188
1496.64075597856	1243.19995117188
1497.27369583765	1245
1497.9065534323	1245.80004882813
1498.53932877001	1243.40002441406
1499.17202185829	1241.40002441406
1499.80463270465	1241
1500.43716131661	1237.59997558594
1501.06960770167	1244
1501.70197186735	1243.40002441406
1502.33425382116	1246.59997558594
1502.96645357059	1254.80004882813
1503.59857112317	1251.80004882813
1504.23060648641	1250
1504.8625596678	1250
1505.49443067486	1256.40002441406
1506.1262195151	1252.59997558594
1506.75792619602	1255.59997558594
1507.38955072513	1243.40002441406
1508.02109310993	1242.59997558594
1508.65255335794	1252.19995117188
1509.28393147666	1250
1509.91522747359	1252.80004882813
1510.54644135624	1267
1511.17757313212	1261.40002441406
1511.80862280872	1270
1512.43959039356	1267
1513.07047589413	1262
1513.70127931795	1260
1514.33200067251	1254.19995117188
1514.96263996531	1242.80004882813
1515.59319720386	1238.40002441406
1516.22367239567	1242.80004882813
1516.85406554822	1233.19995117188
1517.48437666903	1243.40002441406
1518.1146057656	1231.19995117188
1518.74475284542	1226.19995117188
1519.374817916	1232
1520.00480098483	1228.40002441406
1520.63470205942	1241
1521.26452114726	1240.80004882813
1521.89425825586	1232
1522.52391339271	1238
1523.15348656531	1241
1523.78297778116	1247.19995117188
1524.41238704775	1242.19995117188
1525.04171437259	1243.19995117188
1525.67095976317	1238.19995117188
1526.30012322699	1246.19995117188
1526.92920477154	1245.80004882813
1527.55820440432	1245.80004882813
1528.18712213283	1236.40002441406
1528.81595796455	1240.40002441406
1529.44471190699	1232.80004882813
1530.07338396764	1226.19995117188
1530.70197415399	1228.80004882813
1531.33048247353	1236.40002441406
1531.95890893377	1239.80004882813
1532.58725354219	1234
1533.21551630629	1252.59997558594
1533.84369723356	1255.59997558594
1534.47179633148	1251.19995117188
1535.09981360757	1255.19995117188
1535.72774906929	1241.19995117188
1536.35560272415	1245.19995117188
1536.98337457963	1248.59997558594
1537.61106464323	1242.59997558594
1538.23867292243	1248.19995117188
1538.86619942473	1240.19995117188
1539.49364415762	1238.80004882813
1540.12100712857	1246.19995117188
1540.74828834509	1239.19995117188
1541.37548781466	1241
1542.00260554478	1237.80004882813
1542.62964154291	1234.80004882813
1543.25659581655	1247.59997558594
1543.8834683732	1248.59997558594
1544.51025922034	1245.19995117188
1545.13696836544	1246.59997558594
1545.76359581601	1246.59997558594
1546.39014157952	1233.80004882813
1547.01660566345	1230
1547.64298807531	1221.19995117188
1548.26928882255	1212.80004882813
1548.89550791269	1221.80004882813
1549.52164535318	1216.19995117188
1550.14770115153	1220.40002441406
1550.77367531521	1222
1551.39956785171	1226.59997558594
1552.0253787685	1227
1552.65110807307	1234.40002441406
1553.2767557729	1235.40002441406
1553.90232187548	1226.59997558594
1554.52780638828	1220
1555.15320931879	1223.80004882813
1555.77853067447	1210.59997558594
1556.40377046282	1206.59997558594
1557.02892869132	1208.59997558594
1557.65400536744	1216
1558.27900049866	1212.80004882813
1558.90391409247	1226
1559.52874615633	1224
1560.15349669773	1220
1560.77816572414	1225.40002441406
1561.40275324305	1230.80004882813
1562.02725926192	1224
1562.65168378824	1226.59997558594
1563.27602682948	1230.40002441406
1563.90028839311	1220.59997558594
1564.52446848662	1224
1565.14856711748	1232.80004882813
1565.77258429316	1234.19995117188
1566.39652002113	1231.40002441406
1567.02037430887	1239.19995117188
1567.64414716387	1229.40002441406
1568.26783859357	1236.59997558594
1568.89144860547	1230.19995117188
1569.51497720703	1237
1570.13842440573	1233.40002441406
1570.76179020904	1233
1571.38507462442	1236.19995117188
1572.00827765936	1236.59997558594
1572.63139932132	1230.80004882813
1573.25443961777	1236.19995117188
1573.87739855618	1219
1574.50027614402	1227.40002441406
1575.12307238877	1232.80004882813
1575.74578729789	1227.19995117188
1576.36842087885	1231.40002441406
1576.99097313912	1222.40002441406
1577.61344408616	1219.40002441406
1578.23583372745	1216.59997558594
1578.85814207046	1223
1579.48036912264	1221.40002441406
1580.10251489147	1227.80004882813
1580.72457938441	1223.40002441406
1581.34656260893	1222
1581.9684645725	1222.19995117188
1582.59028528258	1218.19995117188
1583.21202474663	1220.40002441406
1583.83368297212	1216
1584.45525996652	1212.59997558594
1585.07675573728	1216
1585.69817029188	1213.80004882813
1586.31950363778	1212.80004882813
1586.94075578243	1206
1587.5619267333	1204.40002441406
1588.18301649786	1208
1588.80402508357	1199.80004882813
1589.42495249788	1194.59997558594
1590.04579874826	1191
1590.66656384217	1187
1591.28724778707	1190
1591.90785059042	1182.40002441406
1592.52837225968	1184.19995117188
1593.14881280232	1188.40002441406
1593.76917222578	1180.80004882813
1594.38945053753	1185.80004882813
1595.00964774502	1192.19995117188
1595.62976385573	1201.80004882813
1596.24979887709	1201.19995117188
1596.86975281657	1198.40002441406
1597.48962568164	1190
1598.10941747974	1189.59997558594
1598.72912821832	1197.40002441406
1599.34875790486	1191.80004882813
1599.9683065468	1194.59997558594
1600.58777415159	1188.19995117188
1601.2071607267	1193.59997558594
1601.82646627958	1188.59997558594
1602.44569081769	1194.59997558594
1603.06483434846	1186.40002441406
1603.68389687937	1184.59997558594
1604.30287841786	1175.40002441406
1604.92177897139	1178.40002441406
1605.54059854741	1169.59997558594
1606.15933715337	1175.19995117188
1606.77799479672	1179.80004882813
1607.39657148492	1176
1608.01506722542	1172.19995117188
1608.63348202566	1169.40002441406
1609.2518158931	1174.19995117188
1609.87006883519	1176.59997558594
1610.48824085939	1174
1611.10633197312	1182.40002441406
1611.72434218386	1182
1612.34227149904	1186.40002441406
1612.96011992612	1190
1613.57788747254	1195.19995117188
1614.19557414575	1184.59997558594
1614.8131799532	1178
1615.43070490234	1176.40002441406
1616.04814900061	1181
1616.66551225545	1178.80004882813
1617.28279467433	1179.59997558594
1617.89999626467	1176.59997558594
1618.51711703393	1173
1619.13415698955	1172.80004882813
1619.75111613898	1164.59997558594
1620.36799448966	1166.19995117188
1620.98479204903	1173
1621.60150882455	1165.19995117188
1622.21814482364	1167.59997558594
1622.83470005376	1165
1623.45117452235	1174.80004882813
1624.06756823685	1181.19995117188
1624.6838812047	1176.80004882813
1625.30011343335	1180.40002441406
1625.91626493022	1181.59997558594
1626.53233570278	1181.80004882813
1627.14832575845	1186
1627.76423510468	1178.59997558594
1628.38006374891	1175.59997558594
1628.99581169857	1178.80004882813
1629.61147896111	1181.40002441406
1630.22706554397	1176.59997558594
1630.84257145457	1180.59997558594
1631.45799670038	1179.19995117188
1632.07334128881	1188.59997558594
1632.6886052273	1185
1633.3037885233	1174.19995117188
1633.91889118425	1169.80004882813
1634.53391321757	1179.80004882813
1635.1488546307	1167
1635.76371543108	1156
1636.37849562616	1158.40002441406
1636.99319522335	1163.19995117188
1637.60781423009	1160.80004882813
1638.22235265383	1160
1638.83681050198	1161.19995117188
1639.451187782	1169.40002441406
1640.0654845013	1161.19995117188
1640.67970066734	1167.19995117188
1641.29383628752	1170.40002441406
1641.9078913693	1176
1642.5218659201	1158.80004882813
1643.13575994735	1166.19995117188
1643.74957345849	1173.19995117188
1644.36330646094	1177.40002441406
1644.97695896213	1163
1645.59053096951	1162
1646.20402249049	1177.80004882813
1646.8174335325	1181.59997558594
1647.43076410298	1189.19995117188
1648.04401420935	1196.40002441406
1648.65718385905	1192
1649.2702730595	1199.40002441406
1649.88328181812	1192
1650.49621014236	1196
1651.10905803963	1188.40002441406
1651.72182551735	1177.19995117188
1652.33451258297	1176.59997558594
1652.9471192439	1179.19995117188
1653.55964550757	1182.19995117188
1654.1720913814	1182.59997558594
1654.78445687283	1172.59997558594
1655.39674198926	1174.19995117188
1656.00894673814	1166
1656.62107112688	1160.80004882813
1657.23311516291	1165.80004882813
1657.84507885365	1161.80004882813
1658.45696220652	1161.40002441406
1659.06876522895	1159.80004882813
1659.68048792835	1156
1660.29213031217	1157.80004882813
1660.90369238779	1154.80004882813
1661.51517416267	1159.59997558594
1662.12657564421	1156.40002441406
1662.73789683984	1153.40002441406
1663.34913775697	1148.40002441406
1663.96029840303	1149.40002441406
1664.57137878544	1144
1665.18237891161	1134.19995117188
1665.79329878897	1123.40002441406
1666.40413842493	1131.40002441406
1667.01489782691	1131.19995117188
1667.62557700233	1131.59997558594
1668.2361759586	1133.80004882813
1668.84669470315	1132.40002441406
1669.4571332434	1133.59997558594
1670.06749158675	1137.40002441406
1670.67776974062	1131.19995117188
1671.28796771243	1133
1671.8980855096	1134.19995117188
1672.50812313954	1129.80004882813
1673.11808060967	1132.40002441406
1673.72795792739	1132
1674.33775510013	1132
1674.9474721353	1139.40002441406
1675.55710904031	1137
1676.16666582257	1133.19995117188
1676.7761424895	1132
1677.38553904851	1121.59997558594
1677.99485550702	1128.59997558594
1678.60409187243	1119.19995117188
1679.21324815215	1120
1679.8223243536	1110.40002441406
1680.43132048419	1100.59997558594
1681.04023655132	1108.80004882813
1681.64907256241	1111.80004882813
1682.25782852487	1108.59997558594
1682.86650444611	1107.80004882813
1683.47510033353	1112.59997558594
1684.08361619455	1105.40002441406
1684.69205203657	1110.80004882813
1685.300407867	1103.40002441406
1685.90868369325	1106.40002441406
1686.51687952272	1105.80004882813
1687.12499536283	1104.40002441406
1687.73303122098	1098
1688.34098710457	1104.80004882813
1688.94886302101	1109.19995117188
1689.55665897772	1106.40002441406
1690.16437498208	1107.40002441406
1690.77201104152	1104.59997558594
1691.37956716342	1114.40002441406
1691.9870433552	1113.40002441406
1692.59443962426	1115.80004882813
1693.20175597801	1108.40002441406
1693.80899242384	1119
1694.41614896916	1105.59997558594
1695.02322562138	1107
1695.63022238789	1113.19995117188
1696.23713927609	1108.40002441406
1696.8439762934	1111
1697.4507334472	1119.59997558594
1698.05741074491	1116.40002441406
1698.66400819391	1116
1699.27052580161	1113.59997558594
1699.87696357542	1110.40002441406
1700.48332152272	1104.80004882813
1701.08959965092	1107.19995117188
1701.69579796742	1107.80004882813
1702.30191647962	1097.59997558594
1702.90795519491	1099.19995117188
1703.51391412069	1094
1704.11979326437	1092.59997558594
1704.72559263332	1089.59997558594
1705.33131223496	1092
1705.93695207668	1094.40002441406
1706.54251216588	1090
1707.14799250994	1093.40002441406
1707.75339311628	1092.19995117188
1708.35871399227	1094.40002441406
1708.96395514532	1088
1709.56911658282	1096
