634.948122577771	1426.59997558594
635.690341530823	1434.40002441406
636.43246851086	1424.19995117188
637.174503525845	1422.40002441406
637.916446583745	1408.19995117188
638.658297692538	1411
639.400056860179	1400.19995117188
640.141724094637	1403.40002441406
640.883299403885	1395.59997558594
641.62478279588	1405.59997558594
642.366174278594	1415
643.107473859989	1412.40002441406
643.848681548029	1411.80004882813
644.589797350679	1414.59997558594
645.330821275901	1403
646.071753331665	1404.19995117188
646.812593525922	1405.59997558594
647.553341866646	1407.40002441406
648.293998361798	1410.59997558594
649.03456301933	1422.19995117188
649.775035847216	1407.59997558594
650.515416853409	1408.59997558594
651.255706045874	1399.19995117188
651.995903432568	1404
652.736009021453	1409.80004882813
653.476022820486	1434
654.215944837629	1435
654.955775080842	1438.59997558594
655.695513558081	1435.59997558594
656.435160277301	1444.80004882813
657.174715246465	1430.19995117188
657.914178473527	1447.40002441406
658.653549966449	1440
659.392829733176	1443
660.132017781678	1442.40002441406
660.871114119901	1430.19995117188
661.610118755803	1450.59997558594
662.349031697343	1455.19995117188
663.087852952468	1457.19995117188
663.826582529139	1451.40002441406
664.565220435305	1430.80004882813
665.30376667892	1444.19995117188
666.04222126794	1450.80004882813
666.780584210316	1443.80004882813
667.518855514	1436.19995117188
668.25703518694	1455.19995117188
668.995123237096	1458
669.733119672413	1469.40002441406
670.471024500842	1463.19995117188
671.208837730333	1452.19995117188
671.946559368839	1456.40002441406
672.684189424308	1448.59997558594
673.421727904689	1450.80004882813
674.159174817929	1435
674.896530171977	1431.19995117188
675.633793974786	1438.59997558594
676.370966234295	1443
677.108046958461	1425.40002441406
677.845036155219	1431
678.581933832528	1434.59997558594
679.318739998323	1447.40002441406
680.055454660558	1442.40002441406
680.792077827172	1454
681.528609506116	1446.40002441406
682.265049705331	1457
683.001398432759	1456.59997558594
683.737655696349	1451.80004882813
684.47382150404	1444.19995117188
685.20989586378	1443.19995117188
685.945878783503	1453.40002441406
686.68177027116	1446
687.417570334688	1430.80004882813
688.153278982032	1428.59997558594
688.888896221129	1424.40002441406
689.624422059921	1443.59997558594
690.359856506349	1434.40002441406
691.095199568354	1434.40002441406
691.830451253874	1447.40002441406
692.565611570844	1452.80004882813
693.300680527212	1461
694.03565813091	1466.59997558594
694.770544389877	1469
695.505339312053	1453.40002441406
696.240042905372	1463.19995117188
696.974655177772	1474.80004882813
697.70917613719	1464.59997558594
698.443605791561	1478.59997558594
699.177944148826	1484.19995117188
699.912191216909	1475.80004882813
700.646347003755	1479.59997558594
701.380411517295	1498.19995117188
702.114384765465	1478.80004882813
702.848266756195	1487
703.582057497421	1462
704.315756997074	1460.80004882813
705.049365263089	1449.19995117188
705.782882303399	1448.80004882813
706.516308125936	1456.59997558594
707.249642738626	1458.80004882813
707.982886149403	1463.80004882813
708.716038366204	1454
709.449099396949	1441.40002441406
710.182069249577	1442
710.914947932009	1438.80004882813
711.647735452181	1443.80004882813
712.380431818022	1430.40002441406
713.113037037454	1449.80004882813
713.845551118411	1449
714.577974068818	1444.59997558594
715.310305896604	1453.80004882813
716.042546609694	1446.59997558594
716.774696216013	1457.80004882813
717.506754723493	1461.19995117188
718.238722140053	1468
718.970598473624	1463.19995117188
719.702383732127	1473
720.43407792349	1462.40002441406
721.165681055634	1467.40002441406
721.897193136486	1473.59997558594
722.628614173966	1472.19995117188
723.359944175997	1471
724.091183150505	1482.19995117188
724.822331105412	1466.59997558594
725.553388048638	1470.40002441406
726.284353988106	1459.80004882813
727.015228931734	1460.40002441406
727.746012887449	1472.59997558594
728.476705863162	1475.19995117188
729.207307866803	1483.40002441406
729.937818906289	1478
730.668238989535	1471.80004882813
731.398568124459	1453.59997558594
732.128806318986	1456.59997558594
732.858953581034	1454.59997558594
733.589009918514	1467.59997558594
734.318975339348	1480.40002441406
735.048849851452	1482.80004882813
735.778633462744	1484.80004882813
736.508326181137	1470.80004882813
737.237928014549	1478.19995117188
737.967438970897	1479.40002441406
738.696859058095	1475.80004882813
739.426188284054	1471
740.155426656692	1461.59997558594
740.884574183922	1457.80004882813
741.613630873659	1471.59997558594
742.342596733815	1464.19995117188
743.071471772302	1462.19995117188
743.800255997034	1474.40002441406
744.528949415921	1483.40002441406
745.257552036877	1474.40002441406
745.986063867811	1481.19995117188
746.714484916638	1485
747.442815191261	1477.19995117188
748.171054699597	1472.19995117188
748.899203449554	1478.40002441406
749.627261449039	1479.40002441406
750.355228705966	1477.19995117188
751.083105228239	1489.40002441406
751.810891023765	1477.19995117188
752.538586100459	1474.80004882813
753.266190466218	1469.59997558594
753.99370412896	1478.80004882813
754.721127096582	1483.40002441406
755.448459377	1490.19995117188
756.175700978114	1474.59997558594
756.902851907828	1470.40002441406
757.629912174055	1460.40002441406
758.356881784688	1455.59997558594
759.083760747639	1462
759.810549070817	1459.59997558594
760.537246762113	1469.59997558594
761.263853829442	1472.40002441406
761.990370280698	1458.80004882813
762.716796123791	1466.80004882813
763.443131366618	1478.80004882813
764.169376017082	1486.59997558594
764.895530083085	1494.80004882813
765.621593572527	1511.59997558594
766.347566493312	1504.40002441406
767.073448853336	1543.19995117188
767.799240660502	1532.80004882813
768.524941922707	1540.40002441406
769.250552647854	1535.80004882813
769.976072843836	1533
770.701502518551	1521.19995117188
771.426841679905	1522.59997558594
772.152090335793	1527.40002441406
772.877248494107	1539
773.602316162747	1540
774.327293349609	1544.59997558594
775.052180062592	1558
775.776976309589	1554
776.501682098496	1540.80004882813
777.226297437206	1538
777.950822333616	1530
778.675256795621	1522
779.399600831111	1527.40002441406
780.123854447983	1549.19995117188
780.84801765413	1534.19995117188
781.572090457441	1520.40002441406
782.296072865811	1523.80004882813
783.019964887131	1518.40002441406
783.743766529297	1525.40002441406
784.467477800194	1520
785.191098707719	1530
785.914629259756	1517.59997558594
786.638069464194	1529
787.361419328932	1515
788.084678861852	1503.80004882813
788.807848070845	1489
789.530926963798	1475.19995117188
790.253915548602	1479.19995117188
790.976813833144	1477.19995117188
791.699621825307	1472
792.422339532986	1483.80004882813
793.144966964061	1482.40002441406
793.86750412642	1477.80004882813
794.589951027946	1490.19995117188
795.312307676536	1494.40002441406
796.03457408006	1507
796.756750246417	1510.59997558594
797.478836183477	1488.80004882813
798.200831899137	1487.40002441406
798.92273740127	1485.40002441406
799.644552697769	1478.59997558594
800.36627779651	1486.59997558594
801.087912705374	1487.59997558594
801.809457432251	1477.59997558594
802.530911985017	1477.59997558594
803.252276371558	1465.40002441406
803.973550599748	1465.40002441406
804.694734677472	1461.80004882813
805.415828612611	1471.80004882813
806.136832413045	1503.19995117188
806.857746086646	1498.80004882813
807.578569641305	1500.59997558594
808.299303084892	1505
809.019946425289	1496.19995117188
809.740499670372	1495
810.460962828022	1487.40002441406
811.181335906114	1481.59997558594
811.901618912524	1478.59997558594
812.621811855131	1476.80004882813
813.341914741809	1479
814.061927580433	1483.19995117188
814.781850378881	1492.19995117188
815.501683145025	1494
816.221425886743	1495.80004882813
816.941078611903	1489.59997558594
817.660641328387	1484.19995117188
818.380114044065	1472.80004882813
819.099496766808	1458.59997558594
819.818789504492	1464
820.53799226499	1445.40002441406
821.257105056168	1445
821.976127885904	1449.40002441406
822.695060762064	1461.59997558594
823.413903692525	1479.80004882813
824.132656685151	1478.59997558594
824.851319747817	1497.80004882813
825.569892888388	1496
826.288376114739	1501.80004882813
827.006769434737	1504
827.725072856249	1491.19995117188
828.443286387142	1491.59997558594
829.161410035285	1485.40002441406
829.87944380855	1467.19995117188
830.597387714798	1468
831.315241761898	1460.40002441406
832.033005957715	1455.19995117188
832.750680310119	1467.19995117188
833.468264826969	1469.59997558594
834.18575951614	1480.59997558594
834.903164385486	1472.80004882813
835.620479442878	1478.59997558594
836.337704696181	1470.80004882813
837.054840153255	1480.59997558594
837.771885821962	1473.59997558594
838.488841710172	1472.40002441406
839.20570782574	1478.59997558594
839.922484176531	1470
840.639170770409	1465
841.355767615231	1470.80004882813
842.072274718864	1464.19995117188
842.788692089164	1476
843.505019733993	1485
844.221257661209	1484.80004882813
844.937405878676	1483.40002441406
845.65346439425	1477.80004882813
846.369433215789	1484.19995117188
847.085312351156	1474.80004882813
847.801101808205	1471.40002441406
848.516801594793	1456.40002441406
849.232411718781	1457
849.947932188021	1455.59997558594
850.663363010376	1454
851.378704193698	1465.19995117188
852.093955745842	1495.19995117188
852.809117674669	1488.40002441406
853.524189988028	1484.40002441406
854.239172693778	1478.59997558594
854.954065799768	1473
855.668869313857	1467.19995117188
856.383583243899	1447.19995117188
857.098207597743	1451.19995117188
857.812742383246	1463
858.527187608255	1450.19995117188
859.241543280628	1471.59997558594
859.955809408218	1483.80004882813
860.669985998868	1482.19995117188
861.384073060437	1497
862.098070600772	1496.59997558594
862.811978627724	1502.80004882813
863.52579714914	1499
864.239526172873	1483.19995117188
864.953165706776	1473
865.666715758687	1471.19995117188
866.380176336464	1461.40002441406
867.093547447951	1469.40002441406
867.806829100996	1459.40002441406
868.520021303444	1465.59997558594
869.233124063149	1475.40002441406
869.94613738795	1463.40002441406
870.659061285693	1467
871.37189576423	1462.80004882813
872.084640831403	1483.19995117188
872.797296495057	1490.19995117188
873.509862763039	1495.19995117188
874.22233964319	1483.59997558594
874.934727143353	1476
875.647025271374	1467.40002441406
876.359234035097	1496.40002441406
877.071353442361	1491.19995117188
877.783383501015	1487
878.495324218895	1488.40002441406
879.207175603844	1495.19995117188
879.918937663705	1498
880.630610406318	1476.40002441406
881.342193839524	1477.59997558594
882.053687971161	1499
882.765092809069	1492.80004882813
883.476408361091	1487
884.187634635066	1500.19995117188
884.898771638828	1507.80004882813
885.609819380221	1503.19995117188
886.320777867076	1491.59997558594
887.031647107236	1485.40002441406
887.742427108536	1485.19995117188
888.453117878816	1489.80004882813
889.16371942591	1480.40002441406
889.874231757652	1480.19995117188
890.584654881883	1471
891.294988806434	1495
892.005233539141	1489.19995117188
892.715389087837	1487
893.42545546036	1483.40002441406
894.135432664543	1485.19995117188
894.845320708216	1474.80004882813
895.555119599216	1483.19995117188
896.264829345375	1475.80004882813
896.974449954526	1483
897.683981434496	1494.80004882813
898.393423793125	1483.59997558594
899.102777038235	1493.40002441406
899.812041177664	1489.19995117188
900.521216219239	1486.19995117188
901.230302170793	1479.40002441406
901.939299040155	1488.19995117188
902.64820683515	1480.19995117188
903.357025563612	1478.80004882813
904.065755233368	1479
904.774395852247	1483.59997558594
905.482947428076	1485.59997558594
906.191409968682	1481.59997558594
906.899783481897	1471
907.608067975538	1482.40002441406
908.316263457443	1480.19995117188
909.02436993543	1477.40002441406
909.732387417327	1480.40002441406
910.440315910959	1469.19995117188
911.148155424154	1466.19995117188
911.855905964731	1438.80004882813
912.563567540521	1449.59997558594
913.271140159339	1459.19995117188
913.978623829017	1463.40002441406
914.686018557374	1453.59997558594
915.393324352237	1467
916.100541221421	1470.19995117188
916.807669172752	1483.19995117188
917.514708214054	1478.59997558594
918.221658353142	1458
918.928519597843	1442.40002441406
919.635291955976	1442.40002441406
920.341975435358	1456.19995117188
921.048570043813	1458.80004882813
921.75507578916	1472.19995117188
922.461492679212	1477.40002441406
923.167820721795	1481
923.874059924726	1476.19995117188
924.58021029582	1470.40002441406
925.286271842893	1470.80004882813
925.992244573769	1471.19995117188
926.698128496262	1476.19995117188
927.403923618184	1471.80004882813
928.109629947355	1451
928.815247491593	1453.40002441406
929.520776258708	1458
930.226216256519	1468.59997558594
930.931567492841	1471.59997558594
931.636829975482	1460.80004882813
932.342003712263	1468.59997558594
933.047088710995	1464.40002441406
933.752084979491	1482.80004882813
934.456992525564	1473
935.161811357024	1485.19995117188
935.866541481688	1467.80004882813
936.571182907363	1461
937.275735641861	1463.59997558594
937.980199692995	1458.80004882813
938.684575068572	1467.40002441406
939.388861776411	1458.19995117188
940.093059824311	1464
940.797169220085	1474.40002441406
941.501189971544	1469
942.205122086495	1472.80004882813
942.908965572751	1464
943.612720438111	1469
944.316386690391	1460.19995117188
945.019964337391	1463
945.723453386924	1460.59997558594
946.426853846795	1464.19995117188
947.130165724808	1448.40002441406
947.83338902877	1466
948.536523766488	1462.19995117188
949.239569945764	1456.59997558594
949.942527574402	1461.19995117188
950.64539666021	1448.19995117188
951.348177210993	1448.19995117188
952.050869234548	1439.59997558594
952.753472738683	1435.19995117188
953.455987731199	1441.59997558594
954.158414219898	1448.59997558594
954.860752212587	1427.80004882813
955.563001717061	1428.40002441406
956.265162741124	1424.59997558594
956.967235292576	1428
957.669219379224	1433.59997558594
958.371115008857	1450.80004882813
959.072922189283	1455.19995117188
959.774640928301	1455.40002441406
960.476271233708	1441.40002441406
961.177813113301	1435
961.879266574882	1433.80004882813
962.580631626248	1434.59997558594
963.281908275194	1443.40002441406
963.98309652952	1446.59997558594
964.684196397022	1430.19995117188
965.3852078855	1435.40002441406
966.086131002745	1456.59997558594
966.786965756555	1454.40002441406
967.487712154726	1458.19995117188
968.188370205055	1456.19995117188
968.888939915331	1450.59997558594
969.589421293352	1456
970.289814346909	1448.59997558594
970.990119083801	1445.19995117188
971.690335511819	1433.40002441406
972.39046363875	1455
973.090503472398	1448.80004882813
973.790455020545	1460.40002441406
974.490318290987	1434.80004882813
975.190093291516	1446.19995117188
975.889780029923	1446.80004882813
976.589378513998	1448
977.288888751527	1453.40002441406
977.988310750308	1458.40002441406
978.687644518122	1456.40002441406
979.386890062767	1459.19995117188
980.086047392025	1448
980.785116513689	1442
981.484097435542	1432.19995117188
982.182990165377	1433.80004882813
982.88179471098	1433.59997558594
983.580511080137	1423.80004882813
984.279139280632	1418.59997558594
984.977679320253	1401.80004882813
985.67613120679	1401.59997558594
986.374494948027	1412.19995117188
987.072770551745	1434.40002441406
987.770958025731	1442.80004882813
988.469057377772	1444.59997558594
989.167068615649	1447.19995117188
989.864991747145	1439.80004882813
990.562826780047	1443.80004882813
991.260573722134	1453.40002441406
991.958232581195	1463.19995117188
992.655803365003	1460.59997558594
993.353286081346	1453.40002441406
994.050680738006	1472.80004882813
994.74798734276	1459.19995117188
995.44520590339	1456.40002441406
996.142336427681	1457
996.839378923407	1452.40002441406
997.536333398348	1456.40002441406
998.233199860289	1455.40002441406
998.929978317004	1436.59997558594
999.626668776274	1433.40002441406
1000.32327124587	1430.19995117188
1001.01978573359	1443.80004882813
1001.71621224718	1457.59997558594
1002.41255079445	1466
1003.10880138315	1458.40002441406
1003.80496402107	1465.80004882813
1004.50103871599	1444
1005.19702547567	1453.59997558594
1005.8929243079	1450
1006.58873522045	1462.80004882813
1007.2844582211	1462
1007.98009331761	1462.80004882813
1008.67564051776	1456.19995117188
1009.37109982933	1451
1010.06647126009	1445.19995117188
1010.7617548178	1447.19995117188
1011.45695051026	1435.40002441406
1012.15205834522	1436.80004882813
1012.84707833045	1442.19995117188
1013.54201047373	1449.80004882813
1014.23685478284	1451.59997558594
1014.93161126553	1450.59997558594
1015.62627992959	1448.80004882813
1016.32086078277	1455.40002441406
1017.01535383285	1461.19995117188
1017.70975908761	1456.80004882813
1018.40407655479	1460.80004882813
1019.09830624219	1450.40002441406
1019.79244815755	1453.80004882813
1020.48650230866	1443.19995117188
1021.18046870328	1456.59997558594
1021.87434734917	1453.80004882813
1022.56813825411	1456.59997558594
1023.26184142584	1463.40002441406
1023.95545687216	1469.59997558594
1024.64898460082	1464.80004882813
1025.34242461957	1460.80004882813
1026.0357769362	1456
1026.72904155846	1463.80004882813
1027.42221849412	1452.80004882813
1028.11530775094	1471
1028.80830933668	1473.40002441406
1029.50122325911	1470.59997558594
1030.19404952599	1462.40002441406
1030.88678814508	1453.19995117188
1031.57943912414	1447.19995117188
1032.27200247093	1426
1032.96447819323	1425.80004882813
1033.65686629878	1420.59997558594
1034.34916679534	1433.19995117188
1035.04137969068	1440.19995117188
1035.73350499256	1442.80004882813
1036.42554270874	1438
1037.11749284697	1424.19995117188
1037.80935541501	1435.40002441406
1038.50113042062	1424.40002441406
1039.19281787156	1432.59997558594
1039.88441777559	1440.40002441406
1040.57593014046	1445.80004882813
1041.26735497393	1440.40002441406
1041.95869228376	1437.59997558594
1042.6499420777	1443.80004882813
1043.3411043635	1447.59997558594
1044.03217914893	1457
1044.72316644174	1463.19995117188
1045.41406624968	1462.19995117188
1046.1048785805	1457.40002441406
1046.79560344197	1461.80004882813
1047.48624084182	1444.40002441406
1048.17679078783	1439.40002441406
1048.86725328774	1428.40002441406
1049.55762834929	1428.80004882813
1050.24791598025	1436.59997558594
1050.93811618837	1433.59997558594
1051.62822898139	1425.40002441406
1052.31825436707	1426.19995117188
1053.00819235315	1435.19995117188
1053.6980429474	1448
1054.38780615755	1441.19995117188
1055.07748199136	1433
1055.76707045658	1438.40002441406
1056.45657156095	1437.19995117188
1057.14598531222	1433
1057.83531171814	1430.40002441406
1058.52455078646	1436.40002441406
1059.21370252494	1434.59997558594
1059.90276694129	1427
1060.5917440433	1443.80004882813
1061.28063383868	1456.40002441406
1061.9694363352	1454.80004882813
1062.65815154059	1456.40002441406
1063.34677946261	1471
1064.03532010899	1464.59997558594
1064.72377348748	1455.59997558594
1065.41213960583	1447.59997558594
1066.10041847177	1447.59997558594
1066.78861009306	1441.19995117188
1067.47671447743	1440.59997558594
1068.16473163263	1438.40002441406
1068.85266156639	1433.40002441406
1069.54050428647	1449.40002441406
1070.2282598006	1441.19995117188
1070.91592811652	1441.19995117188
1071.60350924198	1434.59997558594
1072.29100318471	1436.40002441406
1072.97840995245	1430.59997558594
1073.66572955295	1428.40002441406
1074.35296199394	1431
1075.04010728316	1440.59997558594
1075.72716542836	1445
1076.41413643726	1429.59997558594
1077.10102031761	1423
1077.78781707715	1426.40002441406
1078.4745267236	1424.19995117188
1079.16114926471	1427.40002441406
1079.84768470822	1403.80004882813
1080.53413306185	1404.40002441406
1081.22049433336	1414.40002441406
1081.90676853046	1425.59997558594
1082.5929556609	1431.19995117188
1083.27905573241	1434.59997558594
1083.96506875272	1452
1084.65099472957	1445.19995117188
1085.3368336707	1424.59997558594
1086.02258558383	1441.40002441406
1086.70825047669	1435.59997558594
1087.39382835703	1445
1088.07931923257	1444.19995117188
1088.76472311104	1436.40002441406
1089.45004000018	1433.40002441406
1090.13526990771	1427
1090.82041284137	1434.19995117188
1091.50546880889	1420
1092.19043781799	1418.80004882813
1092.87531987642	1419.19995117188
1093.56011499188	1410.40002441406
1094.24482317212	1413.80004882813
1094.92944442486	1398
1095.61397875783	1407.40002441406
1096.29842617876	1414.59997558594
1096.98278669537	1409
1097.6670603154	1406.80004882813
1098.35124704656	1398.80004882813
1099.03534689659	1386.59997558594
1099.71935987322	1419.19995117188
1100.40328598416	1426
1101.08712523713	1427
1101.77087763988	1437.40002441406
1102.45454320012	1439.19995117188
1103.13812192557	1435
1103.82161382396	1446
1104.50501890301	1444.19995117188
1105.18833717045	1442.80004882813
1105.87156863399	1446.19995117188
1106.55471330137	1441.19995117188
1107.2377711803	1439.80004882813
1107.9207422785	1446.59997558594
1108.60362660369	1467.59997558594
1109.2864241636	1453.19995117188
1109.96913496594	1445
1110.65175901844	1437.80004882813
1111.33429632882	1434.80004882813
1112.01674690479	1442.40002441406
1112.69911075408	1435.40002441406
1113.38138788439	1436.80004882813
1114.06357830346	1438
1114.745682019	1444.40002441406
1115.42769903872	1434.59997558594
1116.10962937035	1444.80004882813
1116.7914730216	1449.19995117188
1117.47323000018	1440.59997558594
1118.15490031382	1435.40002441406
1118.83648397022	1432.40002441406
1119.51798097712	1418.80004882813
1120.1993913422	1423.80004882813
1120.88071507321	1419.80004882813
1121.56195217784	1423.40002441406
1122.24310266381	1428
1122.92416653884	1430.40002441406
1123.60514381064	1441.40002441406
1124.28603448692	1445.59997558594
1124.9668385754	1442
1125.64755608378	1447.19995117188
1126.32818701978	1448.19995117188
1127.00873139111	1436.80004882813
1127.68918920548	1453.59997558594
1128.3695604706	1437.59997558594
1129.04984519419	1443.40002441406
1129.73004338394	1424
1130.41015504758	1433.19995117188
1131.09018019281	1444.80004882813
1131.77011882734	1455.80004882813
1132.44997095888	1448
1133.12973659514	1449.19995117188
1133.80941574381	1434.59997558594
1134.48900841263	1439.80004882813
1135.16851460927	1428.19995117188
1135.84793434147	1420.19995117188
1136.52726761692	1413.40002441406
1137.20651444333	1418.59997558594
1137.8856748284	1416.80004882813
1138.56474877984	1426.80004882813
1139.24373630536	1409.59997558594
1139.92263741265	1422.80004882813
1140.60145210943	1433.40002441406
1141.28018040339	1436.80004882813
1141.95882230225	1439.59997558594
1142.6373778137	1441.19995117188
1143.31584694545	1424.40002441406
1143.99422970519	1430
1144.67252610064	1446.40002441406
1145.35073613949	1433.80004882813
1146.02885982944	1437.40002441406
1146.7068971782	1426
1147.38484819347	1412.59997558594
1148.06271288294	1422.59997558594
1148.74049125432	1432.59997558594
1149.41818331531	1429.19995117188
1150.0957890736	1431.19995117188
1150.77330853689	1424.80004882813
1151.45074171289	1414.59997558594
1152.12808860928	1415.80004882813
1152.80534923378	1416.40002441406
1153.48252359407	1409.59997558594
1154.15961169786	1410
1154.83661355283	1411.59997558594
1155.51352916669	1414.59997558594
1156.19035854713	1416.40002441406
1156.86710170185	1428.19995117188
1157.54375863855	1429.40002441406
1158.22032936491	1428.59997558594
1158.89681388863	1433
1159.57321221741	1421.19995117188
1160.24952435894	1423
1160.92575032092	1441
1161.60189011103	1435.40002441406
1162.27794373697	1419.59997558594
1162.95391120644	1431.40002441406
1163.62979252712	1430.59997558594
1164.3055877067	1419.80004882813
1164.98129675288	1434.19995117188
1165.65691967336	1430.59997558594
1166.33245647581	1434.59997558594
1167.00790716792	1427.59997558594
1167.6832717574	1416
1168.35855025193	1414.80004882813
1169.0337426592	1418.80004882813
1169.70884898689	1404
1170.3838692427	1392
1171.05880343431	1417.80004882813
1171.73365156941	1411
1172.40841365569	1426.59997558594
1173.08308970083	1419.59997558594
1173.75767971253	1421.80004882813
1174.43218369847	1418.59997558594
1175.10660166633	1418.19995117188
1175.7809336238	1413.40002441406
1176.45517957857	1419
1177.12933953832	1413.80004882813
1177.80341351073	1436
1178.47740150349	1438.40002441406
1179.15130352429	1440.19995117188
1179.8251195808	1442
1180.49884968071	1447.80004882813
1181.1724938317	1445.19995117188
1181.84605204145	1440
1182.51952431766	1451.19995117188
1183.19291066799	1448.19995117188
1183.86621110013	1470
1184.53942562176	1453.19995117188
1185.21255424057	1455.40002441406
1185.88559696422	1455.80004882813
1186.55855380041	1446
1187.2314247568	1438.59997558594
1187.90420984109	1439.19995117188
1188.57690906095	1431.59997558594
1189.24952242405	1454.19995117188
1189.92204993808	1464.19995117188
1190.59449161071	1458.80004882813
1191.26684744962	1477.59997558594
1191.93911746249	1472.40002441406
1192.61130165699	1473.59997558594
1193.28340004081	1464.80004882813
1193.95541262161	1457.59997558594
1194.62733940707	1471.80004882813
1195.29918040487	1458
1195.97093562269	1458.40002441406
1196.64260506819	1444
1197.31418874905	1437
1197.98568667295	1447.40002441406
1198.65709884755	1439
1199.32842528053	1435
1199.99966597957	1444.40002441406
1200.67082095234	1446
1201.3418902065	1437.80004882813
1202.01287374974	1443.59997558594
1202.68377158971	1435.59997558594
1203.3545837341	1424.19995117188
1204.02531019057	1416.40002441406
1204.6959509668	1429.80004882813
1205.36650607045	1427
1206.03697550919	1442.40002441406
1206.70735929069	1446.80004882813
1207.37765742263	1440.59997558594
1208.04786991266	1431.19995117188
1208.71799676846	1429.19995117188
1209.38803799769	1433.80004882813
1210.05799360803	1412.80004882813
1210.72786360714	1416.59997558594
1211.39764800268	1425.80004882813
1212.06734680233	1417.19995117188
1212.73696001375	1412.19995117188
1213.4064876446	1418.80004882813
1214.07592970255	1417.40002441406
1214.74528619526	1420.59997558594
1215.4145571304	1413.80004882813
1216.08374251564	1409.19995117188
1216.75284235863	1424.19995117188
1217.42185666704	1431.59997558594
1218.09078544854	1416.19995117188
1218.75962871078	1414.80004882813
1219.42838646143	1413.40002441406
1220.09705870816	1420
1220.76564545861	1430.19995117188
1221.43414672046	1420.59997558594
1222.10256250136	1429
1222.77089280898	1415.19995117188
1223.43913765098	1415.19995117188
1224.107297035	1405.80004882813
1224.77537096873	1405.80004882813
1225.44335945981	1393.40002441406
1226.1112625159	1390.40002441406
1226.77908014467	1397.59997558594
1227.44681235376	1403
1228.11445915085	1398
1228.78202054357	1397
1229.44949653961	1405.40002441406
1230.11688714659	1390.80004882813
1230.7841923722	1399
1231.45141222407	1398.59997558594
1232.11854670988	1409.40002441406
1232.78559583726	1408.59997558594
1233.45255961388	1415.40002441406
1234.1194380474	1416.80004882813
1234.78623114546	1424.40002441406
1235.45293891572	1428.19995117188
1236.11956136583	1428.19995117188
1236.78609850345	1442.59997558594
1237.45255033623	1432
1238.11891687182	1433
1238.78519811788	1438.80004882813
1239.45139408205	1425.59997558594
1240.11750477198	1418.40002441406
1240.78353019534	1412.80004882813
1241.44947035976	1414.19995117188
1242.11532527291	1407.80004882813
1242.78109494242	1405.59997558594
1243.44677937595	1405.59997558594
1244.11237858115	1384.40002441406
1244.77789256567	1387.59997558594
1245.44332133715	1401.59997558594
1246.10866490325	1409.40002441406
1246.7739232716	1408.19995117188
1247.43909644987	1413.59997558594
1248.10418444569	1399.40002441406
1248.76918726671	1405.80004882813
1249.43410492059	1401
1250.09893741496	1398
1250.76368475747	1405.59997558594
1251.42834695576	1400.80004882813
1252.09292401749	1399.40002441406
1252.75741595029	1412.59997558594
1253.42182276182	1405.40002441406
1254.08614445971	1409.80004882813
1254.75038105161	1412.19995117188
1255.41453254515	1411.80004882813
1256.07859894799	1396.80004882813
1256.74258026777	1397.19995117188
1257.40647651213	1404.19995117188
1258.0702876887	1385.80004882813
1258.73401380514	1395.59997558594
1259.39765486908	1392.40002441406
1260.06121088817	1399.40002441406
1260.72468187004	1410.59997558594
1261.38806782233	1410.40002441406
1262.05136875269	1419.19995117188
1262.71458466875	1412.80004882813
1263.37771557815	1418.59997558594
1264.04076148854	1412.80004882813
1264.70372240753	1401
1265.3665983428	1402.59997558594
1266.02938930195	1406.19995117188
1266.69209529263	1415
1267.35471632249	1416.19995117188
1268.01725239914	1409.59997558594
1268.67970353024	1403
1269.34206972342	1394.59997558594
1270.00435098631	1392
1270.66654732655	1405.59997558594
1271.32865875177	1404.19995117188
1271.9906852696	1410.19995117188
1272.65262688768	1420.59997558594
1273.31448361365	1413.19995117188
1273.97625545514	1405.80004882813
1274.63794241978	1405.19995117188
1275.2995445152	1405.40002441406
1275.96106174903	1408.19995117188
1276.62249412892	1411.19995117188
1277.28384166248	1421.19995117188
1277.94510435735	1405.19995117188
1278.60628222116	1393.19995117188
1279.26737526155	1397.59997558594
1279.92838348613	1410.19995117188
1280.58930690255	1394.59997558594
1281.25014551842	1398.19995117188
1281.91089934139	1409.80004882813
1282.57156837907	1427
1283.2321526391	1416.59997558594
1283.89265212911	1405
1284.55306685671	1397.59997558594
1285.21339682955	1388.80004882813
1285.87364205525	1393.40002441406
1286.53380254142	1377.80004882813
1287.19387829571	1370.80004882813
1287.85386932573	1366.19995117188
1288.51377563911	1389.19995117188
1289.17359724348	1393.80004882813
1289.83333414646	1390.59997558594
1290.49298635567	1395.80004882813
1291.15255387874	1400.59997558594
1291.8120367233	1404.80004882813
1292.47143489696	1411.80004882813
1293.13074840736	1392
1293.7899772621	1389.59997558594
1294.44912146882	1392.80004882813
1295.10818103513	1387.80004882813
1295.76715596866	1388.19995117188
1296.42604627704	1392.19995117188
1297.08485196787	1381.59997558594
1297.74357304878	1386
1298.4022095274	1393.19995117188
1299.06076141134	1404.19995117188
1299.71922870821	1399.59997558594
1300.37761142565	1408
1301.03590957126	1406
1301.69412315268	1414.19995117188
1302.3522521775	1424.80004882813
1303.01029665336	1412
1303.66825658787	1423.40002441406
1304.32613198865	1419.80004882813
1304.98392286332	1414.59997558594
1305.64162921948	1423.40002441406
1306.29925106476	1409
1306.95678840677	1400.19995117188
1307.61424125312	1407.19995117188
1308.27160961145	1415.19995117188
1308.92889348934	1422.80004882813
1309.58609289443	1405.19995117188
1310.24320783432	1402.40002441406
1310.90023831664	1394.59997558594
1311.55718434898	1393.59997558594
1312.21404593897	1400.80004882813
1312.87082309421	1408
1313.52751582233	1407.59997558594
1314.18412413092	1394.80004882813
1314.84064802761	1404.19995117188
1315.49708752	1404.19995117188
1316.1534426157	1399.59997558594
1316.80971332233	1401.40002441406
1317.46589964749	1417
1318.1220015988	1412
1318.77801918386	1419
1319.43395241028	1419.59997558594
1320.08980128567	1409.59997558594
1320.74556581764	1402.80004882813
1321.4012460138	1407.40002441406
1322.05684188176	1408.80004882813
1322.71235342911	1406.80004882813
1323.36778066347	1401.59997558594
1324.02312359245	1413.19995117188
1324.67838222365	1424.80004882813
1325.33355656468	1414
1325.98864662314	1401.59997558594
1326.64365240663	1404.80004882813
1327.29857392277	1399.19995117188
1327.95341117915	1397.40002441406
1328.60816418339	1390.80004882813
1329.26283294308	1391.40002441406
1329.91741746582	1388.19995117188
1330.57191775923	1394.80004882813
1331.2263338309	1392.40002441406
1331.88066568843	1399
1332.53491333943	1414.59997558594
1333.1890767915	1414.19995117188
1333.84315605224	1413.19995117188
1334.49715112925	1412.59997558594
1335.15106203013	1398.80004882813
1335.80488876249	1394.80004882813
1336.45863133391	1400.19995117188
1337.112289752	1395
1337.76586402437	1400.59997558594
1338.4193541586	1408.19995117188
1339.0727601623	1424
1339.72608204306	1428.80004882813
1340.37931980849	1413.40002441406
1341.03247346617	1431.19995117188
1341.68554302372	1421.19995117188
1342.33852848871	1419
1342.99142986876	1425.80004882813
1343.64424717145	1418.19995117188
1344.29698040438	1429
1344.94962957515	1439.19995117188
1345.60219469135	1431.40002441406
1346.25467576058	1453.59997558594
1346.90707279042	1457.19995117188
1347.55938578848	1461.40002441406
1348.21161476235	1440.59997558594
1348.86375971962	1426.80004882813
1349.51582066787	1435.19995117188
1350.16779761472	1437.59997558594
1350.81969056774	1425.19995117188
1351.47149953453	1430.80004882813
1352.12322452269	1419.40002441406
1352.77486553979	1423
1353.42642259344	1422.80004882813
1354.07789569122	1435
1354.72928484072	1443.19995117188
1355.38059004953	1462.80004882813
1356.03181132525	1449.40002441406
1356.68294867545	1463.19995117188
1357.33400210773	1474.40002441406
1357.98497162968	1472.80004882813
1358.63585724889	1472
1359.28665897294	1461.19995117188
1359.93737680942	1456.80004882813
1360.58801076591	1468.59997558594
1361.23856085001	1488.19995117188
1361.88902706929	1491
1362.53940943135	1479.59997558594
1363.18970794377	1482.80004882813
1363.83992261413	1476.59997558594
1364.49005345003	1468
1365.14010045904	1461.59997558594
1365.79006364874	1469.40002441406
1366.43994302673	1466.59997558594
1367.08973860058	1476.59997558594
1367.73945037788	1482.19995117188
1368.38907836621	1456.19995117188
1369.03862257315	1448.40002441406
1369.68808300629	1454.40002441406
1370.3374596732	1454.19995117188
1370.98675258148	1450.19995117188
1371.63596173868	1450.80004882813
1372.28508715241	1442
1372.93412883024	1425.19995117188
1373.58308677974	1421
1374.2319610085	1412
1374.8807515241	1408.40002441406
1375.52945833412	1408.80004882813
1376.17808144612	1398.19995117188
1376.82662086771	1401.40002441406
1377.47507660644	1395.80004882813
1378.12344866989	1390.40002441406
1378.77173706565	1402.19995117188
1379.41994180129	1402.59997558594
1380.06806288439	1413.80004882813
1380.71610032252	1413.59997558594
1381.36405412326	1410
1382.01192429419	1405
1382.65971084287	1395.40002441406
1383.30741377688	1407.40002441406
1383.95503310381	1413.19995117188
1384.60256883121	1403.80004882813
1385.25002096667	1411.80004882813
1385.89738951775	1400
1386.54467449204	1386.80004882813
1387.19187589709	1396.19995117188
1387.8389937405	1389.59997558594
1388.48602802982	1380.40002441406
1389.13297877262	1389.59997558594
1389.77984597649	1381.80004882813
1390.42662964899	1373.80004882813
1391.07332979768	1397
1391.71994643015	1399.59997558594
1392.36647955395	1392.19995117188
1393.01292917667	1380.59997558594
1393.65929530586	1378
1394.3055779491	1371.80004882813
1394.95177711395	1370.80004882813
1395.59789280799	1372.59997558594
1396.24392503877	1378
1396.88987381387	1376.80004882813
1397.53573914086	1391.40002441406
1398.1815210273	1380.19995117188
1398.82721948075	1394.40002441406
1399.47283450878	1390.80004882813
1400.11836611897	1385
1400.76381431886	1385
1401.40917911603	1360.80004882813
1402.05446051805	1357.59997558594
1402.69965853247	1346.80004882813
1403.34477316686	1355.59997558594
1403.98980442878	1363.80004882813
1404.6347523258	1364.40002441406
1405.27961686548	1364.19995117188
1405.92439805538	1361.80004882813
1406.56909590306	1367.80004882813
1407.21371041608	1366.80004882813
1407.85824160202	1370
1408.50268946841	1375
1409.14705402284	1375
1409.79133527285	1365.40002441406
1410.43553322601	1390
1411.07964788987	1386.80004882813
1411.723679272	1379
1412.36762737996	1363.40002441406
1413.01149222129	1357.40002441406
1413.65527380357	1368.59997558594
1414.29897213435	1372.40002441406
1414.94258722118	1370.80004882813
1415.58611907163	1364.40002441406
1416.22956769325	1360.40002441406
1416.87293309359	1361
1417.51621528021	1361
1418.15941426067	1369.19995117188
1418.80253004253	1373.80004882813
1419.44556263333	1380
1420.08851204063	1389
1420.731378272	1379.40002441406
1421.37416133497	1378
1422.0168612371	1401.40002441406
1422.65947798596	1401.40002441406
1423.30201158908	1397.59997558594
1423.94446205403	1395.80004882813
1424.58682938835	1380
1425.2291135996	1384.59997558594
1425.87131469532	1377.19995117188
1426.51343268308	1376
1427.15546757042	1383.80004882813
1427.79741936488	1387.80004882813
1428.43928807403	1375
1429.0810737054	1394.80004882813
1429.72277626656	1380.80004882813
1430.36439576504	1367
1431.00593220841	1376.19995117188
1431.64738560419	1364.59997558594
1432.28875595995	1365.40002441406
1432.93004328324	1365.59997558594
1433.57124758159	1386.59997558594
1434.21236886255	1370.80004882813
1434.85340713368	1379.59997558594
1435.49436240252	1385
1436.13523467661	1379.80004882813
1436.77602396349	1387
1437.41673027073	1365.19995117188
1438.05735360585	1370.80004882813
1438.69789397641	1372.19995117188
1439.33835138994	1359.80004882813
1439.978725854	1351.19995117188
1440.61901737612	1356.80004882813
1441.25922596385	1365.40002441406
1441.89935162473	1360
1442.53939436631	1355
1443.17935419612	1344.40002441406
1443.81923112171	1342
1444.45902515061	1348.40002441406
1445.09873629038	1365.80004882813
1445.73836454854	1380
1446.37790993265	1377
1447.01737245024	1375.19995117188
1447.65675210885	1363.80004882813
1448.29604891602	1372.19995117188
1448.93526287928	1361.59997558594
1449.57439400618	1371.59997558594
1450.21344230426	1371
1450.85240778105	1383
1451.49129044409	1368.59997558594
1452.13009030092	1367.40002441406
1452.76880735907	1361.19995117188
1453.40744162608	1360.59997558594
1454.04599310949	1351.40002441406
1454.68446181683	1365.40002441406
1455.32284775564	1350.19995117188
1455.96115093345	1352.80004882813
1456.5993713578	1357.59997558594
1457.23750903623	1348.40002441406
1457.87556397626	1348.19995117188
1458.51353618543	1344.40002441406
1459.15142567127	1337
1459.78923244132	1349.59997558594
1460.42695650311	1355.80004882813
1461.06459786417	1372.40002441406
1461.70215653203	1349.80004882813
1462.33963251423	1366.40002441406
1462.97702581829	1362.80004882813
1463.61433645175	1369.80004882813
1464.25156442214	1370.80004882813
1464.88870973699	1372.40002441406
1465.52577240382	1384
1466.16275243017	1382
1466.79964982356	1385
1467.43646459154	1368
1468.07319674161	1375.19995117188
1468.70984628132	1364.80004882813
1469.34641321818	1371.19995117188
1469.98289755974	1372.40002441406
1470.6192993135	1374.40002441406
1471.25561848701	1377.59997558594
1471.89185508779	1389.59997558594
1472.52800912336	1385.19995117188
1473.16408060124	1376.59997558594
1473.80006952897	1378.19995117188
1474.43597591407	1376.80004882813
1475.07179976406	1372.59997558594
1475.70754108647	1347.40002441406
1476.34319988883	1350
1476.97877617865	1343.80004882813
1477.61426996345	1355.19995117188
1478.24968125077	1351
1478.88501004812	1359.59997558594
1479.52025636303	1355.59997558594
1480.15542020302	1367.59997558594
1480.79050157561	1376.40002441406
1481.42550048832	1374.80004882813
1482.06041694867	1366.59997558594
1482.69525096418	1371.19995117188
1483.33000254237	1366.19995117188
1483.96467169077	1364.19995117188
1484.59925841689	1358
1485.23376272825	1348.80004882813
1485.86818463237	1348.59997558594
1486.50252413677	1347.80004882813
1487.13678124896	1343
1487.77095597646	1353.80004882813
1488.4050483268	1342.59997558594
1489.03905830749	1329.40002441406
1489.67298592604	1332
1490.30683118996	1343.40002441406
1490.9405941068	1357.40002441406
1491.57427468403	1353.40002441406
1492.2078729292	1364.19995117188
1492.84138884981	1374
1493.47482245338	1379.19995117188
1494.10817374742	1377.40002441406
1494.74144273944	1369.59997558594
1495.37462943696	1364.59997558594
1496.0077338475	1375
1496.64075597856	1369.80004882813
1497.27369583765	1363
1497.9065534323	1368.80004882813
1498.53932877001	1358.40002441406
1499.17202185829	1357.59997558594
1499.80463270465	1353.40002441406
1500.43716131661	1360
1501.06960770167	1363.59997558594
1501.70197186735	1353.80004882813
1502.33425382116	1366.80004882813
1502.96645357059	1365.19995117188
1503.59857112317	1370.80004882813
1504.23060648641	1367
1504.8625596678	1376.40002441406
1505.49443067486	1373.80004882813
1506.1262195151	1371
1506.75792619602	1394.19995117188
1507.38955072513	1371.80004882813
1508.02109310993	1369.80004882813
1508.65255335794	1377.80004882813
1509.28393147666	1385.19995117188
1509.91522747359	1375
1510.54644135624	1382.40002441406
1511.17757313212	1386.19995117188
1511.80862280872	1390
1512.43959039356	1389.80004882813
1513.07047589413	1376.19995117188
1513.70127931795	1369.80004882813
1514.33200067251	1354.40002441406
1514.96263996531	1348.19995117188
1515.59319720386	1343
1516.22367239567	1340.40002441406
1516.85406554822	1349.19995117188
1517.48437666903	1352.40002441406
1518.1146057656	1355.59997558594
1518.74475284542	1342.19995117188
1519.374817916	1342.19995117188
1520.00480098483	1339.59997558594
1520.63470205942	1345.40002441406
1521.26452114726	1339
1521.89425825586	1346.40002441406
1522.52391339271	1358.59997558594
1523.15348656531	1353.40002441406
1523.78297778116	1362.80004882813
1524.41238704775	1361.59997558594
1525.04171437259	1350.40002441406
1525.67095976317	1344
1526.30012322699	1355
1526.92920477154	1349.40002441406
1527.55820440432	1350.40002441406
1528.18712213283	1348
1528.81595796455	1333.40002441406
1529.44471190699	1332.59997558594
1530.07338396764	1338.40002441406
1530.70197415399	1344.59997558594
1531.33048247353	1354.59997558594
1531.95890893377	1344.19995117188
1532.58725354219	1345.40002441406
1533.21551630629	1354.80004882813
1533.84369723356	1356.19995117188
1534.47179633148	1360.80004882813
1535.09981360757	1375.80004882813
1535.72774906929	1367.19995117188
1536.35560272415	1365.19995117188
1536.98337457963	1368.19995117188
1537.61106464323	1352.40002441406
1538.23867292243	1357
1538.86619942473	1360.19995117188
1539.49364415762	1347
1540.12100712857	1347.59997558594
1540.74828834509	1354.80004882813
1541.37548781466	1358
1542.00260554478	1345.40002441406
1542.62964154291	1358.40002441406
1543.25659581655	1365.40002441406
1543.8834683732	1349.59997558594
1544.51025922034	1347.80004882813
1545.13696836544	1348
1545.76359581601	1343.80004882813
1546.39014157952	1332.59997558594
1547.01660566345	1335.19995117188
1547.64298807531	1341.80004882813
1548.26928882255	1330.40002441406
1548.89550791269	1337
1549.52164535318	1326.59997558594
1550.14770115153	1330.59997558594
1550.77367531521	1340.59997558594
1551.39956785171	1333
1552.0253787685	1339.80004882813
1552.65110807307	1338
1553.2767557729	1322.59997558594
1553.90232187548	1335.19995117188
1554.52780638828	1314.40002441406
1555.15320931879	1322.19995117188
1555.77853067447	1319
1556.40377046282	1306.40002441406
1557.02892869132	1307.19995117188
1557.65400536744	1305.59997558594
1558.27900049866	1311.80004882813
1558.90391409247	1321.19995117188
1559.52874615633	1330
1560.15349669773	1338
1560.77816572414	1343.59997558594
1561.40275324305	1334.40002441406
1562.02725926192	1325.80004882813
1562.65168378824	1331.19995117188
1563.27602682948	1331.40002441406
1563.90028839311	1351
1564.52446848662	1342.59997558594
1565.14856711748	1333.40002441406
1565.77258429316	1338.40002441406
1566.39652002113	1325
1567.02037430887	1331.59997558594
1567.64414716387	1346.19995117188
1568.26783859357	1341
1568.89144860547	1332.80004882813
1569.51497720703	1330.59997558594
1570.13842440573	1329.40002441406
1570.76179020904	1336
1571.38507462442	1323.19995117188
1572.00827765936	1339.19995117188
1572.63139932132	1342
1573.25443961777	1346.59997558594
1573.87739855618	1339
1574.50027614402	1335.19995117188
1575.12307238877	1342.19995117188
1575.74578729789	1348.80004882813
1576.36842087885	1328
1576.99097313912	1334.80004882813
1577.61344408616	1323.19995117188
1578.23583372745	1328.80004882813
1578.85814207046	1319
1579.48036912264	1333.80004882813
1580.10251489147	1330.80004882813
1580.72457938441	1331.59997558594
1581.34656260893	1329.80004882813
1581.9684645725	1314.80004882813
1582.59028528258	1315.19995117188
1583.21202474663	1323.59997558594
1583.83368297212	1326.19995117188
1584.45525996652	1306.59997558594
1585.07675573728	1317.59997558594
1585.69817029188	1316.80004882813
1586.31950363778	1300.80004882813
1586.94075578243	1304.19995117188
1587.5619267333	1305.40002441406
1588.18301649786	1317
1588.80402508357	1305.80004882813
1589.42495249788	1303.19995117188
1590.04579874826	1297.40002441406
1590.66656384217	1290.40002441406
1591.28724778707	1278
1591.90785059042	1282
1592.52837225968	1279.19995117188
1593.14881280232	1280.59997558594
1593.76917222578	1284.40002441406
1594.38945053753	1282.40002441406
1595.00964774502	1289.40002441406
1595.62976385573	1287
1596.24979887709	1277.19995117188
1596.86975281657	1282
1597.48962568164	1282.40002441406
1598.10941747974	1298.40002441406
1598.72912821832	1290.80004882813
1599.34875790486	1293.19995117188
1599.9683065468	1289
1600.58777415159	1283
1601.2071607267	1281.59997558594
1601.82646627958	1282.59997558594
1602.44569081769	1276
1603.06483434846	1272.40002441406
1603.68389687937	1277
1604.30287841786	1267.59997558594
1604.92177897139	1259
1605.54059854741	1250.19995117188
1606.15933715337	1251.19995117188
1606.77799479672	1248.80004882813
1607.39657148492	1263.59997558594
1608.01506722542	1270
1608.63348202566	1267.59997558594
1609.2518158931	1268.40002441406
1609.87006883519	1259.80004882813
1610.48824085939	1263.59997558594
1611.10633197312	1270.40002441406
1611.72434218386	1273.19995117188
1612.34227149904	1273.80004882813
1612.96011992612	1288
1613.57788747254	1275
1614.19557414575	1266.19995117188
1614.8131799532	1265.80004882813
1615.43070490234	1269.80004882813
1616.04814900061	1266.59997558594
1616.66551225545	1252
1617.28279467433	1256.19995117188
1617.89999626467	1261.59997558594
1618.51711703393	1250.19995117188
1619.13415698955	1242.80004882813
1619.75111613898	1236.40002441406
1620.36799448966	1238.80004882813
1620.98479204903	1237.59997558594
1621.60150882455	1235.19995117188
1622.21814482364	1242.59997558594
1622.83470005376	1251.59997558594
1623.45117452235	1247.40002441406
1624.06756823685	1257
1624.6838812047	1260
1625.30011343335	1272.40002441406
1625.91626493022	1255.19995117188
1626.53233570278	1266.19995117188
1627.14832575845	1262.19995117188
1627.76423510468	1269.80004882813
1628.38006374891	1268.59997558594
1628.99581169857	1271.40002441406
1629.61147896111	1268.19995117188
1630.22706554397	1269.59997558594
1630.84257145457	1269.59997558594
1631.45799670038	1267.40002441406
1632.07334128881	1259.59997558594
1632.6886052273	1274.59997558594
1633.3037885233	1261.40002441406
1633.91889118425	1260.19995117188
1634.53391321757	1255.59997558594
1635.1488546307	1254.19995117188
1635.76371543108	1240.80004882813
1636.37849562616	1241.59997558594
1636.99319522335	1241
1637.60781423009	1237.40002441406
1638.22235265383	1247.59997558594
1638.83681050198	1248.59997558594
1639.451187782	1239
1640.0654845013	1256.40002441406
1640.67970066734	1258.19995117188
1641.29383628752	1257.40002441406
1641.9078913693	1265
1642.5218659201	1263.80004882813
1643.13575994735	1261.19995117188
1643.74957345849	1271.40002441406
1644.36330646094	1258.59997558594
1644.97695896213	1260.59997558594
1645.59053096951	1267.19995117188
1646.20402249049	1266.59997558594
1646.8174335325	1275.40002441406
1647.43076410298	1282.59997558594
1648.04401420935	1285.80004882813
1648.65718385905	1294.40002441406
1649.2702730595	1296
1649.88328181812	1285.59997558594
1650.49621014236	1291.19995117188
1651.10905803963	1278.59997558594
1651.72182551735	1278.40002441406
1652.33451258297	1281.59997558594
1652.9471192439	1264
1653.55964550757	1256.19995117188
1654.1720913814	1258
1654.78445687283	1260.80004882813
1655.39674198926	1253.80004882813
1656.00894673814	1254.40002441406
1656.62107112688	1236.40002441406
1657.23311516291	1247.80004882813
1657.84507885365	1238.19995117188
1658.45696220652	1232.40002441406
1659.06876522895	1226.19995117188
1659.68048792835	1223.40002441406
1660.29213031217	1225.19995117188
1660.90369238779	1221.59997558594
1661.51517416267	1222.80004882813
1662.12657564421	1219.40002441406
1662.73789683984	1217.59997558594
1663.34913775697	1215.40002441406
1663.96029840303	1209.19995117188
1664.57137878544	1205
1665.18237891161	1197.80004882813
1665.79329878897	1195.40002441406
1666.40413842493	1197
1667.01489782691	1195
1667.62557700233	1194.19995117188
1668.2361759586	1194.19995117188
1668.84669470315	1187.19995117188
1669.4571332434	1186.40002441406
1670.06749158675	1184.40002441406
1670.67776974062	1185.19995117188
1671.28796771243	1195.80004882813
1671.8980855096	1191.40002441406
1672.50812313954	1197.80004882813
1673.11808060967	1189.80004882813
1673.72795792739	1198
1674.33775510013	1202.19995117188
1674.9474721353	1190.59997558594
1675.55710904031	1208.59997558594
1676.16666582257	1196.19995117188
1676.7761424895	1188
1677.38553904851	1188.19995117188
1677.99485550702	1184.19995117188
1678.60409187243	1172.80004882813
1679.21324815215	1163.40002441406
1679.8223243536	1164.59997558594
1680.43132048419	1165.40002441406
1681.04023655132	1155.19995117188
1681.64907256241	1160.80004882813
1682.25782852487	1157.80004882813
1682.86650444611	1168.59997558594
1683.47510033353	1164.80004882813
1684.08361619455	1171.80004882813
1684.69205203657	1166
1685.300407867	1160
1685.90868369325	1160.19995117188
1686.51687952272	1163.19995117188
1687.12499536283	1156.80004882813
1687.73303122098	1159.80004882813
1688.34098710457	1166.59997558594
1688.94886302101	1168.19995117188
1689.55665897772	1166.80004882813
1690.16437498208	1166.80004882813
1690.77201104152	1157.19995117188
1691.37956716342	1173.80004882813
1691.9870433552	1164.19995117188
1692.59443962426	1163.19995117188
1693.20175597801	1162.40002441406
1693.80899242384	1163.40002441406
1694.41614896916	1166
1695.02322562138	1168
1695.63022238789	1161.59997558594
1696.23713927609	1167.19995117188
1696.8439762934	1168.40002441406
1697.4507334472	1167.19995117188
1698.05741074491	1176.19995117188
1698.66400819391	1167.40002441406
1699.27052580161	1160
1699.87696357542	1164.59997558594
1700.48332152272	1164.80004882813
1701.08959965092	1156.19995117188
1701.69579796742	1154.19995117188
1702.30191647962	1151.59997558594
1702.90795519491	1156.19995117188
1703.51391412069	1141.59997558594
1704.11979326437	1139.59997558594
1704.72559263332	1146
1705.33131223496	1133.40002441406
1705.93695207668	1134
1706.54251216588	1135.19995117188
1707.14799250994	1131.40002441406
1707.75339311628	1137.40002441406
1708.35871399227	1135.80004882813
1708.96395514532	1128.59997558594
1709.56911658282	1136.80004882813
