634.948122577771	1044.80004882813
635.690341530823	1042.59997558594
636.43246851086	1050.19995117188
637.174503525845	1046.19995117188
637.916446583745	1042.19995117188
638.658297692538	1044.59997558594
639.400056860179	1049
640.141724094637	1038
640.883299403885	1044
641.62478279588	1039.80004882813
642.366174278594	1040.40002441406
643.107473859989	1045
643.848681548029	1033.19995117188
644.589797350679	1037.80004882813
645.330821275901	1036
646.071753331665	1038.19995117188
646.812593525922	1038.59997558594
647.553341866646	1039
648.293998361798	1045.59997558594
649.03456301933	1042
649.775035847216	1052
650.515416853409	1045.80004882813
651.255706045874	1044.59997558594
651.995903432568	1041.40002441406
652.736009021453	1045.40002441406
653.476022820486	1043
654.215944837629	1045
654.955775080842	1048.19995117188
655.695513558081	1053.80004882813
656.435160277301	1047.19995117188
657.174715246465	1044.80004882813
657.914178473527	1045.59997558594
658.653549966449	1054.40002441406
659.392829733176	1050.40002441406
660.132017781678	1046.40002441406
660.871114119901	1047.40002441406
661.610118755803	1053.19995117188
662.349031697343	1049
663.087852952468	1057.40002441406
663.826582529139	1053.19995117188
664.565220435305	1048.19995117188
665.30376667892	1053.80004882813
666.04222126794	1052.40002441406
666.780584210316	1050
667.518855514	1057.19995117188
668.25703518694	1048
668.995123237096	1053.80004882813
669.733119672413	1056.59997558594
670.471024500842	1049.59997558594
671.208837730333	1052.80004882813
671.946559368839	1061.19995117188
672.684189424308	1059.19995117188
673.421727904689	1052.80004882813
674.159174817929	1046.19995117188
674.896530171977	1046.59997558594
675.633793974786	1048.19995117188
676.370966234295	1044
677.108046958461	1041.40002441406
677.845036155219	1045.40002441406
678.581933832528	1045
679.318739998323	1045
680.055454660558	1048.80004882813
680.792077827172	1056.80004882813
681.528609506116	1047.19995117188
682.265049705331	1049.59997558594
683.001398432759	1047.80004882813
683.737655696349	1048.59997558594
684.47382150404	1044.40002441406
685.20989586378	1055.40002441406
685.945878783503	1050.80004882813
686.68177027116	1055.59997558594
687.417570334688	1051.40002441406
688.153278982032	1052
688.888896221129	1059.59997558594
689.624422059921	1056
690.359856506349	1059
691.095199568354	1050.40002441406
691.830451253874	1049.80004882813
692.565611570844	1053.59997558594
693.300680527212	1059.80004882813
694.03565813091	1062
694.770544389877	1056.80004882813
695.505339312053	1065
696.240042905372	1061.80004882813
696.974655177772	1068.19995117188
697.70917613719	1067.80004882813
698.443605791561	1063.59997558594
699.177944148826	1065.59997558594
699.912191216909	1060.59997558594
700.646347003755	1067.80004882813
701.380411517295	1063.19995117188
702.114384765465	1065.19995117188
702.848266756195	1066.40002441406
703.582057497421	1057
704.315756997074	1060.19995117188
705.049365263089	1053.80004882813
705.782882303399	1053.19995117188
706.516308125936	1057.59997558594
707.249642738626	1059.19995117188
707.982886149403	1055.59997558594
708.716038366204	1058.80004882813
709.449099396949	1043.40002441406
710.182069249577	1048.59997558594
710.914947932009	1045.59997558594
711.647735452181	1038.40002441406
712.380431818022	1045.80004882813
713.113037037454	1049.80004882813
713.845551118411	1054
714.577974068818	1052.59997558594
715.310305896604	1062.19995117188
716.042546609694	1052.59997558594
716.774696216013	1054.19995117188
717.506754723493	1054
718.238722140053	1058
718.970598473624	1058.59997558594
719.702383732127	1056.80004882813
720.43407792349	1053
721.165681055634	1056
721.897193136486	1054.40002441406
722.628614173966	1051.59997558594
723.359944175997	1058.80004882813
724.091183150505	1056
724.822331105412	1055.40002441406
725.553388048638	1062.80004882813
726.284353988106	1060.80004882813
727.015228931734	1059.59997558594
727.746012887449	1062.40002441406
728.476705863162	1062.59997558594
729.207307866803	1061.80004882813
729.937818906289	1059.40002441406
730.668238989535	1061.80004882813
731.398568124459	1055
732.128806318986	1057.19995117188
732.858953581034	1057.19995117188
733.589009918514	1058.80004882813
734.318975339348	1059.59997558594
735.048849851452	1062
735.778633462744	1059.19995117188
736.508326181137	1059.80004882813
737.237928014549	1057.59997558594
737.967438970897	1058.40002441406
738.696859058095	1055.80004882813
739.426188284054	1062.80004882813
740.155426656692	1061.40002441406
740.884574183922	1060.40002441406
741.613630873659	1065.80004882813
742.342596733815	1069
743.071471772302	1068.59997558594
743.800255997034	1067
744.528949415921	1058.59997558594
745.257552036877	1056.40002441406
745.986063867811	1057.59997558594
746.714484916638	1066
747.442815191261	1061.80004882813
748.171054699597	1065
748.899203449554	1065.19995117188
749.627261449039	1064
750.355228705966	1062.80004882813
751.083105228239	1064
751.810891023765	1066.19995117188
752.538586100459	1059
753.266190466218	1063.19995117188
753.99370412896	1066.40002441406
754.721127096582	1067.59997558594
755.448459377	1059.40002441406
756.175700978114	1058.40002441406
756.902851907828	1057.19995117188
757.629912174055	1060.59997558594
758.356881784688	1051.59997558594
759.083760747639	1055
759.810549070817	1060.80004882813
760.537246762113	1059.80004882813
761.263853829442	1058.59997558594
761.990370280698	1058.40002441406
762.716796123791	1062.19995117188
763.443131366618	1067.40002441406
764.169376017082	1071.59997558594
764.895530083085	1081.80004882813
765.621593572527	1077.59997558594
766.347566493312	1078.80004882813
767.073448853336	1087.59997558594
767.799240660502	1083.59997558594
768.524941922707	1078.80004882813
769.250552647854	1080
769.976072843836	1082
770.701502518551	1078
771.426841679905	1082.59997558594
772.152090335793	1087.40002441406
772.877248494107	1079.59997558594
773.602316162747	1088.80004882813
774.327293349609	1084.40002441406
775.052180062592	1086.59997558594
775.776976309589	1090.59997558594
776.501682098496	1084.19995117188
777.226297437206	1078
777.950822333616	1091.59997558594
778.675256795621	1081.19995117188
779.399600831111	1087.80004882813
780.123854447983	1089.19995117188
780.84801765413	1078.59997558594
781.572090457441	1079.19995117188
782.296072865811	1079.59997558594
783.019964887131	1077.40002441406
783.743766529297	1079
784.467477800194	1082.19995117188
785.191098707719	1069
785.914629259756	1074.40002441406
786.638069464194	1074.80004882813
787.361419328932	1078.40002441406
788.084678861852	1073.59997558594
788.807848070845	1070.40002441406
789.530926963798	1072
790.253915548602	1065
790.976813833144	1062.80004882813
791.699621825307	1067.59997558594
792.422339532986	1067
793.144966964061	1063.80004882813
793.86750412642	1073.19995117188
794.589951027946	1063.59997558594
795.312307676536	1067.40002441406
796.03457408006	1066.80004882813
796.756750246417	1069.40002441406
797.478836183477	1071
798.200831899137	1070.80004882813
798.92273740127	1069
799.644552697769	1076.40002441406
800.36627779651	1072.80004882813
801.087912705374	1074.59997558594
801.809457432251	1071
802.530911985017	1064.19995117188
803.252276371558	1062.19995117188
803.973550599748	1062
804.694734677472	1062.80004882813
805.415828612611	1065.80004882813
806.136832413045	1067.59997558594
806.857746086646	1069.80004882813
807.578569641305	1069.59997558594
808.299303084892	1067.40002441406
809.019946425289	1072.40002441406
809.740499670372	1075
810.460962828022	1060.80004882813
811.181335906114	1065.40002441406
811.901618912524	1062
812.621811855131	1063.80004882813
813.341914741809	1061.19995117188
814.061927580433	1069.40002441406
814.781850378881	1071.59997558594
815.501683145025	1074.19995117188
816.221425886743	1064.40002441406
816.941078611903	1069.80004882813
817.660641328387	1063.80004882813
818.380114044065	1067.19995117188
819.099496766808	1063
819.818789504492	1056
820.53799226499	1049.40002441406
821.257105056168	1060.19995117188
821.976127885904	1063.59997558594
822.695060762064	1066.80004882813
823.413903692525	1067.80004882813
824.132656685151	1070.40002441406
824.851319747817	1075
825.569892888388	1077.80004882813
826.288376114739	1075.40002441406
827.006769434737	1072
827.725072856249	1067.19995117188
828.443286387142	1066.80004882813
829.161410035285	1067.19995117188
829.87944380855	1075
830.597387714798	1066.59997558594
831.315241761898	1058
832.033005957715	1063.80004882813
832.750680310119	1056.40002441406
833.468264826969	1060
834.18575951614	1059.80004882813
834.903164385486	1062.40002441406
835.620479442878	1068.59997558594
836.337704696181	1069.59997558594
837.054840153255	1064.19995117188
837.771885821962	1064.40002441406
838.488841710172	1066.19995117188
839.20570782574	1064.59997558594
839.922484176531	1062
840.639170770409	1067.40002441406
841.355767615231	1071.40002441406
842.072274718864	1064.59997558594
842.788692089164	1071.19995117188
843.505019733993	1070.40002441406
844.221257661209	1071
844.937405878676	1073.80004882813
845.65346439425	1072.80004882813
846.369433215789	1071
847.085312351156	1072.80004882813
847.801101808205	1068
848.516801594793	1064.80004882813
849.232411718781	1063.59997558594
849.947932188021	1057.40002441406
850.663363010376	1056
851.378704193698	1059.59997558594
852.093955745842	1069
852.809117674669	1068.40002441406
853.524189988028	1070
854.239172693778	1065.19995117188
854.954065799768	1070.59997558594
855.668869313857	1058.59997558594
856.383583243899	1055.19995117188
857.098207597743	1056.59997558594
857.812742383246	1061
858.527187608255	1064.80004882813
859.241543280628	1057.40002441406
859.955809408218	1066.80004882813
860.669985998868	1067.59997558594
861.384073060437	1079.40002441406
862.098070600772	1079.40002441406
862.811978627724	1074
863.52579714914	1074.40002441406
864.239526172873	1059.19995117188
864.953165706776	1059.80004882813
865.666715758687	1054.40002441406
866.380176336464	1052.19995117188
867.093547447951	1055.59997558594
867.806829100996	1061
868.520021303444	1060.80004882813
869.233124063149	1057.59997558594
869.94613738795	1064.40002441406
870.659061285693	1062.80004882813
871.37189576423	1060.59997558594
872.084640831403	1067.80004882813
872.797296495057	1064.40002441406
873.509862763039	1070.40002441406
874.22233964319	1065.80004882813
874.934727143353	1075.19995117188
875.647025271374	1079.19995117188
876.359234035097	1074
877.071353442361	1067.19995117188
877.783383501015	1069.19995117188
878.495324218895	1073.59997558594
879.207175603844	1073.19995117188
879.918937663705	1072.40002441406
880.630610406318	1077
881.342193839524	1074.59997558594
882.053687971161	1078.59997558594
882.765092809069	1076.19995117188
883.476408361091	1069.59997558594
884.187634635066	1072.40002441406
884.898771638828	1071.80004882813
885.609819380221	1079.59997558594
886.320777867076	1072
887.031647107236	1071.80004882813
887.742427108536	1070.19995117188
888.453117878816	1070
889.16371942591	1064.40002441406
889.874231757652	1073.40002441406
890.584654881883	1071
891.294988806434	1069.19995117188
892.005233539141	1070.40002441406
892.715389087837	1061.19995117188
893.42545546036	1068.80004882813
894.135432664543	1063.40002441406
894.845320708216	1064.80004882813
895.555119599216	1060.19995117188
896.264829345375	1069.19995117188
896.974449954526	1071.19995117188
897.683981434496	1074
898.393423793125	1077
899.102777038235	1076.40002441406
899.812041177664	1073
900.521216219239	1069.59997558594
901.230302170793	1064.80004882813
901.939299040155	1074
902.64820683515	1069.19995117188
903.357025563612	1074.19995117188
904.065755233368	1069.19995117188
904.774395852247	1072.59997558594
905.482947428076	1072.59997558594
906.191409968682	1076.19995117188
906.899783481897	1070.40002441406
907.608067975538	1068
908.316263457443	1072.59997558594
909.02436993543	1077
909.732387417327	1071
910.440315910959	1066.80004882813
911.148155424154	1063.80004882813
911.855905964731	1064.59997558594
912.563567540521	1065.19995117188
913.271140159339	1065.80004882813
913.978623829017	1070.19995117188
914.686018557374	1077.19995117188
915.393324352237	1069.19995117188
916.100541221421	1074.19995117188
916.807669172752	1068.80004882813
917.514708214054	1066.80004882813
918.221658353142	1062.80004882813
918.928519597843	1057
919.635291955976	1062.19995117188
920.341975435358	1062.59997558594
921.048570043813	1067
921.75507578916	1063.19995117188
922.461492679212	1067
923.167820721795	1074.80004882813
923.874059924726	1067
924.58021029582	1073.19995117188
925.286271842893	1079.19995117188
925.992244573769	1071.40002441406
926.698128496262	1076.19995117188
927.403923618184	1065.80004882813
928.109629947355	1067.19995117188
928.815247491593	1067.80004882813
929.520776258708	1064
930.226216256519	1062.40002441406
930.931567492841	1061.80004882813
931.636829975482	1062.80004882813
932.342003712263	1065.19995117188
933.047088710995	1068.40002441406
933.752084979491	1075.80004882813
934.456992525564	1078
935.161811357024	1064.59997558594
935.866541481688	1066.59997558594
936.571182907363	1067.40002441406
937.275735641861	1070.80004882813
937.980199692995	1065.40002441406
938.684575068572	1064.19995117188
939.388861776411	1072.19995117188
940.093059824311	1064
940.797169220085	1070.40002441406
941.501189971544	1070.59997558594
942.205122086495	1067.80004882813
942.908965572751	1068.59997558594
943.612720438111	1069.40002441406
944.316386690391	1063.19995117188
945.019964337391	1056.59997558594
945.723453386924	1062.59997558594
946.426853846795	1069.40002441406
947.130165724808	1059.40002441406
947.83338902877	1069.59997558594
948.536523766488	1068.40002441406
949.239569945764	1062.59997558594
949.942527574402	1068.80004882813
950.64539666021	1060
951.348177210993	1056.40002441406
952.050869234548	1060
952.753472738683	1052.40002441406
953.455987731199	1060.19995117188
954.158414219898	1055.40002441406
954.860752212587	1053.40002441406
955.563001717061	1053
956.265162741124	1049.19995117188
956.967235292576	1052.19995117188
957.669219379224	1056.19995117188
958.371115008857	1057.40002441406
959.072922189283	1057.59997558594
959.774640928301	1058
960.476271233708	1066
961.177813113301	1062.19995117188
961.879266574882	1065.19995117188
962.580631626248	1057.59997558594
963.281908275194	1059.80004882813
963.98309652952	1055.59997558594
964.684196397022	1057.80004882813
965.3852078855	1061.19995117188
966.086131002745	1060.59997558594
966.786965756555	1066.59997558594
967.487712154726	1064.19995117188
968.188370205055	1063.19995117188
968.888939915331	1059.80004882813
969.589421293352	1064.80004882813
970.289814346909	1062.40002441406
970.990119083801	1061
971.690335511819	1064
972.39046363875	1059.40002441406
973.090503472398	1059.80004882813
973.790455020545	1060.80004882813
974.490318290987	1066.59997558594
975.190093291516	1061.59997558594
975.889780029923	1061.59997558594
976.589378513998	1066.59997558594
977.288888751527	1067
977.988310750308	1066
978.687644518122	1067.59997558594
979.386890062767	1065.19995117188
980.086047392025	1058.40002441406
980.785116513689	1063
981.484097435542	1056.40002441406
982.182990165377	1050
982.88179471098	1049.19995117188
983.580511080137	1047.19995117188
984.279139280632	1047.40002441406
984.977679320253	1044
985.67613120679	1047.59997558594
986.374494948027	1051
987.072770551745	1062
987.770958025731	1064.80004882813
988.469057377772	1066
989.167068615649	1071.40002441406
989.864991747145	1065.19995117188
990.562826780047	1062.19995117188
991.260573722134	1064.80004882813
991.958232581195	1066.80004882813
992.655803365003	1060.80004882813
993.353286081346	1065.80004882813
994.050680738006	1064.19995117188
994.74798734276	1060
995.44520590339	1070
996.142336427681	1063.19995117188
996.839378923407	1062.40002441406
997.536333398348	1063.40002441406
998.233199860289	1063.40002441406
998.929978317004	1061
999.626668776274	1055.59997558594
1000.32327124587	1062.19995117188
1001.01978573359	1060.59997558594
1001.71621224718	1063.19995117188
1002.41255079445	1064
1003.10880138315	1063.80004882813
1003.80496402107	1068.19995117188
1004.50103871599	1060.80004882813
1005.19702547567	1061.40002441406
1005.8929243079	1059.19995117188
1006.58873522045	1064.40002441406
1007.2844582211	1065.80004882813
1007.98009331761	1064.40002441406
1008.67564051776	1064.59997558594
1009.37109982933	1074
1010.06647126009	1066.59997558594
1010.7617548178	1072.40002441406
1011.45695051026	1073.19995117188
1012.15205834522	1066.19995117188
1012.84707833045	1067.59997558594
1013.54201047373	1063.59997558594
1014.23685478284	1063.19995117188
1014.93161126553	1055.19995117188
1015.62627992959	1062.19995117188
1016.32086078277	1065.59997558594
1017.01535383285	1057
1017.70975908761	1064.59997558594
1018.40407655479	1067
1019.09830624219	1065
1019.79244815755	1068.19995117188
1020.48650230866	1065.19995117188
1021.18046870328	1067.59997558594
1021.87434734917	1065.40002441406
1022.56813825411	1072
1023.26184142584	1061.59997558594
1023.95545687216	1074
1024.64898460082	1062
1025.34242461957	1069
1026.0357769362	1072.80004882813
1026.72904155846	1073.19995117188
1027.42221849412	1069.40002441406
1028.11530775094	1069.59997558594
1028.80830933668	1066.80004882813
1029.50122325911	1077.40002441406
1030.19404952599	1075.59997558594
1030.88678814508	1075.80004882813
1031.57943912414	1066.19995117188
1032.27200247093	1059.40002441406
1032.96447819323	1056.59997558594
1033.65686629878	1055
1034.34916679534	1054.59997558594
1035.04137969068	1060.59997558594
1035.73350499256	1062.59997558594
1036.42554270874	1062.80004882813
1037.11749284697	1067.19995117188
1037.80935541501	1063.40002441406
1038.50113042062	1067
1039.19281787156	1060.59997558594
1039.88441777559	1069.80004882813
1040.57593014046	1069.19995117188
1041.26735497393	1062.59997558594
1041.95869228376	1065.19995117188
1042.6499420777	1060.80004882813
1043.3411043635	1066
1044.03217914893	1067.80004882813
1044.72316644174	1068.19995117188
1045.41406624968	1074
1046.1048785805	1068.19995117188
1046.79560344197	1069.59997558594
1047.48624084182	1065.40002441406
1048.17679078783	1060.19995117188
1048.86725328774	1059.80004882813
1049.55762834929	1061.59997558594
1050.24791598025	1058.59997558594
1050.93811618837	1064.19995117188
1051.62822898139	1063
1052.31825436707	1058.40002441406
1053.00819235315	1067
1053.6980429474	1064.80004882813
1054.38780615755	1067.19995117188
1055.07748199136	1061.40002441406
1055.76707045658	1059.59997558594
1056.45657156095	1069.59997558594
1057.14598531222	1065.59997558594
1057.83531171814	1065.59997558594
1058.52455078646	1064.80004882813
1059.21370252494	1062.59997558594
1059.90276694129	1061.59997558594
1060.5917440433	1057.59997558594
1061.28063383868	1065.80004882813
1061.9694363352	1065.40002441406
1062.65815154059	1079.40002441406
1063.34677946261	1072
1064.03532010899	1074.80004882813
1064.72377348748	1066.19995117188
1065.41213960583	1066.80004882813
1066.10041847177	1065.40002441406
1066.78861009306	1067.40002441406
1067.47671447743	1071
1068.16473163263	1067.19995117188
1068.85266156639	1070.40002441406
1069.54050428647	1058.80004882813
1070.2282598006	1064.59997558594
1070.91592811652	1068.59997558594
1071.60350924198	1061.19995117188
1072.29100318471	1063
1072.97840995245	1057.80004882813
1073.66572955295	1063.59997558594
1074.35296199394	1058.80004882813
1075.04010728316	1064
1075.72716542836	1060.19995117188
1076.41413643726	1065.80004882813
1077.10102031761	1060.40002441406
1077.78781707715	1061.80004882813
1078.4745267236	1054.59997558594
1079.16114926471	1060.19995117188
1079.84768470822	1057.59997558594
1080.53413306185	1051.19995117188
1081.22049433336	1052.40002441406
1081.90676853046	1056
1082.5929556609	1056.40002441406
1083.27905573241	1066.40002441406
1083.96506875272	1059
1084.65099472957	1063.19995117188
1085.3368336707	1066
1086.02258558383	1065
1086.70825047669	1065.19995117188
1087.39382835703	1064.19995117188
1088.07931923257	1065.59997558594
1088.76472311104	1062.59997558594
1089.45004000018	1056
1090.13526990771	1057.80004882813
1090.82041284137	1055.40002441406
1091.50546880889	1042.80004882813
1092.19043781799	1055.59997558594
1092.87531987642	1054.59997558594
1093.56011499188	1049
1094.24482317212	1046.19995117188
1094.92944442486	1053.40002441406
1095.61397875783	1048
1096.29842617876	1050.40002441406
1096.98278669537	1055.19995117188
1097.6670603154	1055.59997558594
1098.35124704656	1057.80004882813
1099.03534689659	1050.19995117188
1099.71935987322	1058.40002441406
1100.40328598416	1057.40002441406
1101.08712523713	1067.80004882813
1101.77087763988	1062.40002441406
1102.45454320012	1068.40002441406
1103.13812192557	1071.19995117188
1103.82161382396	1063.40002441406
1104.50501890301	1066.19995117188
1105.18833717045	1064.59997558594
1105.87156863399	1066
1106.55471330137	1064.59997558594
1107.2377711803	1066.19995117188
1107.9207422785	1066.59997558594
1108.60362660369	1071
1109.2864241636	1066.40002441406
1109.96913496594	1062.80004882813
1110.65175901844	1066.40002441406
1111.33429632882	1078.40002441406
1112.01674690479	1063.40002441406
1112.69911075408	1065.80004882813
1113.38138788439	1065.19995117188
1114.06357830346	1065
1114.745682019	1061.80004882813
1115.42769903872	1065
1116.10962937035	1071.59997558594
1116.7914730216	1066.80004882813
1117.47323000018	1070.59997558594
1118.15490031382	1078.19995117188
1118.83648397022	1071.80004882813
1119.51798097712	1070.40002441406
1120.1993913422	1068.19995117188
1120.88071507321	1078
1121.56195217784	1066
1122.24310266381	1070.19995117188
1122.92416653884	1065.19995117188
1123.60514381064	1068.19995117188
1124.28603448692	1067.19995117188
1124.9668385754	1072
1125.64755608378	1061
1126.32818701978	1072.80004882813
1127.00873139111	1067.80004882813
1127.68918920548	1072.80004882813
1128.3695604706	1070
1129.04984519419	1067
1129.73004338394	1067.59997558594
1130.41015504758	1069
1131.09018019281	1060.40002441406
1131.77011882734	1068.19995117188
1132.44997095888	1067.59997558594
1133.12973659514	1069.40002441406
1133.80941574381	1062
1134.48900841263	1062
1135.16851460927	1060.59997558594
1135.84793434147	1062.19995117188
1136.52726761692	1062.80004882813
1137.20651444333	1063.19995117188
1137.8856748284	1064.40002441406
1138.56474877984	1065.40002441406
1139.24373630536	1059
1139.92263741265	1064.40002441406
1140.60145210943	1063.59997558594
1141.28018040339	1066.59997558594
1141.95882230225	1067.80004882813
1142.6373778137	1060
1143.31584694545	1056.40002441406
1143.99422970519	1062.80004882813
1144.67252610064	1064.80004882813
1145.35073613949	1064
1146.02885982944	1064.59997558594
1146.7068971782	1065.80004882813
1147.38484819347	1057.80004882813
1148.06271288294	1057.19995117188
1148.74049125432	1057.19995117188
1149.41818331531	1058.19995117188
1150.0957890736	1065.59997558594
1150.77330853689	1064
1151.45074171289	1066.40002441406
1152.12808860928	1060
1152.80534923378	1067.40002441406
1153.48252359407	1056
1154.15961169786	1055
1154.83661355283	1053.80004882813
1155.51352916669	1065.19995117188
1156.19035854713	1061
1156.86710170185	1063
1157.54375863855	1057.80004882813
1158.22032936491	1055.80004882813
1158.89681388863	1052.80004882813
1159.57321221741	1051.80004882813
1160.24952435894	1055.40002441406
1160.92575032092	1063.59997558594
1161.60189011103	1065.19995117188
1162.27794373697	1058.40002441406
1162.95391120644	1063.40002441406
1163.62979252712	1066.80004882813
1164.3055877067	1066.19995117188
1164.98129675288	1067
1165.65691967336	1066.80004882813
1166.33245647581	1067.80004882813
1167.00790716792	1065.19995117188
1167.6832717574	1065
1168.35855025193	1052.40002441406
1169.0337426592	1059
1169.70884898689	1059.19995117188
1170.3838692427	1057.40002441406
1171.05880343431	1062.80004882813
1171.73365156941	1061.59997558594
1172.40841365569	1066.59997558594
1173.08308970083	1063
1173.75767971253	1063.80004882813
1174.43218369847	1065.59997558594
1175.10660166633	1071.19995117188
1175.7809336238	1064.19995117188
1176.45517957857	1063.80004882813
1177.12933953832	1072.59997558594
1177.80341351073	1062.80004882813
1178.47740150349	1072.40002441406
1179.15130352429	1066.40002441406
1179.8251195808	1079.59997558594
1180.49884968071	1070.80004882813
1181.1724938317	1066.59997558594
1181.84605204145	1078.80004882813
1182.51952431766	1072.40002441406
1183.19291066799	1074.59997558594
1183.86621110013	1080
1184.53942562176	1076.59997558594
1185.21255424057	1073
1185.88559696422	1072.40002441406
1186.55855380041	1073.80004882813
1187.2314247568	1069.40002441406
1187.90420984109	1072.80004882813
1188.57690906095	1072.59997558594
1189.24952242405	1080.80004882813
1189.92204993808	1086
1190.59449161071	1087
1191.26684744962	1087.40002441406
1191.93911746249	1073.59997558594
1192.61130165699	1080
1193.28340004081	1075.40002441406
1193.95541262161	1074.80004882813
1194.62733940707	1080.80004882813
1195.29918040487	1072.19995117188
1195.97093562269	1078
1196.64260506819	1083.19995117188
1197.31418874905	1075
1197.98568667295	1077.80004882813
1198.65709884755	1074.80004882813
1199.32842528053	1079.19995117188
1199.99966597957	1074.19995117188
1200.67082095234	1076.40002441406
1201.3418902065	1081.40002441406
1202.01287374974	1078
1202.68377158971	1074
1203.3545837341	1069.80004882813
1204.02531019057	1064.40002441406
1204.6959509668	1065.59997558594
1205.36650607045	1070.40002441406
1206.03697550919	1062
1206.70735929069	1069.59997558594
1207.37765742263	1075.59997558594
1208.04786991266	1069.40002441406
1208.71799676846	1075.40002441406
1209.38803799769	1071.19995117188
1210.05799360803	1065.80004882813
1210.72786360714	1071.19995117188
1211.39764800268	1064.40002441406
1212.06734680233	1062.40002441406
1212.73696001375	1066
1213.4064876446	1070.80004882813
1214.07592970255	1064.59997558594
1214.74528619526	1065.80004882813
1215.4145571304	1060.40002441406
1216.08374251564	1053.80004882813
1216.75284235863	1066.59997558594
1217.42185666704	1074.40002441406
1218.09078544854	1067
1218.75962871078	1066
1219.42838646143	1065.19995117188
1220.09705870816	1068.59997558594
1220.76564545861	1064.40002441406
1221.43414672046	1068.59997558594
1222.10256250136	1062.19995117188
1222.77089280898	1061.40002441406
1223.43913765098	1062
1224.107297035	1059.59997558594
1224.77537096873	1057.59997558594
1225.44335945981	1058.80004882813
1226.1112625159	1057.80004882813
1226.77908014467	1058.59997558594
1227.44681235376	1056
1228.11445915085	1057.19995117188
1228.78202054357	1057.19995117188
1229.44949653961	1062.40002441406
1230.11688714659	1058.59997558594
1230.7841923722	1070.59997558594
1231.45141222407	1072.80004882813
1232.11854670988	1067
1232.78559583726	1069.59997558594
1233.45255961388	1066.80004882813
1234.1194380474	1072.80004882813
1234.78623114546	1068.59997558594
1235.45293891572	1075.19995117188
1236.11956136583	1076.19995117188
1236.78609850345	1068.80004882813
1237.45255033623	1068.80004882813
1238.11891687182	1075.59997558594
1238.78519811788	1071.80004882813
1239.45139408205	1073.19995117188
1240.11750477198	1074.59997558594
1240.78353019534	1061.59997558594
1241.44947035976	1067.40002441406
1242.11532527291	1059.19995117188
1242.78109494242	1059.59997558594
1243.44677937595	1058.59997558594
1244.11237858115	1053.80004882813
1244.77789256567	1061
1245.44332133715	1067.80004882813
1246.10866490325	1066.40002441406
1246.7739232716	1064.80004882813
1247.43909644987	1053.80004882813
1248.10418444569	1062.19995117188
1248.76918726671	1061.59997558594
1249.43410492059	1066.19995117188
1250.09893741496	1056.40002441406
1250.76368475747	1063.80004882813
1251.42834695576	1061.59997558594
1252.09292401749	1062.40002441406
1252.75741595029	1066
1253.42182276182	1062.80004882813
1254.08614445971	1066.59997558594
1254.75038105161	1064.59997558594
1255.41453254515	1059.19995117188
1256.07859894799	1059.59997558594
1256.74258026777	1050.80004882813
1257.40647651213	1060.40002441406
1258.0702876887	1051.40002441406
1258.73401380514	1056.80004882813
1259.39765486908	1057.40002441406
1260.06121088817	1056.80004882813
1260.72468187004	1065.59997558594
1261.38806782233	1061.40002441406
1262.05136875269	1060.19995117188
1262.71458466875	1060.40002441406
1263.37771557815	1060.59997558594
1264.04076148854	1056.59997558594
1264.70372240753	1059.19995117188
1265.3665983428	1062
1266.02938930195	1060.40002441406
1266.69209529263	1064.80004882813
1267.35471632249	1066.80004882813
1268.01725239914	1060.80004882813
1268.67970353024	1065.19995117188
1269.34206972342	1052.19995117188
1270.00435098631	1063.19995117188
1270.66654732655	1057.59997558594
1271.32865875177	1064.80004882813
1271.9906852696	1067.59997558594
1272.65262688768	1064.19995117188
1273.31448361365	1066.59997558594
1273.97625545514	1056.59997558594
1274.63794241978	1058.40002441406
1275.2995445152	1060.80004882813
1275.96106174903	1062.80004882813
1276.62249412892	1067
1277.28384166248	1059.19995117188
1277.94510435735	1055.80004882813
1278.60628222116	1064.40002441406
1279.26737526155	1059.40002441406
1279.92838348613	1056.40002441406
1280.58930690255	1056
1281.25014551842	1065.80004882813
1281.91089934139	1069.40002441406
1282.57156837907	1063.19995117188
1283.2321526391	1063.80004882813
1283.89265212911	1062
1284.55306685671	1065.40002441406
1285.21339682955	1060
1285.87364205525	1052.40002441406
1286.53380254142	1058
1287.19387829571	1061.40002441406
1287.85386932573	1052.40002441406
1288.51377563911	1053.59997558594
1289.17359724348	1061.19995117188
1289.83333414646	1062.19995117188
1290.49298635567	1068
1291.15255387874	1062.19995117188
1291.8120367233	1063.59997558594
1292.47143489696	1065.80004882813
1293.13074840736	1068
1293.7899772621	1057
1294.44912146882	1066.19995117188
1295.10818103513	1069
1295.76715596866	1065.80004882813
1296.42604627704	1061
1297.08485196787	1054.59997558594
1297.74357304878	1051.40002441406
1298.4022095274	1056.40002441406
1299.06076141134	1063.40002441406
1299.71922870821	1060
1300.37761142565	1068.80004882813
1301.03590957126	1064.19995117188
1301.69412315268	1064.80004882813
1302.3522521775	1069
1303.01029665336	1070.80004882813
1303.66825658787	1064.80004882813
1304.32613198865	1063
1304.98392286332	1063.59997558594
1305.64162921948	1062.19995117188
1306.29925106476	1062.59997558594
1306.95678840677	1070.80004882813
1307.61424125312	1065.59997558594
1308.27160961145	1063.80004882813
1308.92889348934	1068.80004882813
1309.58609289443	1069.59997558594
1310.24320783432	1061.80004882813
1310.90023831664	1060.40002441406
1311.55718434898	1061.59997558594
1312.21404593897	1057
1312.87082309421	1054.40002441406
1313.52751582233	1060.19995117188
1314.18412413092	1062
1314.84064802761	1064.40002441406
1315.49708752	1063.40002441406
1316.1534426157	1066.59997558594
1316.80971332233	1064.40002441406
1317.46589964749	1064
1318.1220015988	1065.80004882813
1318.77801918386	1068
1319.43395241028	1068
1320.08980128567	1072
1320.74556581764	1070.59997558594
1321.4012460138	1067.19995117188
1322.05684188176	1067.80004882813
1322.71235342911	1068.80004882813
1323.36778066347	1062.40002441406
1324.02312359245	1069.19995117188
1324.67838222365	1073.40002441406
1325.33355656468	1070.59997558594
1325.98864662314	1073.19995117188
1326.64365240663	1072.59997558594
1327.29857392277	1069.40002441406
1327.95341117915	1065.40002441406
1328.60816418339	1064.40002441406
1329.26283294308	1068.59997558594
1329.91741746582	1066
1330.57191775923	1061.80004882813
1331.2263338309	1061.59997558594
1331.88066568843	1071.19995117188
1332.53491333943	1072.40002441406
1333.1890767915	1077.19995117188
1333.84315605224	1074.80004882813
1334.49715112925	1072.59997558594
1335.15106203013	1063.19995117188
1335.80488876249	1063.40002441406
1336.45863133391	1066.80004882813
1337.112289752	1070.59997558594
1337.76586402437	1072
1338.4193541586	1076
1339.0727601623	1073.80004882813
1339.72608204306	1080
1340.37931980849	1083.80004882813
1341.03247346617	1085.19995117188
1341.68554302372	1087.80004882813
1342.33852848871	1080.80004882813
1342.99142986876	1086.80004882813
1343.64424717145	1081.19995117188
1344.29698040438	1081.19995117188
1344.94962957515	1081.19995117188
1345.60219469135	1086.40002441406
1346.25467576058	1087.80004882813
1346.90707279042	1084.19995117188
1347.55938578848	1086
1348.21161476235	1083.59997558594
1348.86375971962	1085.80004882813
1349.51582066787	1088
1350.16779761472	1074.80004882813
1350.81969056774	1083.80004882813
1351.47149953453	1081.80004882813
1352.12322452269	1072.80004882813
1352.77486553979	1074.80004882813
1353.42642259344	1078.19995117188
1354.07789569122	1080.59997558594
1354.72928484072	1088.59997558594
1355.38059004953	1086.80004882813
1356.03181132525	1092
1356.68294867545	1088.80004882813
1357.33400210773	1096.19995117188
1357.98497162968	1086
1358.63585724889	1093
1359.28665897294	1090.59997558594
1359.93737680942	1086
1360.58801076591	1091
1361.23856085001	1094.19995117188
1361.88902706929	1090
1362.53940943135	1096.80004882813
1363.18970794377	1095.59997558594
1363.83992261413	1098.40002441406
1364.49005345003	1095
1365.14010045904	1089.59997558594
1365.79006364874	1091.80004882813
1366.43994302673	1098.19995117188
1367.08973860058	1093.80004882813
1367.73945037788	1091.80004882813
1368.38907836621	1082.19995117188
1369.03862257315	1084.59997558594
1369.68808300629	1084
1370.3374596732	1081
1370.98675258148	1079.80004882813
1371.63596173868	1085.59997558594
1372.28508715241	1082.59997558594
1372.93412883024	1071.19995117188
1373.58308677974	1069.80004882813
1374.2319610085	1072.59997558594
1374.8807515241	1067.40002441406
1375.52945833412	1072
1376.17808144612	1068.59997558594
1376.82662086771	1059.80004882813
1377.47507660644	1066.80004882813
1378.12344866989	1063.19995117188
1378.77173706565	1066.40002441406
1379.41994180129	1063.40002441406
1380.06806288439	1068.40002441406
1380.71610032252	1072.19995117188
1381.36405412326	1076.80004882813
1382.01192429419	1059
1382.65971084287	1060.40002441406
1383.30741377688	1065.59997558594
1383.95503310381	1065.19995117188
1384.60256883121	1060
1385.25002096667	1067.19995117188
1385.89738951775	1059.40002441406
1386.54467449204	1060.40002441406
1387.19187589709	1059.80004882813
1387.8389937405	1059.59997558594
1388.48602802982	1053
1389.13297877262	1057.59997558594
1389.77984597649	1062.80004882813
1390.42662964899	1069.59997558594
1391.07332979768	1062
1391.71994643015	1059.59997558594
1392.36647955395	1054
1393.01292917667	1054.80004882813
1393.65929530586	1056.40002441406
1394.3055779491	1053.40002441406
1394.95177711395	1051.59997558594
1395.59789280799	1059.59997558594
1396.24392503877	1061.59997558594
1396.88987381387	1056.19995117188
1397.53573914086	1057.40002441406
1398.1815210273	1069.19995117188
1398.82721948075	1061.80004882813
1399.47283450878	1066
1400.11836611897	1064.19995117188
1400.76381431886	1063.59997558594
1401.40917911603	1050.80004882813
1402.05446051805	1057.80004882813
1402.69965853247	1044
1403.34477316686	1050
1403.98980442878	1055.59997558594
1404.6347523258	1058.40002441406
1405.27961686548	1058.19995117188
1405.92439805538	1052.59997558594
1406.56909590306	1054.59997558594
1407.21371041608	1056
1407.85824160202	1054.40002441406
1408.50268946841	1058.59997558594
1409.14705402284	1062.80004882813
1409.79133527285	1064.19995117188
1410.43553322601	1049.40002441406
1411.07964788987	1053.80004882813
1411.723679272	1049.19995117188
1412.36762737996	1054.59997558594
1413.01149222129	1056
1413.65527380357	1052.40002441406
1414.29897213435	1050.40002441406
1414.94258722118	1053.19995117188
1415.58611907163	1052.80004882813
1416.22956769325	1048.19995117188
1416.87293309359	1052.59997558594
1417.51621528021	1064.40002441406
1418.15941426067	1067.59997558594
1418.80253004253	1059.59997558594
1419.44556263333	1062.59997558594
1420.08851204063	1073.80004882813
1420.731378272	1063.19995117188
1421.37416133497	1066.59997558594
1422.0168612371	1067.19995117188
1422.65947798596	1070
1423.30201158908	1061.80004882813
1423.94446205403	1070.19995117188
1424.58682938835	1063.80004882813
1425.2291135996	1068.59997558594
1425.87131469532	1065.59997558594
1426.51343268308	1064
1427.15546757042	1067.19995117188
1427.79741936488	1068
1428.43928807403	1063
1429.0810737054	1061.19995117188
1429.72277626656	1065.80004882813
1430.36439576504	1063.59997558594
1431.00593220841	1055
1431.64738560419	1055.40002441406
1432.28875595995	1059.19995117188
1432.93004328324	1061.40002441406
1433.57124758159	1059
1434.21236886255	1055.40002441406
1434.85340713368	1055.19995117188
1435.49436240252	1063.19995117188
1436.13523467661	1062.40002441406
1436.77602396349	1062.80004882813
1437.41673027073	1054.80004882813
1438.05735360585	1062.40002441406
1438.69789397641	1054.59997558594
1439.33835138994	1056.19995117188
1439.978725854	1059
1440.61901737612	1066.40002441406
1441.25922596385	1051.80004882813
1441.89935162473	1053.59997558594
1442.53939436631	1054.19995117188
1443.17935419612	1061.19995117188
1443.81923112171	1060.80004882813
1444.45902515061	1054.59997558594
1445.09873629038	1059.59997558594
1445.73836454854	1065
1446.37790993265	1068.59997558594
1447.01737245024	1058.59997558594
1447.65675210885	1066.80004882813
1448.29604891602	1063.40002441406
1448.93526287928	1061.40002441406
1449.57439400618	1062.59997558594
1450.21344230426	1060
1450.85240778105	1058
1451.49129044409	1056.40002441406
1452.13009030092	1055.59997558594
1452.76880735907	1055.40002441406
1453.40744162608	1056.40002441406
1454.04599310949	1057.80004882813
1454.68446181683	1054.80004882813
1455.32284775564	1047.19995117188
1455.96115093345	1051
1456.5993713578	1052
1457.23750903623	1052.80004882813
1457.87556397626	1051.59997558594
1458.51353618543	1051.59997558594
1459.15142567127	1051.19995117188
1459.78923244132	1054.59997558594
1460.42695650311	1052.40002441406
1461.06459786417	1056.80004882813
1461.70215653203	1058
1462.33963251423	1053
1462.97702581829	1052.19995117188
1463.61433645175	1056.19995117188
1464.25156442214	1052.40002441406
1464.88870973699	1065
1465.52577240382	1062.40002441406
1466.16275243017	1060.40002441406
1466.79964982356	1062.19995117188
1467.43646459154	1060.59997558594
1468.07319674161	1066.59997558594
1468.70984628132	1063.19995117188
1469.34641321818	1068.19995117188
1469.98289755974	1061.40002441406
1470.6192993135	1068.40002441406
1471.25561848701	1062.80004882813
1471.89185508779	1065.80004882813
1472.52800912336	1063.40002441406
1473.16408060124	1073.40002441406
1473.80006952897	1057.19995117188
1474.43597591407	1060.80004882813
1475.07179976406	1056.80004882813
1475.70754108647	1059.80004882813
1476.34319988883	1056.59997558594
1476.97877617865	1055.19995117188
1477.61426996345	1054.40002441406
1478.24968125077	1062.19995117188
1478.88501004812	1057.80004882813
1479.52025636303	1057
1480.15542020302	1057
1480.79050157561	1066.40002441406
1481.42550048832	1067.80004882813
1482.06041694867	1058.19995117188
1482.69525096418	1058.80004882813
1483.33000254237	1061.40002441406
1483.96467169077	1062.80004882813
1484.59925841689	1060.19995117188
1485.23376272825	1057.59997558594
1485.86818463237	1061
1486.50252413677	1052.19995117188
1487.13678124896	1056.40002441406
1487.77095597646	1052.19995117188
1488.4050483268	1050.40002441406
1489.03905830749	1047.59997558594
1489.67298592604	1051.80004882813
1490.30683118996	1061.59997558594
1490.9405941068	1062.19995117188
1491.57427468403	1061.80004882813
1492.2078729292	1066.40002441406
1492.84138884981	1069.19995117188
1493.47482245338	1065.59997558594
1494.10817374742	1068.80004882813
1494.74144273944	1065.80004882813
1495.37462943696	1067.59997558594
1496.0077338475	1066.40002441406
1496.64075597856	1058.80004882813
1497.27369583765	1056.59997558594
1497.9065534323	1057.19995117188
1498.53932877001	1057.59997558594
1499.17202185829	1055.19995117188
1499.80463270465	1057.40002441406
1500.43716131661	1053.40002441406
1501.06960770167	1054.80004882813
1501.70197186735	1055.40002441406
1502.33425382116	1060.59997558594
1502.96645357059	1065.19995117188
1503.59857112317	1069.59997558594
1504.23060648641	1066.80004882813
1504.8625596678	1065.19995117188
1505.49443067486	1063.40002441406
1506.1262195151	1066.40002441406
1506.75792619602	1063.40002441406
1507.38955072513	1064.40002441406
1508.02109310993	1062.40002441406
1508.65255335794	1059.59997558594
1509.28393147666	1056.80004882813
1509.91522747359	1059.40002441406
1510.54644135624	1066
1511.17757313212	1058.40002441406
1511.80862280872	1066.19995117188
1512.43959039356	1067.19995117188
1513.07047589413	1058.59997558594
1513.70127931795	1051.80004882813
1514.33200067251	1055
1514.96263996531	1048
1515.59319720386	1047.19995117188
1516.22367239567	1053
1516.85406554822	1047.80004882813
1517.48437666903	1047.59997558594
1518.1146057656	1046.40002441406
1518.74475284542	1047.19995117188
1519.374817916	1044
1520.00480098483	1049.19995117188
1520.63470205942	1047.40002441406
1521.26452114726	1047.80004882813
1521.89425825586	1051.40002441406
1522.52391339271	1050.59997558594
1523.15348656531	1051.19995117188
1523.78297778116	1057.59997558594
1524.41238704775	1055.19995117188
1525.04171437259	1053
1525.67095976317	1053
1526.30012322699	1062
1526.92920477154	1055.40002441406
1527.55820440432	1059.80004882813
1528.18712213283	1068
1528.81595796455	1054.59997558594
1529.44471190699	1051
1530.07338396764	1049.59997558594
1530.70197415399	1047.19995117188
1531.33048247353	1051.59997558594
1531.95890893377	1049.80004882813
1532.58725354219	1056.59997558594
1533.21551630629	1059.19995117188
1533.84369723356	1054.40002441406
1534.47179633148	1061.40002441406
1535.09981360757	1063.40002441406
1535.72774906929	1057.80004882813
1536.35560272415	1058.80004882813
1536.98337457963	1061.40002441406
1537.61106464323	1058.80004882813
1538.23867292243	1060.19995117188
1538.86619942473	1067.40002441406
1539.49364415762	1059
1540.12100712857	1062.40002441406
1540.74828834509	1064.59997558594
1541.37548781466	1056.80004882813
1542.00260554478	1051
1542.62964154291	1056.59997558594
1543.25659581655	1062.19995117188
1543.8834683732	1053.80004882813
1544.51025922034	1052.40002441406
1545.13696836544	1052.40002441406
1545.76359581601	1047.40002441406
1546.39014157952	1045.19995117188
1547.01660566345	1041
1547.64298807531	1045.19995117188
1548.26928882255	1046.59997558594
1548.89550791269	1050
1549.52164535318	1039.80004882813
1550.14770115153	1048.40002441406
1550.77367531521	1044.40002441406
1551.39956785171	1049
1552.0253787685	1056.19995117188
1552.65110807307	1050.19995117188
1553.2767557729	1048
1553.90232187548	1047.19995117188
1554.52780638828	1043.19995117188
1555.15320931879	1043.59997558594
1555.77853067447	1039.80004882813
1556.40377046282	1039.40002441406
1557.02892869132	1047.59997558594
1557.65400536744	1044.40002441406
1558.27900049866	1041.59997558594
1558.90391409247	1046
1559.52874615633	1051.80004882813
1560.15349669773	1052.59997558594
1560.77816572414	1052
1561.40275324305	1049.80004882813
1562.02725926192	1053.80004882813
1562.65168378824	1051.40002441406
1563.27602682948	1051
1563.90028839311	1055.59997558594
1564.52446848662	1055.19995117188
1565.14856711748	1049
1565.77258429316	1048.59997558594
1566.39652002113	1044.59997558594
1567.02037430887	1051
1567.64414716387	1049
1568.26783859357	1052.59997558594
1568.89144860547	1054.59997558594
1569.51497720703	1049.19995117188
1570.13842440573	1050.40002441406
1570.76179020904	1055.19995117188
1571.38507462442	1056.80004882813
1572.00827765936	1062
1572.63139932132	1055.40002441406
1573.25443961777	1055.59997558594
1573.87739855618	1055
1574.50027614402	1051.59997558594
1575.12307238877	1051
1575.74578729789	1053.19995117188
1576.36842087885	1054.40002441406
1576.99097313912	1045.40002441406
1577.61344408616	1045.59997558594
1578.23583372745	1044.59997558594
1578.85814207046	1048.80004882813
1579.48036912264	1044.40002441406
1580.10251489147	1048
1580.72457938441	1048.80004882813
1581.34656260893	1050.59997558594
1581.9684645725	1048
1582.59028528258	1047.40002441406
1583.21202474663	1044
1583.83368297212	1045.80004882813
1584.45525996652	1047.80004882813
1585.07675573728	1042.80004882813
1585.69817029188	1049
1586.31950363778	1042.59997558594
1586.94075578243	1043.19995117188
1587.5619267333	1034.40002441406
1588.18301649786	1038.59997558594
1588.80402508357	1033
1589.42495249788	1032.80004882813
1590.04579874826	1028.59997558594
1590.66656384217	1032.59997558594
1591.28724778707	1025.59997558594
1591.90785059042	1022.40002441406
1592.52837225968	1030
1593.14881280232	1026.59997558594
1593.76917222578	1028.59997558594
1594.38945053753	1027.59997558594
1595.00964774502	1028
1595.62976385573	1030.19995117188
1596.24979887709	1027.80004882813
1596.86975281657	1034.40002441406
1597.48962568164	1030.80004882813
1598.10941747974	1033.80004882813
1598.72912821832	1042
1599.34875790486	1033
1599.9683065468	1038
1600.58777415159	1025.59997558594
1601.2071607267	1026.19995117188
1601.82646627958	1028.80004882813
1602.44569081769	1028.40002441406
1603.06483434846	1020
1603.68389687937	1020.59997558594
1604.30287841786	1019.20001220703
1604.92177897139	1025.19995117188
1605.54059854741	1021
1606.15933715337	1020.79998779297
1606.77799479672	1027.59997558594
1607.39657148492	1029
1608.01506722542	1022.59997558594
1608.63348202566	1017
1609.2518158931	1016.40002441406
1609.87006883519	1027.19995117188
1610.48824085939	1027.19995117188
1611.10633197312	1025.40002441406
1611.72434218386	1027.59997558594
1612.34227149904	1028.59997558594
1612.96011992612	1022
1613.57788747254	1023.59997558594
1614.19557414575	1026
1614.8131799532	1022.20001220703
1615.43070490234	1016.79998779297
1616.04814900061	1016.40002441406
1616.66551225545	1019.20001220703
1617.28279467433	1023
1617.89999626467	1022
1618.51711703393	1013.40002441406
1619.13415698955	1012
1619.75111613898	1015.20001220703
1620.36799448966	1013
1620.98479204903	1010.20001220703
1621.60150882455	1011.20001220703
1622.21814482364	1009.59997558594
1622.83470005376	1015.79998779297
1623.45117452235	1016.20001220703
1624.06756823685	1013.79998779297
1624.6838812047	1020.79998779297
1625.30011343335	1026.80004882813
1625.91626493022	1027.80004882813
1626.53233570278	1023.20001220703
1627.14832575845	1023.59997558594
1627.76423510468	1016.40002441406
1628.38006374891	1027.19995117188
1628.99581169857	1029.59997558594
1629.61147896111	1022.20001220703
1630.22706554397	1028.19995117188
1630.84257145457	1028
1631.45799670038	1023.79998779297
1632.07334128881	1018.20001220703
1632.6886052273	1022.20001220703
1633.3037885233	1013
1633.91889118425	1019.59997558594
1634.53391321757	1020.59997558594
1635.1488546307	1018.20001220703
1635.76371543108	1021.40002441406
1636.37849562616	1014.59997558594
1636.99319522335	1015.20001220703
1637.60781423009	1013.20001220703
1638.22235265383	1017.79998779297
1638.83681050198	1016
1639.451187782	1023.79998779297
1640.0654845013	1018.59997558594
1640.67970066734	1025.59997558594
1641.29383628752	1024.19995117188
1641.9078913693	1023.40002441406
1642.5218659201	1025.59997558594
1643.13575994735	1027.59997558594
1643.74957345849	1022.40002441406
1644.36330646094	1025.59997558594
1644.97695896213	1027
1645.59053096951	1031.80004882813
1646.20402249049	1029.59997558594
1646.8174335325	1030.80004882813
1647.43076410298	1046.80004882813
1648.04401420935	1039
1648.65718385905	1038.40002441406
1649.2702730595	1035.19995117188
1649.88328181812	1038.19995117188
1650.49621014236	1035.40002441406
1651.10905803963	1029
1651.72182551735	1034
1652.33451258297	1031.19995117188
1652.9471192439	1021.79998779297
1653.55964550757	1029.80004882813
1654.1720913814	1025.59997558594
1654.78445687283	1027
1655.39674198926	1022.79998779297
1656.00894673814	1019.79998779297
1656.62107112688	1016.20001220703
1657.23311516291	1020.20001220703
1657.84507885365	1011.59997558594
1658.45696220652	1005.20001220703
1659.06876522895	1008.59997558594
1659.68048792835	1009.20001220703
1660.29213031217	1008.40002441406
1660.90369238779	1006.59997558594
1661.51517416267	1005.20001220703
1662.12657564421	1004
1662.73789683984	1007.20001220703
1663.34913775697	1004.40002441406
1663.96029840303	1000.79998779297
1664.57137878544	993.400024414063
1665.18237891161	991.799987792969
1665.79329878897	996.599975585938
1666.40413842493	1000.59997558594
1667.01489782691	994.799987792969
1667.62557700233	999.200012207031
1668.2361759586	991.799987792969
1668.84669470315	986.599975585938
1669.4571332434	999.799987792969
1670.06749158675	995.200012207031
1670.67776974062	989.200012207031
1671.28796771243	993.799987792969
1671.8980855096	990.599975585938
1672.50812313954	990.400024414063
1673.11808060967	999.799987792969
1673.72795792739	993
1674.33775510013	999
1674.9474721353	997.599975585938
1675.55710904031	996.799987792969
1676.16666582257	996.200012207031
1676.7761424895	993.799987792969
1677.38553904851	994.599975585938
1677.99485550702	995.200012207031
1678.60409187243	987
1679.21324815215	986
1679.8223243536	984.799987792969
1680.43132048419	984.799987792969
1681.04023655132	981.400024414063
1681.64907256241	979.400024414063
1682.25782852487	982.400024414063
1682.86650444611	985.799987792969
1683.47510033353	984.400024414063
1684.08361619455	986.400024414063
1684.69205203657	984.799987792969
1685.300407867	981.599975585938
1685.90868369325	984.799987792969
1686.51687952272	979.599975585938
1687.12499536283	977.599975585938
1687.73303122098	975
1688.34098710457	980.200012207031
1688.94886302101	976.200012207031
1689.55665897772	981
1690.16437498208	980.200012207031
1690.77201104152	988.400024414063
1691.37956716342	982.799987792969
1691.9870433552	981.200012207031
1692.59443962426	981.400024414063
1693.20175597801	984
1693.80899242384	985.799987792969
1694.41614896916	985.599975585938
1695.02322562138	983
1695.63022238789	983.200012207031
1696.23713927609	984.400024414063
1696.8439762934	981.200012207031
1697.4507334472	981.799987792969
1698.05741074491	982
1698.66400819391	985.799987792969
1699.27052580161	989.599975585938
1699.87696357542	990.599975585938
1700.48332152272	985.799987792969
1701.08959965092	977.799987792969
1701.69579796742	977.799987792969
1702.30191647962	972
1702.90795519491	972.200012207031
1703.51391412069	976.400024414063
1704.11979326437	977
1704.72559263332	977.799987792969
1705.33131223496	972.200012207031
1705.93695207668	977.400024414063
1706.54251216588	980.599975585938
1707.14799250994	978.599975585938
1707.75339311628	979.599975585938
1708.35871399227	974.400024414063
1708.96395514532	975.200012207031
1709.56911658282	972
