634.948122577771	1312.80004882813
635.690341530823	1315.59997558594
636.43246851086	1326.59997558594
637.174503525845	1316.59997558594
637.916446583745	1315.80004882813
638.658297692538	1301.59997558594
639.400056860179	1308.59997558594
640.141724094637	1291
640.883299403885	1293.40002441406
641.62478279588	1303.19995117188
642.366174278594	1312.59997558594
643.107473859989	1310.40002441406
643.848681548029	1309.40002441406
644.589797350679	1307.80004882813
645.330821275901	1298.40002441406
646.071753331665	1294.19995117188
646.812593525922	1307.40002441406
647.553341866646	1311.59997558594
648.293998361798	1315.80004882813
649.03456301933	1301.80004882813
649.775035847216	1310.59997558594
650.515416853409	1318.59997558594
651.255706045874	1310.59997558594
651.995903432568	1307
652.736009021453	1318.40002441406
653.476022820486	1320.40002441406
654.215944837629	1323
654.955775080842	1326
655.695513558081	1317
656.435160277301	1325
657.174715246465	1318.80004882813
657.914178473527	1315.59997558594
658.653549966449	1316.80004882813
659.392829733176	1316.19995117188
660.132017781678	1310.80004882813
660.871114119901	1304.59997558594
661.610118755803	1316.40002441406
662.349031697343	1316.59997558594
663.087852952468	1327.19995117188
663.826582529139	1330.80004882813
664.565220435305	1305.19995117188
665.30376667892	1328.80004882813
666.04222126794	1331.40002441406
666.780584210316	1335.80004882813
667.518855514	1330.19995117188
668.25703518694	1333
668.995123237096	1329.19995117188
669.733119672413	1326.40002441406
670.471024500842	1343.40002441406
671.208837730333	1332.19995117188
671.946559368839	1329.59997558594
672.684189424308	1321.19995117188
673.421727904689	1320
674.159174817929	1329
674.896530171977	1318
675.633793974786	1322
676.370966234295	1310.40002441406
677.108046958461	1316
677.845036155219	1317.80004882813
678.581933832528	1328.40002441406
679.318739998323	1329.40002441406
680.055454660558	1318
680.792077827172	1333.59997558594
681.528609506116	1327.40002441406
682.265049705331	1331.59997558594
683.001398432759	1327.59997558594
683.737655696349	1332.19995117188
684.47382150404	1320.59997558594
685.20989586378	1318.80004882813
685.945878783503	1330.19995117188
686.68177027116	1321.40002441406
687.417570334688	1320.19995117188
688.153278982032	1320.59997558594
688.888896221129	1324.59997558594
689.624422059921	1333.19995117188
690.359856506349	1331.40002441406
691.095199568354	1337.80004882813
691.830451253874	1327.40002441406
692.565611570844	1351.80004882813
693.300680527212	1353.59997558594
694.03565813091	1353.19995117188
694.770544389877	1345
695.505339312053	1338.59997558594
696.240042905372	1343.80004882813
696.974655177772	1357.40002441406
697.70917613719	1360.80004882813
698.443605791561	1353.59997558594
699.177944148826	1360
699.912191216909	1352
700.646347003755	1352.80004882813
701.380411517295	1362.80004882813
702.114384765465	1357.80004882813
702.848266756195	1362.59997558594
703.582057497421	1348
704.315756997074	1340
705.049365263089	1344.80004882813
705.782882303399	1342.40002441406
706.516308125936	1345.40002441406
707.249642738626	1337.40002441406
707.982886149403	1337.40002441406
708.716038366204	1339.19995117188
709.449099396949	1331.59997558594
710.182069249577	1319.19995117188
710.914947932009	1317.80004882813
711.647735452181	1321.59997558594
712.380431818022	1309
713.113037037454	1331.19995117188
713.845551118411	1329.19995117188
714.577974068818	1335.59997558594
715.310305896604	1336.80004882813
716.042546609694	1342.40002441406
716.774696216013	1339
717.506754723493	1347.40002441406
718.238722140053	1336.19995117188
718.970598473624	1331
719.702383732127	1336
720.43407792349	1332.40002441406
721.165681055634	1330.59997558594
721.897193136486	1344
722.628614173966	1344.40002441406
723.359944175997	1335
724.091183150505	1334.40002441406
724.822331105412	1349.19995117188
725.553388048638	1340.80004882813
726.284353988106	1338
727.015228931734	1326.59997558594
727.746012887449	1340.80004882813
728.476705863162	1353
729.207307866803	1346.40002441406
729.937818906289	1340.40002441406
730.668238989535	1327.59997558594
731.398568124459	1318.59997558594
732.128806318986	1341.40002441406
732.858953581034	1334
733.589009918514	1339
734.318975339348	1342.40002441406
735.048849851452	1345.40002441406
735.778633462744	1335.19995117188
736.508326181137	1338.19995117188
737.237928014549	1337.80004882813
737.967438970897	1342
738.696859058095	1344
739.426188284054	1343.59997558594
740.155426656692	1349
740.884574183922	1343.80004882813
741.613630873659	1335
742.342596733815	1351.80004882813
743.071471772302	1335.80004882813
743.800255997034	1339.80004882813
744.528949415921	1334.19995117188
745.257552036877	1336.19995117188
745.986063867811	1329.59997558594
746.714484916638	1340.40002441406
747.442815191261	1345
748.171054699597	1349
748.899203449554	1356.40002441406
749.627261449039	1344.40002441406
750.355228705966	1342
751.083105228239	1337.80004882813
751.810891023765	1341.19995117188
752.538586100459	1342.59997558594
753.266190466218	1332
753.99370412896	1348.40002441406
754.721127096582	1355.80004882813
755.448459377	1346.80004882813
756.175700978114	1354.59997558594
756.902851907828	1339.59997558594
757.629912174055	1332.80004882813
758.356881784688	1330.59997558594
759.083760747639	1337.40002441406
759.810549070817	1328.40002441406
760.537246762113	1322.59997558594
761.263853829442	1338.19995117188
761.990370280698	1331.40002441406
762.716796123791	1348
763.443131366618	1344
764.169376017082	1352.40002441406
764.895530083085	1343
765.621593572527	1366.19995117188
766.347566493312	1365.40002441406
767.073448853336	1361
767.799240660502	1372.80004882813
768.524941922707	1377.19995117188
769.250552647854	1380
769.976072843836	1382.40002441406
770.701502518551	1386.59997558594
771.426841679905	1393
772.152090335793	1383.19995117188
772.877248494107	1366.59997558594
773.602316162747	1387
774.327293349609	1397.19995117188
775.052180062592	1397.80004882813
775.776976309589	1402.19995117188
776.501682098496	1394.40002441406
777.226297437206	1392.59997558594
777.950822333616	1382
778.675256795621	1382.19995117188
779.399600831111	1383
780.123854447983	1399.80004882813
780.84801765413	1400.80004882813
781.572090457441	1385
782.296072865811	1385.19995117188
783.019964887131	1383.59997558594
783.743766529297	1379
784.467477800194	1369.59997558594
785.191098707719	1380
785.914629259756	1362.80004882813
786.638069464194	1358.59997558594
787.361419328932	1360.40002441406
788.084678861852	1349
788.807848070845	1343.40002441406
789.530926963798	1357
790.253915548602	1351.19995117188
790.976813833144	1345.59997558594
791.699621825307	1346.59997558594
792.422339532986	1353.40002441406
793.144966964061	1355.59997558594
793.86750412642	1350.40002441406
794.589951027946	1357.59997558594
795.312307676536	1353.80004882813
796.03457408006	1347.59997558594
796.756750246417	1356
797.478836183477	1350
798.200831899137	1352.19995117188
798.92273740127	1358.59997558594
799.644552697769	1348.19995117188
800.36627779651	1353.80004882813
801.087912705374	1348.80004882813
801.809457432251	1348
802.530911985017	1351.19995117188
803.252276371558	1346
803.973550599748	1338
804.694734677472	1345.80004882813
805.415828612611	1350.80004882813
806.136832413045	1347
806.857746086646	1365.40002441406
807.578569641305	1354.80004882813
808.299303084892	1350
809.019946425289	1361.59997558594
809.740499670372	1357.59997558594
810.460962828022	1353
811.181335906114	1354.80004882813
811.901618912524	1355.59997558594
812.621811855131	1349.80004882813
813.341914741809	1342
814.061927580433	1348
814.781850378881	1350
815.501683145025	1342.19995117188
816.221425886743	1345
816.941078611903	1343.40002441406
817.660641328387	1338.40002441406
818.380114044065	1341.19995117188
819.099496766808	1332.59997558594
819.818789504492	1320.19995117188
820.53799226499	1335.80004882813
821.257105056168	1328.59997558594
821.976127885904	1336
822.695060762064	1330.19995117188
823.413903692525	1346.40002441406
824.132656685151	1353.80004882813
824.851319747817	1360.59997558594
825.569892888388	1368.59997558594
826.288376114739	1366.19995117188
827.006769434737	1359
827.725072856249	1355.40002441406
828.443286387142	1359.40002441406
829.161410035285	1357.19995117188
829.87944380855	1340.80004882813
830.597387714798	1335.19995117188
831.315241761898	1333
832.033005957715	1338.80004882813
832.750680310119	1330.59997558594
833.468264826969	1346.19995117188
834.18575951614	1343
834.903164385486	1341
835.620479442878	1355.59997558594
836.337704696181	1342.40002441406
837.054840153255	1344.59997558594
837.771885821962	1351.40002441406
838.488841710172	1351.80004882813
839.20570782574	1337.80004882813
839.922484176531	1345
840.639170770409	1332
841.355767615231	1343.80004882813
842.072274718864	1337
842.788692089164	1334.19995117188
843.505019733993	1343.19995117188
844.221257661209	1346.40002441406
844.937405878676	1352
845.65346439425	1357.40002441406
846.369433215789	1352.40002441406
847.085312351156	1350.80004882813
847.801101808205	1353
848.516801594793	1339
849.232411718781	1331.59997558594
849.947932188021	1329.59997558594
850.663363010376	1339.19995117188
851.378704193698	1363.19995117188
852.093955745842	1360
852.809117674669	1355.40002441406
853.524189988028	1346.80004882813
854.239172693778	1336.59997558594
854.954065799768	1335
855.668869313857	1327.59997558594
856.383583243899	1314.59997558594
857.098207597743	1320.80004882813
857.812742383246	1324.40002441406
858.527187608255	1321
859.241543280628	1340.40002441406
859.955809408218	1337.80004882813
860.669985998868	1352.80004882813
861.384073060437	1352.80004882813
862.098070600772	1362
862.811978627724	1350.40002441406
863.52579714914	1337
864.239526172873	1330.80004882813
864.953165706776	1331.80004882813
865.666715758687	1326.80004882813
866.380176336464	1338
867.093547447951	1328.80004882813
867.806829100996	1341.19995117188
868.520021303444	1339.40002441406
869.233124063149	1342.40002441406
869.94613738795	1328.59997558594
870.659061285693	1333.40002441406
871.37189576423	1328
872.084640831403	1338.19995117188
872.797296495057	1346.59997558594
873.509862763039	1344.19995117188
874.22233964319	1343
874.934727143353	1350
875.647025271374	1352.80004882813
876.359234035097	1348.19995117188
877.071353442361	1357
877.783383501015	1342.59997558594
878.495324218895	1347.40002441406
879.207175603844	1351.80004882813
879.918937663705	1355.40002441406
880.630610406318	1344.80004882813
881.342193839524	1351.80004882813
882.053687971161	1349.59997558594
882.765092809069	1342.19995117188
883.476408361091	1356
884.187634635066	1357.59997558594
884.898771638828	1352
885.609819380221	1351.59997558594
886.320777867076	1347
887.031647107236	1342.80004882813
887.742427108536	1340.40002441406
888.453117878816	1343.19995117188
889.16371942591	1338.19995117188
889.874231757652	1344.80004882813
890.584654881883	1346.59997558594
891.294988806434	1345.40002441406
892.005233539141	1347.40002441406
892.715389087837	1340
893.42545546036	1339
894.135432664543	1338.40002441406
894.845320708216	1343.40002441406
895.555119599216	1350.19995117188
896.264829345375	1345.59997558594
896.974449954526	1343.80004882813
897.683981434496	1359.19995117188
898.393423793125	1368.40002441406
899.102777038235	1351.19995117188
899.812041177664	1346
900.521216219239	1342
901.230302170793	1340.59997558594
901.939299040155	1345
902.64820683515	1346.80004882813
903.357025563612	1348.80004882813
904.065755233368	1347.80004882813
904.774395852247	1336.59997558594
905.482947428076	1359.80004882813
906.191409968682	1347.40002441406
906.899783481897	1325.19995117188
907.608067975538	1339.19995117188
908.316263457443	1335.40002441406
909.02436993543	1340.59997558594
909.732387417327	1344.80004882813
910.440315910959	1335.40002441406
911.148155424154	1338.59997558594
911.855905964731	1325.59997558594
912.563567540521	1337.80004882813
913.271140159339	1329
913.978623829017	1309.80004882813
914.686018557374	1335.40002441406
915.393324352237	1331.80004882813
916.100541221421	1340.80004882813
916.807669172752	1333.80004882813
917.514708214054	1320
918.221658353142	1318.80004882813
918.928519597843	1316.19995117188
919.635291955976	1323
920.341975435358	1338.19995117188
921.048570043813	1325.59997558594
921.75507578916	1339.80004882813
922.461492679212	1338.80004882813
923.167820721795	1339.40002441406
923.874059924726	1342.80004882813
924.58021029582	1346.59997558594
925.286271842893	1353.80004882813
925.992244573769	1352.19995117188
926.698128496262	1354.80004882813
927.403923618184	1340.40002441406
928.109629947355	1343.80004882813
928.815247491593	1331.80004882813
929.520776258708	1338.19995117188
930.226216256519	1326.80004882813
930.931567492841	1331
931.636829975482	1325.40002441406
932.342003712263	1333.40002441406
933.047088710995	1329.80004882813
933.752084979491	1339.59997558594
934.456992525564	1338
935.161811357024	1342.80004882813
935.866541481688	1335.59997558594
936.571182907363	1342.40002441406
937.275735641861	1336.19995117188
937.980199692995	1333.80004882813
938.684575068572	1328.19995117188
939.388861776411	1340.40002441406
940.093059824311	1339.40002441406
940.797169220085	1344.80004882813
941.501189971544	1353.19995117188
942.205122086495	1352.19995117188
942.908965572751	1345.19995117188
943.612720438111	1343.40002441406
944.316386690391	1343.80004882813
945.019964337391	1330.19995117188
945.723453386924	1332.80004882813
946.426853846795	1335.40002441406
947.130165724808	1346
947.83338902877	1339.40002441406
948.536523766488	1335.59997558594
949.239569945764	1335.80004882813
949.942527574402	1324.59997558594
950.64539666021	1328.80004882813
951.348177210993	1326.19995117188
952.050869234548	1321.59997558594
952.753472738683	1310.19995117188
953.455987731199	1311
954.158414219898	1315.80004882813
954.860752212587	1315.40002441406
955.563001717061	1309.80004882813
956.265162741124	1313.80004882813
956.967235292576	1309.59997558594
957.669219379224	1309
958.371115008857	1335.80004882813
959.072922189283	1333.19995117188
959.774640928301	1322.59997558594
960.476271233708	1319.19995117188
961.177813113301	1313.80004882813
961.879266574882	1319.80004882813
962.580631626248	1311.80004882813
963.281908275194	1316.19995117188
963.98309652952	1318.40002441406
964.684196397022	1308.80004882813
965.3852078855	1317.80004882813
966.086131002745	1313.40002441406
966.786965756555	1314.19995117188
967.487712154726	1319.40002441406
968.188370205055	1324.19995117188
968.888939915331	1332.80004882813
969.589421293352	1320.40002441406
970.289814346909	1320.59997558594
970.990119083801	1314
971.690335511819	1304.59997558594
972.39046363875	1312
973.090503472398	1317.40002441406
973.790455020545	1301.80004882813
974.490318290987	1315.19995117188
975.190093291516	1320.40002441406
975.889780029923	1318.80004882813
976.589378513998	1326
977.288888751527	1329.40002441406
977.988310750308	1330.59997558594
978.687644518122	1331.40002441406
979.386890062767	1332.59997558594
980.086047392025	1319.40002441406
980.785116513689	1324.80004882813
981.484097435542	1313.80004882813
982.182990165377	1308.59997558594
982.88179471098	1314
983.580511080137	1292.19995117188
984.279139280632	1296.19995117188
984.977679320253	1294.80004882813
985.67613120679	1297.40002441406
986.374494948027	1303.80004882813
987.072770551745	1312
987.770958025731	1317.80004882813
988.469057377772	1317
989.167068615649	1322.40002441406
989.864991747145	1318.80004882813
990.562826780047	1317.40002441406
991.260573722134	1327
991.958232581195	1330
992.655803365003	1332.40002441406
993.353286081346	1344.59997558594
994.050680738006	1331.59997558594
994.74798734276	1332.59997558594
995.44520590339	1335
996.142336427681	1332
996.839378923407	1330.40002441406
997.536333398348	1322
998.233199860289	1313.40002441406
998.929978317004	1319.40002441406
999.626668776274	1305.59997558594
1000.32327124587	1312.19995117188
1001.01978573359	1313
1001.71621224718	1314.40002441406
1002.41255079445	1323.40002441406
1003.10880138315	1321.40002441406
1003.80496402107	1312.80004882813
1004.50103871599	1313.19995117188
1005.19702547567	1313
1005.8929243079	1317.40002441406
1006.58873522045	1308.40002441406
1007.2844582211	1324
1007.98009331761	1325.59997558594
1008.67564051776	1329.59997558594
1009.37109982933	1332.80004882813
1010.06647126009	1332
1010.7617548178	1321.40002441406
1011.45695051026	1306.59997558594
1012.15205834522	1316
1012.84707833045	1312.40002441406
1013.54201047373	1313.80004882813
1014.23685478284	1310.59997558594
1014.93161126553	1310.80004882813
1015.62627992959	1312.80004882813
1016.32086078277	1316.19995117188
1017.01535383285	1313.19995117188
1017.70975908761	1315
1018.40407655479	1313.19995117188
1019.09830624219	1308.80004882813
1019.79244815755	1319.40002441406
1020.48650230866	1312.80004882813
1021.18046870328	1307
1021.87434734917	1310.59997558594
1022.56813825411	1319.80004882813
1023.26184142584	1335
1023.95545687216	1329.40002441406
1024.64898460082	1313.59997558594
1025.34242461957	1316.59997558594
1026.0357769362	1330
1026.72904155846	1332.80004882813
1027.42221849412	1330.59997558594
1028.11530775094	1326.40002441406
1028.80830933668	1328
1029.50122325911	1333.80004882813
1030.19404952599	1324.40002441406
1030.88678814508	1319.19995117188
1031.57943912414	1315.59997558594
1032.27200247093	1307
1032.96447819323	1299
1033.65686629878	1298.59997558594
1034.34916679534	1311
1035.04137969068	1308.40002441406
1035.73350499256	1308
1036.42554270874	1313.40002441406
1037.11749284697	1321
1037.80935541501	1308.80004882813
1038.50113042062	1321.40002441406
1039.19281787156	1324
1039.88441777559	1320.19995117188
1040.57593014046	1318.59997558594
1041.26735497393	1322.40002441406
1041.95869228376	1310.59997558594
1042.6499420777	1313.40002441406
1043.3411043635	1315.19995117188
1044.03217914893	1312.40002441406
1044.72316644174	1315
1045.41406624968	1316
1046.1048785805	1321.59997558594
1046.79560344197	1316.19995117188
1047.48624084182	1308.19995117188
1048.17679078783	1316.19995117188
1048.86725328774	1312.40002441406
1049.55762834929	1313.19995117188
1050.24791598025	1306
1050.93811618837	1309.80004882813
1051.62822898139	1306.40002441406
1052.31825436707	1306.80004882813
1053.00819235315	1325.19995117188
1053.6980429474	1306
1054.38780615755	1305
1055.07748199136	1302.59997558594
1055.76707045658	1313.59997558594
1056.45657156095	1290.80004882813
1057.14598531222	1296.19995117188
1057.83531171814	1314
1058.52455078646	1309.40002441406
1059.21370252494	1302.59997558594
1059.90276694129	1297.80004882813
1060.5917440433	1315.59997558594
1061.28063383868	1321.40002441406
1061.9694363352	1312.80004882813
1062.65815154059	1327.80004882813
1063.34677946261	1322.40002441406
1064.03532010899	1312.19995117188
1064.72377348748	1325.40002441406
1065.41213960583	1321.59997558594
1066.10041847177	1316.19995117188
1066.78861009306	1306.80004882813
1067.47671447743	1302.40002441406
1068.16473163263	1305
1068.85266156639	1302.40002441406
1069.54050428647	1309.80004882813
1070.2282598006	1301.80004882813
1070.91592811652	1313
1071.60350924198	1300.80004882813
1072.29100318471	1310
1072.97840995245	1308.40002441406
1073.66572955295	1304
1074.35296199394	1311
1075.04010728316	1295.80004882813
1075.72716542836	1299
1076.41413643726	1301.59997558594
1077.10102031761	1296.80004882813
1077.78781707715	1290.40002441406
1078.4745267236	1294
1079.16114926471	1289
1079.84768470822	1282.19995117188
1080.53413306185	1286.40002441406
1081.22049433336	1295.80004882813
1081.90676853046	1293
1082.5929556609	1307.40002441406
1083.27905573241	1305
1083.96506875272	1297
1084.65099472957	1299.40002441406
1085.3368336707	1310.19995117188
1086.02258558383	1303.40002441406
1086.70825047669	1304.80004882813
1087.39382835703	1303.59997558594
1088.07931923257	1302
1088.76472311104	1304.19995117188
1089.45004000018	1294.59997558594
1090.13526990771	1299.80004882813
1090.82041284137	1299.40002441406
1091.50546880889	1288.59997558594
1092.19043781799	1296.80004882813
1092.87531987642	1286.80004882813
1093.56011499188	1282.59997558594
1094.24482317212	1291.19995117188
1094.92944442486	1285.19995117188
1095.61397875783	1285
1096.29842617876	1289.59997558594
1096.98278669537	1295.59997558594
1097.6670603154	1287
1098.35124704656	1293.19995117188
1099.03534689659	1293
1099.71935987322	1298.80004882813
1100.40328598416	1305.80004882813
1101.08712523713	1299
1101.77087763988	1304
1102.45454320012	1307.40002441406
1103.13812192557	1308
1103.82161382396	1309.59997558594
1104.50501890301	1314.19995117188
1105.18833717045	1310.40002441406
1105.87156863399	1318.19995117188
1106.55471330137	1311.19995117188
1107.2377711803	1320.59997558594
1107.9207422785	1312.80004882813
1108.60362660369	1328.59997558594
1109.2864241636	1322.80004882813
1109.96913496594	1323.80004882813
1110.65175901844	1314
1111.33429632882	1305.40002441406
1112.01674690479	1309.40002441406
1112.69911075408	1302.59997558594
1113.38138788439	1301.40002441406
1114.06357830346	1306.19995117188
1114.745682019	1307.40002441406
1115.42769903872	1318.59997558594
1116.10962937035	1315.19995117188
1116.7914730216	1315.59997558594
1117.47323000018	1314.40002441406
1118.15490031382	1313.40002441406
1118.83648397022	1314.40002441406
1119.51798097712	1306.59997558594
1120.1993913422	1312.59997558594
1120.88071507321	1306.19995117188
1121.56195217784	1304.19995117188
1122.24310266381	1293.40002441406
1122.92416653884	1310.40002441406
1123.60514381064	1310.59997558594
1124.28603448692	1310.59997558594
1124.9668385754	1297.19995117188
1125.64755608378	1310.40002441406
1126.32818701978	1308.19995117188
1127.00873139111	1300.80004882813
1127.68918920548	1298.19995117188
1128.3695604706	1301.59997558594
1129.04984519419	1310.40002441406
1129.73004338394	1310
1130.41015504758	1306.19995117188
1131.09018019281	1306
1131.77011882734	1304.40002441406
1132.44997095888	1310.40002441406
1133.12973659514	1301.19995117188
1133.80941574381	1305.19995117188
1134.48900841263	1287.19995117188
1135.16851460927	1283.19995117188
1135.84793434147	1277.80004882813
1136.52726761692	1298.40002441406
1137.20651444333	1288
1137.8856748284	1298.40002441406
1138.56474877984	1296.59997558594
1139.24373630536	1292
1139.92263741265	1297.40002441406
1140.60145210943	1288.19995117188
1141.28018040339	1302.59997558594
1141.95882230225	1293
1142.6373778137	1298
1143.31584694545	1288.40002441406
1143.99422970519	1301.80004882813
1144.67252610064	1308.19995117188
1145.35073613949	1298.40002441406
1146.02885982944	1300
1146.7068971782	1288
1147.38484819347	1300.59997558594
1148.06271288294	1299
1148.74049125432	1297.80004882813
1149.41818331531	1297.80004882813
1150.0957890736	1300.59997558594
1150.77330853689	1282.19995117188
1151.45074171289	1285.80004882813
1152.12808860928	1286.40002441406
1152.80534923378	1293.40002441406
1153.48252359407	1281.40002441406
1154.15961169786	1273.19995117188
1154.83661355283	1273
1155.51352916669	1271
1156.19035854713	1286.19995117188
1156.86710170185	1275.80004882813
1157.54375863855	1281.19995117188
1158.22032936491	1276.59997558594
1158.89681388863	1264.19995117188
1159.57321221741	1272.40002441406
1160.24952435894	1280.40002441406
1160.92575032092	1283.59997558594
1161.60189011103	1292.80004882813
1162.27794373697	1284
1162.95391120644	1296.40002441406
1163.62979252712	1288.40002441406
1164.3055877067	1287
1164.98129675288	1291.80004882813
1165.65691967336	1285.19995117188
1166.33245647581	1290.19995117188
1167.00790716792	1278.80004882813
1167.6832717574	1278.19995117188
1168.35855025193	1267.40002441406
1169.0337426592	1275.80004882813
1169.70884898689	1279.59997558594
1170.3838692427	1268.19995117188
1171.05880343431	1276
1171.73365156941	1279
1172.40841365569	1291.19995117188
1173.08308970083	1285.59997558594
1173.75767971253	1272.80004882813
1174.43218369847	1288.19995117188
1175.10660166633	1288.59997558594
1175.7809336238	1270
1176.45517957857	1285.59997558594
1177.12933953832	1280
1177.80341351073	1279.19995117188
1178.47740150349	1287.80004882813
1179.15130352429	1296.59997558594
1179.8251195808	1295.40002441406
1180.49884968071	1295
1181.1724938317	1290.40002441406
1181.84605204145	1291.80004882813
1182.51952431766	1313.80004882813
1183.19291066799	1304.59997558594
1183.86621110013	1299.19995117188
1184.53942562176	1301
1185.21255424057	1300.19995117188
1185.88559696422	1303.59997558594
1186.55855380041	1296.19995117188
1187.2314247568	1283.40002441406
1187.90420984109	1293.59997558594
1188.57690906095	1304.59997558594
1189.24952242405	1303.40002441406
1189.92204993808	1312.59997558594
1190.59449161071	1314.19995117188
1191.26684744962	1317.19995117188
1191.93911746249	1309.80004882813
1192.61130165699	1296
1193.28340004081	1302.19995117188
1193.95541262161	1301
1194.62733940707	1306.40002441406
1195.29918040487	1305.19995117188
1195.97093562269	1301.80004882813
1196.64260506819	1299.59997558594
1197.31418874905	1306.80004882813
1197.98568667295	1298.80004882813
1198.65709884755	1304
1199.32842528053	1311.19995117188
1199.99966597957	1297
1200.67082095234	1314.40002441406
1201.3418902065	1315.19995117188
1202.01287374974	1311.40002441406
1202.68377158971	1304.19995117188
1203.3545837341	1293
1204.02531019057	1284.80004882813
1204.6959509668	1286.40002441406
1205.36650607045	1280.80004882813
1206.03697550919	1290.80004882813
1206.70735929069	1289.19995117188
1207.37765742263	1289.80004882813
1208.04786991266	1292.40002441406
1208.71799676846	1287.80004882813
1209.38803799769	1280.59997558594
1210.05799360803	1282.19995117188
1210.72786360714	1278.80004882813
1211.39764800268	1279
1212.06734680233	1279.40002441406
1212.73696001375	1280.59997558594
1213.4064876446	1276
1214.07592970255	1274
1214.74528619526	1271.19995117188
1215.4145571304	1270.80004882813
1216.08374251564	1275.40002441406
1216.75284235863	1288.19995117188
1217.42185666704	1284.19995117188
1218.09078544854	1292.40002441406
1218.75962871078	1291.40002441406
1219.42838646143	1282.59997558594
1220.09705870816	1270
1220.76564545861	1276
1221.43414672046	1279.80004882813
1222.10256250136	1271.19995117188
1222.77089280898	1283.80004882813
1223.43913765098	1275.40002441406
1224.107297035	1267
1224.77537096873	1270
1225.44335945981	1271.19995117188
1226.1112625159	1273.80004882813
1226.77908014467	1269.59997558594
1227.44681235376	1273.19995117188
1228.11445915085	1273
1228.78202054357	1276.80004882813
1229.44949653961	1264.80004882813
1230.11688714659	1270.19995117188
1230.7841923722	1274.59997558594
1231.45141222407	1285.40002441406
1232.11854670988	1280.19995117188
1232.78559583726	1285
1233.45255961388	1280.80004882813
1234.1194380474	1287.59997558594
1234.78623114546	1287.59997558594
1235.45293891572	1290.40002441406
1236.11956136583	1294.59997558594
1236.78609850345	1292
1237.45255033623	1288.40002441406
1238.11891687182	1297.80004882813
1238.78519811788	1292.40002441406
1239.45139408205	1299.80004882813
1240.11750477198	1292.59997558594
1240.78353019534	1287.40002441406
1241.44947035976	1279.80004882813
1242.11532527291	1281.80004882813
1242.78109494242	1278.40002441406
1243.44677937595	1280.59997558594
1244.11237858115	1271.19995117188
1244.77789256567	1277.40002441406
1245.44332133715	1288.59997558594
1246.10866490325	1286.59997558594
1246.7739232716	1292
1247.43909644987	1285.40002441406
1248.10418444569	1283.59997558594
1248.76918726671	1280
1249.43410492059	1274.19995117188
1250.09893741496	1278.40002441406
1250.76368475747	1280.19995117188
1251.42834695576	1271.59997558594
1252.09292401749	1281.40002441406
1252.75741595029	1284.40002441406
1253.42182276182	1284.59997558594
1254.08614445971	1274.59997558594
1254.75038105161	1286.80004882813
1255.41453254515	1292
1256.07859894799	1279
1256.74258026777	1274
1257.40647651213	1261.19995117188
1258.0702876887	1265.80004882813
1258.73401380514	1265.40002441406
1259.39765486908	1272
1260.06121088817	1273.80004882813
1260.72468187004	1284.59997558594
1261.38806782233	1291.19995117188
1262.05136875269	1283.19995117188
1262.71458466875	1293.59997558594
1263.37771557815	1289.80004882813
1264.04076148854	1287.80004882813
1264.70372240753	1268.40002441406
1265.3665983428	1262
1266.02938930195	1273.59997558594
1266.69209529263	1270.80004882813
1267.35471632249	1277
1268.01725239914	1268.59997558594
1268.67970353024	1257.80004882813
1269.34206972342	1264.40002441406
1270.00435098631	1281
1270.66654732655	1265
1271.32865875177	1266.19995117188
1271.9906852696	1272.40002441406
1272.65262688768	1281.80004882813
1273.31448361365	1276.40002441406
1273.97625545514	1266.40002441406
1274.63794241978	1267.59997558594
1275.2995445152	1269.40002441406
1275.96106174903	1268
1276.62249412892	1266.59997558594
1277.28384166248	1268.40002441406
1277.94510435735	1262.59997558594
1278.60628222116	1273.40002441406
1279.26737526155	1267
1279.92838348613	1269
1280.58930690255	1260.80004882813
1281.25014551842	1274.19995117188
1281.91089934139	1277.80004882813
1282.57156837907	1274.40002441406
1283.2321526391	1276.80004882813
1283.89265212911	1270.40002441406
1284.55306685671	1268.40002441406
1285.21339682955	1264.59997558594
1285.87364205525	1250
1286.53380254142	1257.80004882813
1287.19387829571	1259.59997558594
1287.85386932573	1264
1288.51377563911	1265.80004882813
1289.17359724348	1269
1289.83333414646	1265.40002441406
1290.49298635567	1261.80004882813
1291.15255387874	1265.19995117188
1291.8120367233	1268.40002441406
1292.47143489696	1261.19995117188
1293.13074840736	1264
1293.7899772621	1272.80004882813
1294.44912146882	1278.40002441406
1295.10818103513	1265.59997558594
1295.76715596866	1281.40002441406
1296.42604627704	1265.40002441406
1297.08485196787	1263.40002441406
1297.74357304878	1264.80004882813
1298.4022095274	1264
1299.06076141134	1272.59997558594
1299.71922870821	1264.40002441406
1300.37761142565	1265.80004882813
1301.03590957126	1261.80004882813
1301.69412315268	1263.59997558594
1302.3522521775	1267.59997558594
1303.01029665336	1263.19995117188
1303.66825658787	1263.59997558594
1304.32613198865	1266.59997558594
1304.98392286332	1264.19995117188
1305.64162921948	1269.19995117188
1306.29925106476	1265
1306.95678840677	1256.40002441406
1307.61424125312	1263.40002441406
1308.27160961145	1275.80004882813
1308.92889348934	1268.59997558594
1309.58609289443	1272.80004882813
1310.24320783432	1263.59997558594
1310.90023831664	1260.19995117188
1311.55718434898	1258.80004882813
1312.21404593897	1259.40002441406
1312.87082309421	1256.19995117188
1313.52751582233	1263.40002441406
1314.18412413092	1260.40002441406
1314.84064802761	1269
1315.49708752	1259.19995117188
1316.1534426157	1267.19995117188
1316.80971332233	1268.80004882813
1317.46589964749	1278.40002441406
1318.1220015988	1263.59997558594
1318.77801918386	1264.40002441406
1319.43395241028	1267.19995117188
1320.08980128567	1265.59997558594
1320.74556581764	1260.40002441406
1321.4012460138	1266
1322.05684188176	1264.59997558594
1322.71235342911	1271.59997558594
1323.36778066347	1272.59997558594
1324.02312359245	1280.40002441406
1324.67838222365	1278.40002441406
1325.33355656468	1281.59997558594
1325.98864662314	1280.19995117188
1326.64365240663	1279.59997558594
1327.29857392277	1261.59997558594
1327.95341117915	1261
1328.60816418339	1265.59997558594
1329.26283294308	1253.40002441406
1329.91741746582	1258.80004882813
1330.57191775923	1260.59997558594
1331.2263338309	1261.59997558594
1331.88066568843	1266
1332.53491333943	1277.40002441406
1333.1890767915	1285.40002441406
1333.84315605224	1283.59997558594
1334.49715112925	1284
1335.15106203013	1274.19995117188
1335.80488876249	1262
1336.45863133391	1264.59997558594
1337.112289752	1270.40002441406
1337.76586402437	1282.80004882813
1338.4193541586	1285
1339.0727601623	1286
1339.72608204306	1290.40002441406
1340.37931980849	1292.80004882813
1341.03247346617	1293.19995117188
1341.68554302372	1295.19995117188
1342.33852848871	1290
1342.99142986876	1286.19995117188
1343.64424717145	1283.40002441406
1344.29698040438	1285.19995117188
1344.94962957515	1290
1345.60219469135	1294.19995117188
1346.25467576058	1287.59997558594
1346.90707279042	1294
1347.55938578848	1294
1348.21161476235	1280.40002441406
1348.86375971962	1279.80004882813
1349.51582066787	1273
1350.16779761472	1260
1350.81969056774	1276.40002441406
1351.47149953453	1274.19995117188
1352.12322452269	1278.19995117188
1352.77486553979	1276.40002441406
1353.42642259344	1277.80004882813
1354.07789569122	1272.40002441406
1354.72928484072	1298.40002441406
1355.38059004953	1290.19995117188
1356.03181132525	1301
1356.68294867545	1286
1357.33400210773	1302.19995117188
1357.98497162968	1305.19995117188
1358.63585724889	1297.19995117188
1359.28665897294	1314.40002441406
1359.93737680942	1302.80004882813
1360.58801076591	1312.80004882813
1361.23856085001	1312
1361.88902706929	1310
1362.53940943135	1315.19995117188
1363.18970794377	1306.59997558594
1363.83992261413	1309.59997558594
1364.49005345003	1308.80004882813
1365.14010045904	1310
1365.79006364874	1310
1366.43994302673	1305.40002441406
1367.08973860058	1311.19995117188
1367.73945037788	1303.40002441406
1368.38907836621	1303.40002441406
1369.03862257315	1299.40002441406
1369.68808300629	1284.19995117188
1370.3374596732	1290.80004882813
1370.98675258148	1286.59997558594
1371.63596173868	1295.19995117188
1372.28508715241	1297
1372.93412883024	1291.40002441406
1373.58308677974	1297.80004882813
1374.2319610085	1282.59997558594
1374.8807515241	1277.40002441406
1375.52945833412	1267.80004882813
1376.17808144612	1259.80004882813
1376.82662086771	1259.80004882813
1377.47507660644	1250.59997558594
1378.12344866989	1264.19995117188
1378.77173706565	1256.40002441406
1379.41994180129	1268.59997558594
1380.06806288439	1262.59997558594
1380.71610032252	1272
1381.36405412326	1271.80004882813
1382.01192429419	1266.19995117188
1382.65971084287	1263.19995117188
1383.30741377688	1268
1383.95503310381	1242.80004882813
1384.60256883121	1255
1385.25002096667	1254
1385.89738951775	1243.59997558594
1386.54467449204	1255.59997558594
1387.19187589709	1246.40002441406
1387.8389937405	1254
1388.48602802982	1260.40002441406
1389.13297877262	1258.40002441406
1389.77984597649	1249.40002441406
1390.42662964899	1254.59997558594
1391.07332979768	1254.80004882813
1391.71994643015	1254.80004882813
1392.36647955395	1239.40002441406
1393.01292917667	1249.40002441406
1393.65929530586	1245.40002441406
1394.3055779491	1240
1394.95177711395	1242
1395.59789280799	1240
1396.24392503877	1251.80004882813
1396.88987381387	1247.19995117188
1397.53573914086	1257.19995117188
1398.1815210273	1269.40002441406
1398.82721948075	1259.19995117188
1399.47283450878	1256
1400.11836611897	1265.40002441406
1400.76381431886	1253.80004882813
1401.40917911603	1242.19995117188
1402.05446051805	1230.40002441406
1402.69965853247	1239.80004882813
1403.34477316686	1233.80004882813
1403.98980442878	1238.19995117188
1404.6347523258	1234
1405.27961686548	1241.59997558594
1405.92439805538	1241.59997558594
1406.56909590306	1237.19995117188
1407.21371041608	1234.80004882813
1407.85824160202	1234.40002441406
1408.50268946841	1237.80004882813
1409.14705402284	1240.40002441406
1409.79133527285	1248
1410.43553322601	1244.40002441406
1411.07964788987	1244.59997558594
1411.723679272	1243.80004882813
1412.36762737996	1240.40002441406
1413.01149222129	1229
1413.65527380357	1234.59997558594
1414.29897213435	1230.80004882813
1414.94258722118	1237.59997558594
1415.58611907163	1229.80004882813
1416.22956769325	1225.59997558594
1416.87293309359	1222
1417.51621528021	1230
1418.15941426067	1237.59997558594
1418.80253004253	1240.80004882813
1419.44556263333	1244.40002441406
1420.08851204063	1248.40002441406
1420.731378272	1242.59997558594
1421.37416133497	1242
1422.0168612371	1251.59997558594
1422.65947798596	1252.59997558594
1423.30201158908	1257.80004882813
1423.94446205403	1249
1424.58682938835	1250
1425.2291135996	1252.40002441406
1425.87131469532	1254.40002441406
1426.51343268308	1251.40002441406
1427.15546757042	1249.40002441406
1427.79741936488	1246.19995117188
1428.43928807403	1242.19995117188
1429.0810737054	1239
1429.72277626656	1240
1430.36439576504	1238
1431.00593220841	1235.59997558594
1431.64738560419	1241.40002441406
1432.28875595995	1236.40002441406
1432.93004328324	1244.40002441406
1433.57124758159	1245
1434.21236886255	1242.80004882813
1434.85340713368	1242
1435.49436240252	1242
1436.13523467661	1240.40002441406
1436.77602396349	1242.19995117188
1437.41673027073	1247.40002441406
1438.05735360585	1233.40002441406
1438.69789397641	1235.80004882813
1439.33835138994	1239.59997558594
1439.978725854	1224.40002441406
1440.61901737612	1236.40002441406
1441.25922596385	1237.40002441406
1441.89935162473	1228.59997558594
1442.53939436631	1230
1443.17935419612	1221.40002441406
1443.81923112171	1221.59997558594
1444.45902515061	1224.59997558594
1445.09873629038	1240.40002441406
1445.73836454854	1248.80004882813
1446.37790993265	1248.40002441406
1447.01737245024	1238
1447.65675210885	1248.40002441406
1448.29604891602	1239.80004882813
1448.93526287928	1239.19995117188
1449.57439400618	1234.59997558594
1450.21344230426	1228.59997558594
1450.85240778105	1229.19995117188
1451.49129044409	1217.80004882813
1452.13009030092	1217.80004882813
1452.76880735907	1231.19995117188
1453.40744162608	1230.40002441406
1454.04599310949	1225.40002441406
1454.68446181683	1223.59997558594
1455.32284775564	1237
1455.96115093345	1219.40002441406
1456.5993713578	1228.59997558594
1457.23750903623	1225
1457.87556397626	1226.19995117188
1458.51353618543	1225.40002441406
1459.15142567127	1228
1459.78923244132	1226.40002441406
1460.42695650311	1220
1461.06459786417	1218.19995117188
1461.70215653203	1235.80004882813
1462.33963251423	1227
1462.97702581829	1227.80004882813
1463.61433645175	1241.40002441406
1464.25156442214	1228.80004882813
1464.88870973699	1232
1465.52577240382	1232.40002441406
1466.16275243017	1220.80004882813
1466.79964982356	1223.80004882813
1467.43646459154	1230
1468.07319674161	1230.80004882813
1468.70984628132	1224
1469.34641321818	1223.59997558594
1469.98289755974	1230.80004882813
1470.6192993135	1232.80004882813
1471.25561848701	1244
1471.89185508779	1249.80004882813
1472.52800912336	1242.80004882813
1473.16408060124	1235.19995117188
1473.80006952897	1234.59997558594
1474.43597591407	1227.40002441406
1475.07179976406	1223
1475.70754108647	1223.40002441406
1476.34319988883	1225
1476.97877617865	1225.59997558594
1477.61426996345	1234.40002441406
1478.24968125077	1234.40002441406
1478.88501004812	1238.19995117188
1479.52025636303	1238.40002441406
1480.15542020302	1224.40002441406
1480.79050157561	1236
1481.42550048832	1237.59997558594
1482.06041694867	1227.19995117188
1482.69525096418	1230.59997558594
1483.33000254237	1220
1483.96467169077	1223.19995117188
1484.59925841689	1225.40002441406
1485.23376272825	1222
1485.86818463237	1218
1486.50252413677	1224.40002441406
1487.13678124896	1220.80004882813
1487.77095597646	1222.19995117188
1488.4050483268	1227
1489.03905830749	1215.59997558594
1489.67298592604	1215.59997558594
1490.30683118996	1230.80004882813
1490.9405941068	1236
1491.57427468403	1241.80004882813
1492.2078729292	1242.59997558594
1492.84138884981	1242.59997558594
1493.47482245338	1238.19995117188
1494.10817374742	1237.19995117188
1494.74144273944	1244.40002441406
1495.37462943696	1238
1496.0077338475	1237.40002441406
1496.64075597856	1236.19995117188
1497.27369583765	1223.19995117188
1497.9065534323	1217
1498.53932877001	1208.19995117188
1499.17202185829	1200.80004882813
1499.80463270465	1215.80004882813
1500.43716131661	1218.59997558594
1501.06960770167	1221.59997558594
1501.70197186735	1214.59997558594
1502.33425382116	1228.59997558594
1502.96645357059	1225.59997558594
1503.59857112317	1230.19995117188
1504.23060648641	1235.80004882813
1504.8625596678	1230
1505.49443067486	1228.19995117188
1506.1262195151	1235.80004882813
1506.75792619602	1234.59997558594
1507.38955072513	1228.80004882813
1508.02109310993	1232.40002441406
1508.65255335794	1230.59997558594
1509.28393147666	1232.19995117188
1509.91522747359	1226.80004882813
1510.54644135624	1222.19995117188
1511.17757313212	1233
1511.80862280872	1232
1512.43959039356	1235.80004882813
1513.07047589413	1237
1513.70127931795	1224.40002441406
1514.33200067251	1225
1514.96263996531	1212.80004882813
1515.59319720386	1224.40002441406
1516.22367239567	1222.40002441406
1516.85406554822	1222.19995117188
1517.48437666903	1219.40002441406
1518.1146057656	1209.40002441406
1518.74475284542	1217.59997558594
1519.374817916	1204.80004882813
1520.00480098483	1210.19995117188
1520.63470205942	1204
1521.26452114726	1204.59997558594
1521.89425825586	1216.80004882813
1522.52391339271	1208
1523.15348656531	1214
1523.78297778116	1219.59997558594
1524.41238704775	1218.59997558594
1525.04171437259	1218.40002441406
1525.67095976317	1224
1526.30012322699	1215.19995117188
1526.92920477154	1214.59997558594
1527.55820440432	1210
1528.18712213283	1213.19995117188
1528.81595796455	1212.19995117188
1529.44471190699	1209.59997558594
1530.07338396764	1204.19995117188
1530.70197415399	1208.59997558594
1531.33048247353	1209.59997558594
1531.95890893377	1208.80004882813
1532.58725354219	1216.80004882813
1533.21551630629	1235.19995117188
1533.84369723356	1232.19995117188
1534.47179633148	1230.59997558594
1535.09981360757	1227
1535.72774906929	1227
1536.35560272415	1228.59997558594
1536.98337457963	1216.40002441406
1537.61106464323	1224.59997558594
1538.23867292243	1223.59997558594
1538.86619942473	1236.80004882813
1539.49364415762	1221.80004882813
1540.12100712857	1230.40002441406
1540.74828834509	1223.80004882813
1541.37548781466	1220.40002441406
1542.00260554478	1223.19995117188
1542.62964154291	1229.19995117188
1543.25659581655	1229
1543.8834683732	1223
1544.51025922034	1230
1545.13696836544	1226.40002441406
1545.76359581601	1214
1546.39014157952	1207.19995117188
1547.01660566345	1201.80004882813
1547.64298807531	1209
1548.26928882255	1203
1548.89550791269	1198.19995117188
1549.52164535318	1207.19995117188
1550.14770115153	1210
1550.77367531521	1207.59997558594
1551.39956785171	1215.40002441406
1552.0253787685	1213.19995117188
1552.65110807307	1215.80004882813
1553.2767557729	1200.40002441406
1553.90232187548	1198.59997558594
1554.52780638828	1200.80004882813
1555.15320931879	1202.40002441406
1555.77853067447	1204.19995117188
1556.40377046282	1203.19995117188
1557.02892869132	1202.80004882813
1557.65400536744	1199
1558.27900049866	1200.40002441406
1558.90391409247	1199.80004882813
1559.52874615633	1204
1560.15349669773	1213.40002441406
1560.77816572414	1206.19995117188
1561.40275324305	1208.80004882813
1562.02725926192	1208.19995117188
1562.65168378824	1206.59997558594
1563.27602682948	1204.59997558594
1563.90028839311	1211.40002441406
1564.52446848662	1220.59997558594
1565.14856711748	1215.80004882813
1565.77258429316	1209.40002441406
1566.39652002113	1213.80004882813
1567.02037430887	1212.80004882813
1567.64414716387	1208.80004882813
1568.26783859357	1213.19995117188
1568.89144860547	1216.19995117188
1569.51497720703	1212.19995117188
1570.13842440573	1209.80004882813
1570.76179020904	1217.59997558594
1571.38507462442	1211.19995117188
1572.00827765936	1214.80004882813
1572.63139932132	1218
1573.25443961777	1218.40002441406
1573.87739855618	1213.40002441406
1574.50027614402	1214.59997558594
1575.12307238877	1220.80004882813
1575.74578729789	1211.80004882813
1576.36842087885	1217.40002441406
1576.99097313912	1209.59997558594
1577.61344408616	1204.19995117188
1578.23583372745	1196.59997558594
1578.85814207046	1198.59997558594
1579.48036912264	1198
1580.10251489147	1207.80004882813
1580.72457938441	1208.19995117188
1581.34656260893	1205.19995117188
1581.9684645725	1203.59997558594
1582.59028528258	1199.59997558594
1583.21202474663	1198.59997558594
1583.83368297212	1196.59997558594
1584.45525996652	1196
1585.07675573728	1188.59997558594
1585.69817029188	1186.40002441406
1586.31950363778	1192
1586.94075578243	1182.19995117188
1587.5619267333	1197.80004882813
1588.18301649786	1190.40002441406
1588.80402508357	1182.19995117188
1589.42495249788	1181
1590.04579874826	1179.80004882813
1590.66656384217	1176.80004882813
1591.28724778707	1177.19995117188
1591.90785059042	1175.59997558594
1592.52837225968	1179
1593.14881280232	1181.59997558594
1593.76917222578	1168.80004882813
1594.38945053753	1185.80004882813
1595.00964774502	1178.80004882813
1595.62976385573	1173.59997558594
1596.24979887709	1170.80004882813
1596.86975281657	1178.59997558594
1597.48962568164	1183.80004882813
1598.10941747974	1182
1598.72912821832	1184.59997558594
1599.34875790486	1194.59997558594
1599.9683065468	1179.19995117188
1600.58777415159	1178.40002441406
1601.2071607267	1169.40002441406
1601.82646627958	1173
1602.44569081769	1169.19995117188
1603.06483434846	1165.59997558594
1603.68389687937	1170.80004882813
1604.30287841786	1158.40002441406
1604.92177897139	1156.40002441406
1605.54059854741	1158.80004882813
1606.15933715337	1164.80004882813
1606.77799479672	1163.19995117188
1607.39657148492	1168.80004882813
1608.01506722542	1166
1608.63348202566	1157.19995117188
1609.2518158931	1165
1609.87006883519	1163.59997558594
1610.48824085939	1162.40002441406
1611.10633197312	1161
1611.72434218386	1168
1612.34227149904	1171.80004882813
1612.96011992612	1164
1613.57788747254	1177.40002441406
1614.19557414575	1172.80004882813
1614.8131799532	1162.80004882813
1615.43070490234	1164
1616.04814900061	1161.59997558594
1616.66551225545	1159.40002441406
1617.28279467433	1158.40002441406
1617.89999626467	1156.80004882813
1618.51711703393	1155.59997558594
1619.13415698955	1153.80004882813
1619.75111613898	1147.59997558594
1620.36799448966	1156.19995117188
1620.98479204903	1153.40002441406
1621.60150882455	1158
1622.21814482364	1147.19995117188
1622.83470005376	1159.19995117188
1623.45117452235	1168.40002441406
1624.06756823685	1164.40002441406
1624.6838812047	1175.80004882813
1625.30011343335	1175.40002441406
1625.91626493022	1178.19995117188
1626.53233570278	1173.80004882813
1627.14832575845	1171.59997558594
1627.76423510468	1162.19995117188
1628.38006374891	1177.40002441406
1628.99581169857	1181.80004882813
1629.61147896111	1167.40002441406
1630.22706554397	1169.59997558594
1630.84257145457	1169.59997558594
1631.45799670038	1166.59997558594
1632.07334128881	1175
1632.6886052273	1161.80004882813
1633.3037885233	1160.19995117188
1633.91889118425	1162
1634.53391321757	1157.19995117188
1635.1488546307	1154.80004882813
1635.76371543108	1143.59997558594
1636.37849562616	1136.59997558594
1636.99319522335	1143.59997558594
1637.60781423009	1142.40002441406
1638.22235265383	1150.40002441406
1638.83681050198	1148.19995117188
1639.451187782	1151.80004882813
1640.0654845013	1150.40002441406
1640.67970066734	1132.40002441406
1641.29383628752	1144.19995117188
1641.9078913693	1145.19995117188
1642.5218659201	1150.59997558594
1643.13575994735	1152.19995117188
1643.74957345849	1153.40002441406
1644.36330646094	1154.19995117188
1644.97695896213	1145.59997558594
1645.59053096951	1160.80004882813
1646.20402249049	1165.40002441406
1646.8174335325	1173.40002441406
1647.43076410298	1175.40002441406
1648.04401420935	1183.59997558594
1648.65718385905	1180.19995117188
1649.2702730595	1186.59997558594
1649.88328181812	1177.40002441406
1650.49621014236	1169
1651.10905803963	1175.59997558594
1651.72182551735	1163
1652.33451258297	1153.19995117188
1652.9471192439	1153.59997558594
1653.55964550757	1165.19995117188
1654.1720913814	1162
1654.78445687283	1170.80004882813
1655.39674198926	1161
1656.00894673814	1148.59997558594
1656.62107112688	1143.40002441406
1657.23311516291	1143
1657.84507885365	1136
1658.45696220652	1143
1659.06876522895	1132.40002441406
1659.68048792835	1136.80004882813
1660.29213031217	1124.59997558594
1660.90369238779	1137
1661.51517416267	1135.59997558594
1662.12657564421	1129.19995117188
1662.73789683984	1133.80004882813
1663.34913775697	1137.59997558594
1663.96029840303	1125.59997558594
1664.57137878544	1119.59997558594
1665.18237891161	1122.80004882813
1665.79329878897	1115.19995117188
1666.40413842493	1118.19995117188
1667.01489782691	1112.19995117188
1667.62557700233	1114.59997558594
1668.2361759586	1114.19995117188
1668.84669470315	1114.19995117188
1669.4571332434	1106
1670.06749158675	1118.19995117188
1670.67776974062	1109.80004882813
1671.28796771243	1115
1671.8980855096	1109.19995117188
1672.50812313954	1117.19995117188
1673.11808060967	1118.40002441406
1673.72795792739	1121.40002441406
1674.33775510013	1114.40002441406
1674.9474721353	1122.19995117188
1675.55710904031	1120
1676.16666582257	1114.19995117188
1676.7761424895	1116.40002441406
1677.38553904851	1114.19995117188
1677.99485550702	1105.80004882813
1678.60409187243	1103.80004882813
1679.21324815215	1104.59997558594
1679.8223243536	1097.59997558594
1680.43132048419	1098.40002441406
1681.04023655132	1097.40002441406
1681.64907256241	1098.40002441406
1682.25782852487	1095.40002441406
1682.86650444611	1090.59997558594
1683.47510033353	1093.19995117188
1684.08361619455	1091.80004882813
1684.69205203657	1093.80004882813
1685.300407867	1096.59997558594
1685.90868369325	1099
1686.51687952272	1095
1687.12499536283	1088.19995117188
1687.73303122098	1091.80004882813
1688.34098710457	1092.40002441406
1688.94886302101	1088.19995117188
1689.55665897772	1091
1690.16437498208	1082.19995117188
1690.77201104152	1091
1691.37956716342	1093.40002441406
1691.9870433552	1094
1692.59443962426	1097
1693.20175597801	1102.40002441406
1693.80899242384	1097.19995117188
1694.41614896916	1104
1695.02322562138	1099.59997558594
1695.63022238789	1097.80004882813
1696.23713927609	1100.80004882813
1696.8439762934	1102
1697.4507334472	1104.19995117188
1698.05741074491	1102.80004882813
1698.66400819391	1101.59997558594
1699.27052580161	1094.59997558594
1699.87696357542	1091.80004882813
1700.48332152272	1098.40002441406
1701.08959965092	1089.59997558594
1701.69579796742	1093
1702.30191647962	1076.19995117188
1702.90795519491	1081.59997558594
1703.51391412069	1075.40002441406
1704.11979326437	1076.80004882813
1704.72559263332	1081.59997558594
1705.33131223496	1075.59997558594
1705.93695207668	1077
1706.54251216588	1075
1707.14799250994	1085.19995117188
1707.75339311628	1076
1708.35871399227	1084.59997558594
1708.96395514532	1075
1709.56911658282	1082.19995117188
