634.948122577771	1154.59997558594
635.690341530823	1161.59997558594
636.43246851086	1159.59997558594
637.174503525845	1169.59997558594
637.916446583745	1162
638.658297692538	1156.40002441406
639.400056860179	1153.59997558594
640.141724094637	1153.80004882813
640.883299403885	1151.40002441406
641.62478279588	1152
642.366174278594	1157.19995117188
643.107473859989	1162.59997558594
643.848681548029	1162.59997558594
644.589797350679	1172.40002441406
645.330821275901	1155.19995117188
646.071753331665	1159.80004882813
646.812593525922	1159.80004882813
647.553341866646	1156.19995117188
648.293998361798	1158
649.03456301933	1154.19995117188
649.775035847216	1156.59997558594
650.515416853409	1160
651.255706045874	1160.40002441406
651.995903432568	1158
652.736009021453	1160.19995117188
653.476022820486	1164.59997558594
654.215944837629	1162.80004882813
654.955775080842	1168.40002441406
655.695513558081	1175
656.435160277301	1162
657.174715246465	1168.19995117188
657.914178473527	1176
658.653549966449	1160.80004882813
659.392829733176	1163.59997558594
660.132017781678	1154
660.871114119901	1159.19995117188
661.610118755803	1158
662.349031697343	1163.80004882813
663.087852952468	1166.19995117188
663.826582529139	1161.80004882813
664.565220435305	1166.59997558594
665.30376667892	1168
666.04222126794	1169.80004882813
666.780584210316	1159.40002441406
667.518855514	1164.80004882813
668.25703518694	1171
668.995123237096	1169.40002441406
669.733119672413	1168
670.471024500842	1160.80004882813
671.208837730333	1168.59997558594
671.946559368839	1174.59997558594
672.684189424308	1167
673.421727904689	1169
674.159174817929	1167.80004882813
674.896530171977	1168
675.633793974786	1176.80004882813
676.370966234295	1160.59997558594
677.108046958461	1168.80004882813
677.845036155219	1173.40002441406
678.581933832528	1164.59997558594
679.318739998323	1172
680.055454660558	1171.59997558594
680.792077827172	1176.80004882813
681.528609506116	1170
682.265049705331	1173
683.001398432759	1178.40002441406
683.737655696349	1174.59997558594
684.47382150404	1165
685.20989586378	1171.19995117188
685.945878783503	1172.80004882813
686.68177027116	1174.80004882813
687.417570334688	1170
688.153278982032	1169.40002441406
688.888896221129	1166.80004882813
689.624422059921	1172.59997558594
690.359856506349	1171
691.095199568354	1178.40002441406
691.830451253874	1175
692.565611570844	1176
693.300680527212	1183.40002441406
694.03565813091	1185.80004882813
694.770544389877	1170
695.505339312053	1172.59997558594
696.240042905372	1167.80004882813
696.974655177772	1191
697.70917613719	1177
698.443605791561	1188.40002441406
699.177944148826	1185.19995117188
699.912191216909	1184.59997558594
700.646347003755	1188
701.380411517295	1194.40002441406
702.114384765465	1192.19995117188
702.848266756195	1199
703.582057497421	1187.59997558594
704.315756997074	1176
705.049365263089	1178.59997558594
705.782882303399	1181.19995117188
706.516308125936	1180.40002441406
707.249642738626	1179.59997558594
707.982886149403	1180.19995117188
708.716038366204	1185
709.449099396949	1179
710.182069249577	1169.80004882813
710.914947932009	1161.59997558594
711.647735452181	1163.59997558594
712.380431818022	1162.59997558594
713.113037037454	1163.40002441406
713.845551118411	1176.59997558594
714.577974068818	1162.40002441406
715.310305896604	1176.80004882813
716.042546609694	1176.80004882813
716.774696216013	1180.19995117188
717.506754723493	1175.59997558594
718.238722140053	1182
718.970598473624	1172.59997558594
719.702383732127	1162.19995117188
720.43407792349	1175.80004882813
721.165681055634	1171.59997558594
721.897193136486	1178.40002441406
722.628614173966	1184
723.359944175997	1177.59997558594
724.091183150505	1181.19995117188
724.822331105412	1189.40002441406
725.553388048638	1188.19995117188
726.284353988106	1182
727.015228931734	1173.19995117188
727.746012887449	1175.80004882813
728.476705863162	1183
729.207307866803	1186.80004882813
729.937818906289	1183.80004882813
730.668238989535	1181.19995117188
731.398568124459	1168.40002441406
732.128806318986	1171.80004882813
732.858953581034	1164
733.589009918514	1165.80004882813
734.318975339348	1195.19995117188
735.048849851452	1183
735.778633462744	1170.59997558594
736.508326181137	1180.40002441406
737.237928014549	1184
737.967438970897	1179.80004882813
738.696859058095	1173.40002441406
739.426188284054	1183.80004882813
740.155426656692	1171.40002441406
740.884574183922	1182.19995117188
741.613630873659	1173.40002441406
742.342596733815	1170.59997558594
743.071471772302	1175.80004882813
743.800255997034	1182.40002441406
744.528949415921	1186.19995117188
745.257552036877	1176.40002441406
745.986063867811	1182.40002441406
746.714484916638	1188.40002441406
747.442815191261	1179.59997558594
748.171054699597	1179.80004882813
748.899203449554	1177.80004882813
749.627261449039	1178.40002441406
750.355228705966	1176
751.083105228239	1179.59997558594
751.810891023765	1181.19995117188
752.538586100459	1185.19995117188
753.266190466218	1182.80004882813
753.99370412896	1186.40002441406
754.721127096582	1189
755.448459377	1191.80004882813
756.175700978114	1189.40002441406
756.902851907828	1181.40002441406
757.629912174055	1179.40002441406
758.356881784688	1173.19995117188
759.083760747639	1169.59997558594
759.810549070817	1177.80004882813
760.537246762113	1174.80004882813
761.263853829442	1173.80004882813
761.990370280698	1173.80004882813
762.716796123791	1167.19995117188
763.443131366618	1175.59997558594
764.169376017082	1176.59997558594
764.895530083085	1183.59997558594
765.621593572527	1189.59997558594
766.347566493312	1199.40002441406
767.073448853336	1200
767.799240660502	1206.59997558594
768.524941922707	1199.40002441406
769.250552647854	1215.40002441406
769.976072843836	1201.40002441406
770.701502518551	1203.40002441406
771.426841679905	1210.59997558594
772.152090335793	1201.80004882813
772.877248494107	1202.19995117188
773.602316162747	1215.40002441406
774.327293349609	1205.59997558594
775.052180062592	1219.19995117188
775.776976309589	1212
776.501682098496	1216.80004882813
777.226297437206	1204
777.950822333616	1198.80004882813
778.675256795621	1203
779.399600831111	1206.19995117188
780.123854447983	1209.19995117188
780.84801765413	1207.59997558594
781.572090457441	1209
782.296072865811	1204.59997558594
783.019964887131	1199.80004882813
783.743766529297	1197
784.467477800194	1198.59997558594
785.191098707719	1203.19995117188
785.914629259756	1197.59997558594
786.638069464194	1198.80004882813
787.361419328932	1198
788.084678861852	1195.19995117188
788.807848070845	1184.59997558594
789.530926963798	1179.19995117188
790.253915548602	1180.40002441406
790.976813833144	1178.40002441406
791.699621825307	1179.40002441406
792.422339532986	1173
793.144966964061	1177.40002441406
793.86750412642	1183.80004882813
794.589951027946	1183.59997558594
795.312307676536	1184.59997558594
796.03457408006	1183
796.756750246417	1185
797.478836183477	1190.19995117188
798.200831899137	1194.40002441406
798.92273740127	1188
799.644552697769	1190
800.36627779651	1195
801.087912705374	1191.40002441406
801.809457432251	1191.40002441406
802.530911985017	1180.59997558594
803.252276371558	1184.40002441406
803.973550599748	1178.59997558594
804.694734677472	1173
805.415828612611	1176.80004882813
806.136832413045	1187.19995117188
806.857746086646	1196
807.578569641305	1187.40002441406
808.299303084892	1187.59997558594
809.019946425289	1189.19995117188
809.740499670372	1192.40002441406
810.460962828022	1189.80004882813
811.181335906114	1189.19995117188
811.901618912524	1177
812.621811855131	1178.19995117188
813.341914741809	1179.59997558594
814.061927580433	1180.19995117188
814.781850378881	1177.19995117188
815.501683145025	1180
816.221425886743	1180
816.941078611903	1177
817.660641328387	1170.40002441406
818.380114044065	1165.59997558594
819.099496766808	1169.19995117188
819.818789504492	1160.59997558594
820.53799226499	1171.59997558594
821.257105056168	1171
821.976127885904	1174
822.695060762064	1183.80004882813
823.413903692525	1190.59997558594
824.132656685151	1181.59997558594
824.851319747817	1182.40002441406
825.569892888388	1195.40002441406
826.288376114739	1194.19995117188
827.006769434737	1187.19995117188
827.725072856249	1194.19995117188
828.443286387142	1189.80004882813
829.161410035285	1187
829.87944380855	1178.59997558594
830.597387714798	1180.19995117188
831.315241761898	1171.80004882813
832.033005957715	1177.19995117188
832.750680310119	1181.80004882813
833.468264826969	1182.59997558594
834.18575951614	1178.80004882813
834.903164385486	1179
835.620479442878	1169.59997558594
836.337704696181	1176
837.054840153255	1177.80004882813
837.771885821962	1178.19995117188
838.488841710172	1176.59997558594
839.20570782574	1161.59997558594
839.922484176531	1164.80004882813
840.639170770409	1167.19995117188
841.355767615231	1172.19995117188
842.072274718864	1166.80004882813
842.788692089164	1174.40002441406
843.505019733993	1182.80004882813
844.221257661209	1176.19995117188
844.937405878676	1171.40002441406
845.65346439425	1174.80004882813
846.369433215789	1179.59997558594
847.085312351156	1174.19995117188
847.801101808205	1164.80004882813
848.516801594793	1165
849.232411718781	1165
849.947932188021	1165.59997558594
850.663363010376	1171.80004882813
851.378704193698	1182
852.093955745842	1184
852.809117674669	1184.59997558594
853.524189988028	1188.59997558594
854.239172693778	1172.19995117188
854.954065799768	1170.19995117188
855.668869313857	1158.19995117188
856.383583243899	1163.80004882813
857.098207597743	1157.19995117188
857.812742383246	1169.40002441406
858.527187608255	1166.19995117188
859.241543280628	1170
859.955809408218	1175.59997558594
860.669985998868	1173.59997558594
861.384073060437	1184.59997558594
862.098070600772	1191.80004882813
862.811978627724	1185.19995117188
863.52579714914	1176
864.239526172873	1175
864.953165706776	1169.80004882813
865.666715758687	1173
866.380176336464	1172.40002441406
867.093547447951	1174
867.806829100996	1175
868.520021303444	1173.19995117188
869.233124063149	1174
869.94613738795	1176.59997558594
870.659061285693	1173.80004882813
871.37189576423	1165.19995117188
872.084640831403	1166.59997558594
872.797296495057	1172.40002441406
873.509862763039	1171.19995117188
874.22233964319	1179.59997558594
874.934727143353	1177.19995117188
875.647025271374	1178.80004882813
876.359234035097	1177.40002441406
877.071353442361	1183.40002441406
877.783383501015	1186.19995117188
878.495324218895	1173.80004882813
879.207175603844	1177.80004882813
879.918937663705	1182
880.630610406318	1185.40002441406
881.342193839524	1189.59997558594
882.053687971161	1183.40002441406
882.765092809069	1186.40002441406
883.476408361091	1187
884.187634635066	1186.40002441406
884.898771638828	1185.40002441406
885.609819380221	1180
886.320777867076	1180.59997558594
887.031647107236	1185.40002441406
887.742427108536	1177.80004882813
888.453117878816	1172.19995117188
889.16371942591	1170
889.874231757652	1174.80004882813
890.584654881883	1173.19995117188
891.294988806434	1179.59997558594
892.005233539141	1181.59997558594
892.715389087837	1174.19995117188
893.42545546036	1182.59997558594
894.135432664543	1179.19995117188
894.845320708216	1179.19995117188
895.555119599216	1182.40002441406
896.264829345375	1182.59997558594
896.974449954526	1177.19995117188
897.683981434496	1185.19995117188
898.393423793125	1191.80004882813
899.102777038235	1192.40002441406
899.812041177664	1177.40002441406
900.521216219239	1189.40002441406
901.230302170793	1180
901.939299040155	1178.19995117188
902.64820683515	1176.19995117188
903.357025563612	1177.19995117188
904.065755233368	1168.40002441406
904.774395852247	1182.59997558594
905.482947428076	1180.59997558594
906.191409968682	1178.80004882813
906.899783481897	1182
907.608067975538	1174.80004882813
908.316263457443	1175.19995117188
909.02436993543	1177.40002441406
909.732387417327	1168.40002441406
910.440315910959	1165.40002441406
911.148155424154	1167.80004882813
911.855905964731	1172.40002441406
912.563567540521	1168.19995117188
913.271140159339	1164.80004882813
913.978623829017	1168.19995117188
914.686018557374	1170.19995117188
915.393324352237	1173.59997558594
916.100541221421	1178.80004882813
916.807669172752	1176.19995117188
917.514708214054	1174
918.221658353142	1162.19995117188
918.928519597843	1166.19995117188
919.635291955976	1168.40002441406
920.341975435358	1167.19995117188
921.048570043813	1175
921.75507578916	1179
922.461492679212	1178.40002441406
923.167820721795	1180.59997558594
923.874059924726	1171.59997558594
924.58021029582	1183
925.286271842893	1176.59997558594
925.992244573769	1176.59997558594
926.698128496262	1182.19995117188
927.403923618184	1173
928.109629947355	1170
928.815247491593	1173.40002441406
929.520776258708	1168.40002441406
930.226216256519	1174.80004882813
930.931567492841	1175.80004882813
931.636829975482	1164.59997558594
932.342003712263	1162.19995117188
933.047088710995	1167.40002441406
933.752084979491	1159.59997558594
934.456992525564	1178.40002441406
935.161811357024	1177.40002441406
935.866541481688	1167.40002441406
936.571182907363	1176
937.275735641861	1170.59997558594
937.980199692995	1171
938.684575068572	1173.59997558594
939.388861776411	1176.40002441406
940.093059824311	1168.59997558594
940.797169220085	1178.59997558594
941.501189971544	1178.40002441406
942.205122086495	1182.59997558594
942.908965572751	1174.59997558594
943.612720438111	1170.59997558594
944.316386690391	1167.80004882813
945.019964337391	1175.59997558594
945.723453386924	1172
946.426853846795	1172.59997558594
947.130165724808	1175.80004882813
947.83338902877	1164.40002441406
948.536523766488	1171
949.239569945764	1174.40002441406
949.942527574402	1166.80004882813
950.64539666021	1167.80004882813
951.348177210993	1157.40002441406
952.050869234548	1153.19995117188
952.753472738683	1154.59997558594
953.455987731199	1150.59997558594
954.158414219898	1148.80004882813
954.860752212587	1165.59997558594
955.563001717061	1157.59997558594
956.265162741124	1164.40002441406
956.967235292576	1154.80004882813
957.669219379224	1153.59997558594
958.371115008857	1159.19995117188
959.072922189283	1164.19995117188
959.774640928301	1160.40002441406
960.476271233708	1150
961.177813113301	1155
961.879266574882	1158.19995117188
962.580631626248	1158.19995117188
963.281908275194	1152
963.98309652952	1159.59997558594
964.684196397022	1146
965.3852078855	1153.80004882813
966.086131002745	1166.80004882813
966.786965756555	1159.40002441406
967.487712154726	1162.80004882813
968.188370205055	1158
968.888939915331	1166.59997558594
969.589421293352	1153.19995117188
970.289814346909	1156.19995117188
970.990119083801	1162.19995117188
971.690335511819	1155.80004882813
972.39046363875	1160
973.090503472398	1168
973.790455020545	1160.19995117188
974.490318290987	1154
975.190093291516	1148.80004882813
975.889780029923	1148.40002441406
976.589378513998	1150.80004882813
977.288888751527	1160.80004882813
977.988310750308	1165
978.687644518122	1166.19995117188
979.386890062767	1167.80004882813
980.086047392025	1158
980.785116513689	1164.19995117188
981.484097435542	1163.40002441406
982.182990165377	1152.40002441406
982.88179471098	1162
983.580511080137	1156
984.279139280632	1157.59997558594
984.977679320253	1141
985.67613120679	1144
986.374494948027	1155.80004882813
987.072770551745	1151.40002441406
987.770958025731	1150
988.469057377772	1151.40002441406
989.167068615649	1148.80004882813
989.864991747145	1147.80004882813
990.562826780047	1153.19995117188
991.260573722134	1159.80004882813
991.958232581195	1163.19995117188
992.655803365003	1160.80004882813
993.353286081346	1170
994.050680738006	1160.80004882813
994.74798734276	1165
995.44520590339	1157.80004882813
996.142336427681	1172
996.839378923407	1158.80004882813
997.536333398348	1159
998.233199860289	1158.40002441406
998.929978317004	1149.80004882813
999.626668776274	1146
1000.32327124587	1148.80004882813
1001.01978573359	1153.19995117188
1001.71621224718	1152
1002.41255079445	1153.19995117188
1003.10880138315	1160
1003.80496402107	1162.19995117188
1004.50103871599	1154.40002441406
1005.19702547567	1155
1005.8929243079	1156.40002441406
1006.58873522045	1155.19995117188
1007.2844582211	1155.59997558594
1007.98009331761	1163.19995117188
1008.67564051776	1161.80004882813
1009.37109982933	1160
1010.06647126009	1153
1010.7617548178	1151.59997558594
1011.45695051026	1154
1012.15205834522	1146.19995117188
1012.84707833045	1154.40002441406
1013.54201047373	1148
1014.23685478284	1149.80004882813
1014.93161126553	1150.59997558594
1015.62627992959	1154.19995117188
1016.32086078277	1162.40002441406
1017.01535383285	1152.80004882813
1017.70975908761	1156.19995117188
1018.40407655479	1157.80004882813
1019.09830624219	1154.59997558594
1019.79244815755	1153.40002441406
1020.48650230866	1159.80004882813
1021.18046870328	1148
1021.87434734917	1148.80004882813
1022.56813825411	1150
1023.26184142584	1161.59997558594
1023.95545687216	1165.59997558594
1024.64898460082	1155.19995117188
1025.34242461957	1154
1026.0357769362	1157.59997558594
1026.72904155846	1159.80004882813
1027.42221849412	1159.80004882813
1028.11530775094	1158.59997558594
1028.80830933668	1163.80004882813
1029.50122325911	1158.59997558594
1030.19404952599	1178.80004882813
1030.88678814508	1161.19995117188
1031.57943912414	1157
1032.27200247093	1148.80004882813
1032.96447819323	1147.40002441406
1033.65686629878	1149.40002441406
1034.34916679534	1152.80004882813
1035.04137969068	1147.59997558594
1035.73350499256	1145
1036.42554270874	1153.40002441406
1037.11749284697	1160.19995117188
1037.80935541501	1154.80004882813
1038.50113042062	1153.59997558594
1039.19281787156	1160.19995117188
1039.88441777559	1163
1040.57593014046	1158.59997558594
1041.26735497393	1159.80004882813
1041.95869228376	1155.80004882813
1042.6499420777	1156.40002441406
1043.3411043635	1158.59997558594
1044.03217914893	1153.59997558594
1044.72316644174	1155.59997558594
1045.41406624968	1156.40002441406
1046.1048785805	1161.40002441406
1046.79560344197	1147.19995117188
1047.48624084182	1151.40002441406
1048.17679078783	1162.19995117188
1048.86725328774	1162.40002441406
1049.55762834929	1158.80004882813
1050.24791598025	1146.59997558594
1050.93811618837	1146.19995117188
1051.62822898139	1149.59997558594
1052.31825436707	1155.59997558594
1053.00819235315	1163.40002441406
1053.6980429474	1163.59997558594
1054.38780615755	1157.59997558594
1055.07748199136	1151.40002441406
1055.76707045658	1145.59997558594
1056.45657156095	1140.59997558594
1057.14598531222	1136.59997558594
1057.83531171814	1144.80004882813
1058.52455078646	1143.19995117188
1059.21370252494	1142.80004882813
1059.90276694129	1140.80004882813
1060.5917440433	1148.19995117188
1061.28063383868	1149
1061.9694363352	1146.19995117188
1062.65815154059	1154
1063.34677946261	1159.40002441406
1064.03532010899	1154.19995117188
1064.72377348748	1151.19995117188
1065.41213960583	1151.19995117188
1066.10041847177	1147.80004882813
1066.78861009306	1152
1067.47671447743	1141.80004882813
1068.16473163263	1144.40002441406
1068.85266156639	1156.40002441406
1069.54050428647	1148
1070.2282598006	1150.40002441406
1070.91592811652	1151.59997558594
1071.60350924198	1144.59997558594
1072.29100318471	1146.59997558594
1072.97840995245	1145.59997558594
1073.66572955295	1144.40002441406
1074.35296199394	1146.40002441406
1075.04010728316	1141.19995117188
1075.72716542836	1137.80004882813
1076.41413643726	1143
1077.10102031761	1136.40002441406
1077.78781707715	1139.80004882813
1078.4745267236	1139
1079.16114926471	1146.80004882813
1079.84768470822	1132.19995117188
1080.53413306185	1134
1081.22049433336	1140.19995117188
1081.90676853046	1146.80004882813
1082.5929556609	1149.80004882813
1083.27905573241	1141.40002441406
1083.96506875272	1154.19995117188
1084.65099472957	1146
1085.3368336707	1146.40002441406
1086.02258558383	1141.80004882813
1086.70825047669	1140.59997558594
1087.39382835703	1145.19995117188
1088.07931923257	1142.40002441406
1088.76472311104	1150.80004882813
1089.45004000018	1136
1090.13526990771	1133.40002441406
1090.82041284137	1135.19995117188
1091.50546880889	1130.59997558594
1092.19043781799	1136.59997558594
1092.87531987642	1142.40002441406
1093.56011499188	1143.59997558594
1094.24482317212	1136.19995117188
1094.92944442486	1130.19995117188
1095.61397875783	1138.80004882813
1096.29842617876	1135.19995117188
1096.98278669537	1134.80004882813
1097.6670603154	1142.19995117188
1098.35124704656	1136
1099.03534689659	1125.19995117188
1099.71935987322	1120.59997558594
1100.40328598416	1138.59997558594
1101.08712523713	1133.80004882813
1101.77087763988	1144.59997558594
1102.45454320012	1138.80004882813
1103.13812192557	1144.59997558594
1103.82161382396	1148.80004882813
1104.50501890301	1138.40002441406
1105.18833717045	1132.80004882813
1105.87156863399	1142.59997558594
1106.55471330137	1143.80004882813
1107.2377711803	1147.59997558594
1107.9207422785	1152.40002441406
1108.60362660369	1158.19995117188
1109.2864241636	1148.19995117188
1109.96913496594	1153.80004882813
1110.65175901844	1146
1111.33429632882	1141
1112.01674690479	1141.59997558594
1112.69911075408	1144.40002441406
1113.38138788439	1133.59997558594
1114.06357830346	1139.19995117188
1114.745682019	1148.19995117188
1115.42769903872	1147.80004882813
1116.10962937035	1149
1116.7914730216	1154.59997558594
1117.47323000018	1148.19995117188
1118.15490031382	1142.59997558594
1118.83648397022	1134.19995117188
1119.51798097712	1137.40002441406
1120.1993913422	1141
1120.88071507321	1138.40002441406
1121.56195217784	1144.19995117188
1122.24310266381	1139.40002441406
1122.92416653884	1143
1123.60514381064	1140.19995117188
1124.28603448692	1148
1124.9668385754	1149.19995117188
1125.64755608378	1144
1126.32818701978	1150.59997558594
1127.00873139111	1136.80004882813
1127.68918920548	1141
1128.3695604706	1144.19995117188
1129.04984519419	1143.80004882813
1129.73004338394	1143.59997558594
1130.41015504758	1139.40002441406
1131.09018019281	1138.59997558594
1131.77011882734	1143.40002441406
1132.44997095888	1141.40002441406
1133.12973659514	1141.19995117188
1133.80941574381	1142.19995117188
1134.48900841263	1135.19995117188
1135.16851460927	1131.40002441406
1135.84793434147	1124.59997558594
1136.52726761692	1126
1137.20651444333	1134.19995117188
1137.8856748284	1139.80004882813
1138.56474877984	1133.59997558594
1139.24373630536	1131.59997558594
1139.92263741265	1142.80004882813
1140.60145210943	1140.80004882813
1141.28018040339	1135.40002441406
1141.95882230225	1137.19995117188
1142.6373778137	1138.80004882813
1143.31584694545	1137.80004882813
1143.99422970519	1140.40002441406
1144.67252610064	1129
1145.35073613949	1136.59997558594
1146.02885982944	1138.59997558594
1146.7068971782	1128.19995117188
1147.38484819347	1135.80004882813
1148.06271288294	1139.59997558594
1148.74049125432	1140
1149.41818331531	1144.59997558594
1150.0957890736	1142.59997558594
1150.77330853689	1141.59997558594
1151.45074171289	1135.80004882813
1152.12808860928	1134.80004882813
1152.80534923378	1118.40002441406
1153.48252359407	1121.80004882813
1154.15961169786	1127
1154.83661355283	1123.19995117188
1155.51352916669	1123.59997558594
1156.19035854713	1126.40002441406
1156.86710170185	1131.80004882813
1157.54375863855	1137
1158.22032936491	1123
1158.89681388863	1129
1159.57321221741	1124.19995117188
1160.24952435894	1128.59997558594
1160.92575032092	1134.80004882813
1161.60189011103	1131.80004882813
1162.27794373697	1131.59997558594
1162.95391120644	1140.19995117188
1163.62979252712	1137
1164.3055877067	1133.80004882813
1164.98129675288	1136.19995117188
1165.65691967336	1133.80004882813
1166.33245647581	1134.19995117188
1167.00790716792	1128.80004882813
1167.6832717574	1121
1168.35855025193	1130
1169.0337426592	1126.59997558594
1169.70884898689	1123.59997558594
1170.3838692427	1120.19995117188
1171.05880343431	1128.59997558594
1171.73365156941	1125
1172.40841365569	1124
1173.08308970083	1125
1173.75767971253	1126.40002441406
1174.43218369847	1126.80004882813
1175.10660166633	1128.80004882813
1175.7809336238	1123
1176.45517957857	1127.19995117188
1177.12933953832	1115.59997558594
1177.80341351073	1126
1178.47740150349	1128
1179.15130352429	1131.59997558594
1179.8251195808	1138
1180.49884968071	1135
1181.1724938317	1131.80004882813
1181.84605204145	1135.80004882813
1182.51952431766	1137.19995117188
1183.19291066799	1138
1183.86621110013	1129.59997558594
1184.53942562176	1140
1185.21255424057	1138
1185.88559696422	1124
1186.55855380041	1127
1187.2314247568	1126.40002441406
1187.90420984109	1125.80004882813
1188.57690906095	1135.40002441406
1189.24952242405	1136.80004882813
1189.92204993808	1140
1190.59449161071	1134.59997558594
1191.26684744962	1138.40002441406
1191.93911746249	1139.40002441406
1192.61130165699	1140.40002441406
1193.28340004081	1135
1193.95541262161	1142.40002441406
1194.62733940707	1137.80004882813
1195.29918040487	1137.40002441406
1195.97093562269	1131
1196.64260506819	1135.80004882813
1197.31418874905	1138
1197.98568667295	1124.80004882813
1198.65709884755	1133.40002441406
1199.32842528053	1132.40002441406
1199.99966597957	1134.80004882813
1200.67082095234	1137.59997558594
1201.3418902065	1133
1202.01287374974	1145
1202.68377158971	1133
1203.3545837341	1138.59997558594
1204.02531019057	1131.40002441406
1204.6959509668	1124.40002441406
1205.36650607045	1127.40002441406
1206.03697550919	1131.80004882813
1206.70735929069	1129
1207.37765742263	1128.19995117188
1208.04786991266	1129.80004882813
1208.71799676846	1127.19995117188
1209.38803799769	1126.19995117188
1210.05799360803	1131.19995117188
1210.72786360714	1124.40002441406
1211.39764800268	1122.59997558594
1212.06734680233	1128.19995117188
1212.73696001375	1118
1213.4064876446	1120.40002441406
1214.07592970255	1119.59997558594
1214.74528619526	1117
1215.4145571304	1108.80004882813
1216.08374251564	1113.59997558594
1216.75284235863	1114.19995117188
1217.42185666704	1119.59997558594
1218.09078544854	1131.80004882813
1218.75962871078	1118.59997558594
1219.42838646143	1124.59997558594
1220.09705870816	1119.19995117188
1220.76564545861	1118.59997558594
1221.43414672046	1111.59997558594
1222.10256250136	1115.19995117188
1222.77089280898	1113.19995117188
1223.43913765098	1112.80004882813
1224.107297035	1116.19995117188
1224.77537096873	1108.40002441406
1225.44335945981	1113.80004882813
1226.1112625159	1115.40002441406
1226.77908014467	1120.19995117188
1227.44681235376	1120.19995117188
1228.11445915085	1126
1228.78202054357	1123
1229.44949653961	1115.59997558594
1230.11688714659	1110
1230.7841923722	1119.19995117188
1231.45141222407	1124
1232.11854670988	1121
1232.78559583726	1118.80004882813
1233.45255961388	1123.19995117188
1234.1194380474	1125
1234.78623114546	1122.40002441406
1235.45293891572	1125.80004882813
1236.11956136583	1129.40002441406
1236.78609850345	1129
1237.45255033623	1133.80004882813
1238.11891687182	1132.19995117188
1238.78519811788	1138
1239.45139408205	1131.59997558594
1240.11750477198	1130.40002441406
1240.78353019534	1123.19995117188
1241.44947035976	1113
1242.11532527291	1124.80004882813
1242.78109494242	1114.59997558594
1243.44677937595	1118.59997558594
1244.11237858115	1117.80004882813
1244.77789256567	1118
1245.44332133715	1118.59997558594
1246.10866490325	1129
1246.7739232716	1121.40002441406
1247.43909644987	1119.40002441406
1248.10418444569	1128.59997558594
1248.76918726671	1121.59997558594
1249.43410492059	1123.19995117188
1250.09893741496	1115.19995117188
1250.76368475747	1113.40002441406
1251.42834695576	1118.40002441406
1252.09292401749	1112.80004882813
1252.75741595029	1117
1253.42182276182	1122.40002441406
1254.08614445971	1123.59997558594
1254.75038105161	1121.40002441406
1255.41453254515	1122.80004882813
1256.07859894799	1129
1256.74258026777	1113.19995117188
1257.40647651213	1111.59997558594
1258.0702876887	1109.40002441406
1258.73401380514	1115.40002441406
1259.39765486908	1113.80004882813
1260.06121088817	1117
1260.72468187004	1114.19995117188
1261.38806782233	1124.19995117188
1262.05136875269	1131.59997558594
1262.71458466875	1123.59997558594
1263.37771557815	1121.59997558594
1264.04076148854	1120.80004882813
1264.70372240753	1114.40002441406
1265.3665983428	1115.80004882813
1266.02938930195	1124.59997558594
1266.69209529263	1116
1267.35471632249	1120
1268.01725239914	1112.59997558594
1268.67970353024	1113
1269.34206972342	1110.19995117188
1270.00435098631	1120.19995117188
1270.66654732655	1112.59997558594
1271.32865875177	1112
1271.9906852696	1113.80004882813
1272.65262688768	1114.19995117188
1273.31448361365	1120.40002441406
1273.97625545514	1113.80004882813
1274.63794241978	1111.40002441406
1275.2995445152	1109.59997558594
1275.96106174903	1115
1276.62249412892	1119
1277.28384166248	1117.80004882813
1277.94510435735	1109
1278.60628222116	1110.59997558594
1279.26737526155	1109
1279.92838348613	1104.40002441406
1280.58930690255	1107.80004882813
1281.25014551842	1113.40002441406
1281.91089934139	1115.80004882813
1282.57156837907	1125.59997558594
1283.2321526391	1115.19995117188
1283.89265212911	1115.80004882813
1284.55306685671	1116.40002441406
1285.21339682955	1103.19995117188
1285.87364205525	1098.80004882813
1286.53380254142	1101.19995117188
1287.19387829571	1104
1287.85386932573	1107
1288.51377563911	1105.19995117188
1289.17359724348	1113.59997558594
1289.83333414646	1107
1290.49298635567	1114.19995117188
1291.15255387874	1114.59997558594
1291.8120367233	1102.40002441406
1292.47143489696	1106.40002441406
1293.13074840736	1111.19995117188
1293.7899772621	1116.19995117188
1294.44912146882	1116.59997558594
1295.10818103513	1112
1295.76715596866	1117.40002441406
1296.42604627704	1109
1297.08485196787	1101
1297.74357304878	1104
1298.4022095274	1103.80004882813
1299.06076141134	1107.19995117188
1299.71922870821	1112.19995117188
1300.37761142565	1107.80004882813
1301.03590957126	1107
1301.69412315268	1112.80004882813
1302.3522521775	1103.40002441406
1303.01029665336	1103.19995117188
1303.66825658787	1107.59997558594
1304.32613198865	1113
1304.98392286332	1112.59997558594
1305.64162921948	1108.40002441406
1306.29925106476	1106
1306.95678840677	1115.19995117188
1307.61424125312	1115.19995117188
1308.27160961145	1120.59997558594
1308.92889348934	1125.40002441406
1309.58609289443	1115.40002441406
1310.24320783432	1120.19995117188
1310.90023831664	1104.80004882813
1311.55718434898	1109.59997558594
1312.21404593897	1105.59997558594
1312.87082309421	1110.80004882813
1313.52751582233	1105.59997558594
1314.18412413092	1102
1314.84064802761	1110.40002441406
1315.49708752	1114.59997558594
1316.1534426157	1113.19995117188
1316.80971332233	1112
1317.46589964749	1109.40002441406
1318.1220015988	1104.59997558594
1318.77801918386	1110.59997558594
1319.43395241028	1112.80004882813
1320.08980128567	1110.80004882813
1320.74556581764	1114.19995117188
1321.4012460138	1117.19995117188
1322.05684188176	1110.19995117188
1322.71235342911	1120
1323.36778066347	1119.19995117188
1324.02312359245	1115
1324.67838222365	1123
1325.33355656468	1114.19995117188
1325.98864662314	1115.59997558594
1326.64365240663	1114
1327.29857392277	1113.19995117188
1327.95341117915	1106.40002441406
1328.60816418339	1100.19995117188
1329.26283294308	1100.59997558594
1329.91741746582	1112.80004882813
1330.57191775923	1101
1331.2263338309	1103
1331.88066568843	1112.80004882813
1332.53491333943	1113.19995117188
1333.1890767915	1115.19995117188
1333.84315605224	1112.80004882813
1334.49715112925	1116.19995117188
1335.15106203013	1103.80004882813
1335.80488876249	1111.40002441406
1336.45863133391	1106
1337.112289752	1114.59997558594
1337.76586402437	1110.80004882813
1338.4193541586	1116
1339.0727601623	1121.40002441406
1339.72608204306	1117.80004882813
1340.37931980849	1117.40002441406
1341.03247346617	1123.19995117188
1341.68554302372	1124.40002441406
1342.33852848871	1123.19995117188
1342.99142986876	1125.80004882813
1343.64424717145	1115.19995117188
1344.29698040438	1117.40002441406
1344.94962957515	1121.80004882813
1345.60219469135	1125.40002441406
1346.25467576058	1127.40002441406
1346.90707279042	1123.40002441406
1347.55938578848	1118.59997558594
1348.21161476235	1117.19995117188
1348.86375971962	1106
1349.51582066787	1108.80004882813
1350.16779761472	1099.19995117188
1350.81969056774	1108.40002441406
1351.47149953453	1111
1352.12322452269	1105
1352.77486553979	1108.19995117188
1353.42642259344	1111.19995117188
1354.07789569122	1123.19995117188
1354.72928484072	1111
1355.38059004953	1128.80004882813
1356.03181132525	1134.40002441406
1356.68294867545	1123.59997558594
1357.33400210773	1120.80004882813
1357.98497162968	1125.80004882813
1358.63585724889	1126.59997558594
1359.28665897294	1129.80004882813
1359.93737680942	1127.80004882813
1360.58801076591	1138.40002441406
1361.23856085001	1137.59997558594
1361.88902706929	1135.19995117188
1362.53940943135	1132.19995117188
1363.18970794377	1129.59997558594
1363.83992261413	1137
1364.49005345003	1129.59997558594
1365.14010045904	1131.19995117188
1365.79006364874	1135
1366.43994302673	1136.80004882813
1367.08973860058	1136.40002441406
1367.73945037788	1132.19995117188
1368.38907836621	1128.40002441406
1369.03862257315	1130.80004882813
1369.68808300629	1133.80004882813
1370.3374596732	1127
1370.98675258148	1129.80004882813
1371.63596173868	1136.40002441406
1372.28508715241	1123
1372.93412883024	1115.19995117188
1373.58308677974	1113.19995117188
1374.2319610085	1107.40002441406
1374.8807515241	1112.40002441406
1375.52945833412	1107.59997558594
1376.17808144612	1107.19995117188
1376.82662086771	1101.19995117188
1377.47507660644	1101.40002441406
1378.12344866989	1100.80004882813
1378.77173706565	1110.80004882813
1379.41994180129	1115.19995117188
1380.06806288439	1108.59997558594
1380.71610032252	1110.80004882813
1381.36405412326	1118.59997558594
1382.01192429419	1108
1382.65971084287	1114.80004882813
1383.30741377688	1106
1383.95503310381	1109
1384.60256883121	1105.59997558594
1385.25002096667	1105.40002441406
1385.89738951775	1103.19995117188
1386.54467449204	1105
1387.19187589709	1105.80004882813
1387.8389937405	1101.40002441406
1388.48602802982	1097.59997558594
1389.13297877262	1095
1389.77984597649	1096.80004882813
1390.42662964899	1097.40002441406
1391.07332979768	1095.19995117188
1391.71994643015	1095.40002441406
1392.36647955395	1105
1393.01292917667	1103.40002441406
1393.65929530586	1098
1394.3055779491	1094.80004882813
1394.95177711395	1100.80004882813
1395.59789280799	1098.59997558594
1396.24392503877	1100.59997558594
1396.88987381387	1105.80004882813
1397.53573914086	1106
1398.1815210273	1102
1398.82721948075	1116.19995117188
1399.47283450878	1108.19995117188
1400.11836611897	1110.19995117188
1400.76381431886	1108.40002441406
1401.40917911603	1102.40002441406
1402.05446051805	1095
1402.69965853247	1093.59997558594
1403.34477316686	1092.59997558594
1403.98980442878	1099.80004882813
1404.6347523258	1092.40002441406
1405.27961686548	1089.80004882813
1405.92439805538	1098.40002441406
1406.56909590306	1089.40002441406
1407.21371041608	1090.80004882813
1407.85824160202	1085.80004882813
1408.50268946841	1091.59997558594
1409.14705402284	1097
1409.79133527285	1095.59997558594
1410.43553322601	1095.59997558594
1411.07964788987	1102.19995117188
1411.723679272	1099.40002441406
1412.36762737996	1096
1413.01149222129	1090.40002441406
1413.65527380357	1086.40002441406
1414.29897213435	1087.19995117188
1414.94258722118	1080.80004882813
1415.58611907163	1088.59997558594
1416.22956769325	1089.80004882813
1416.87293309359	1085.59997558594
1417.51621528021	1087.19995117188
1418.15941426067	1087
1418.80253004253	1095.80004882813
1419.44556263333	1099.19995117188
1420.08851204063	1100.19995117188
1420.731378272	1105.40002441406
1421.37416133497	1103.40002441406
1422.0168612371	1094.40002441406
1422.65947798596	1108.59997558594
1423.30201158908	1104.59997558594
1423.94446205403	1101.19995117188
1424.58682938835	1099.19995117188
1425.2291135996	1097.59997558594
1425.87131469532	1097.40002441406
1426.51343268308	1096
1427.15546757042	1100
1427.79741936488	1101.40002441406
1428.43928807403	1095.80004882813
1429.0810737054	1102
1429.72277626656	1094.59997558594
1430.36439576504	1094.40002441406
1431.00593220841	1095.59997558594
1431.64738560419	1088.40002441406
1432.28875595995	1087.19995117188
1432.93004328324	1095.80004882813
1433.57124758159	1100.59997558594
1434.21236886255	1094.19995117188
1434.85340713368	1096.40002441406
1435.49436240252	1092.19995117188
1436.13523467661	1096.40002441406
1436.77602396349	1097.19995117188
1437.41673027073	1091.19995117188
1438.05735360585	1093.40002441406
1438.69789397641	1090.80004882813
1439.33835138994	1094.59997558594
1439.978725854	1092.40002441406
1440.61901737612	1092.59997558594
1441.25922596385	1094
1441.89935162473	1090
1442.53939436631	1082.59997558594
1443.17935419612	1076.40002441406
1443.81923112171	1086.40002441406
1444.45902515061	1078.80004882813
1445.09873629038	1094.59997558594
1445.73836454854	1097.19995117188
1446.37790993265	1091.19995117188
1447.01737245024	1096.40002441406
1447.65675210885	1088.40002441406
1448.29604891602	1090.59997558594
1448.93526287928	1091.40002441406
1449.57439400618	1085.19995117188
1450.21344230426	1088
1450.85240778105	1096
1451.49129044409	1082.80004882813
1452.13009030092	1090.59997558594
1452.76880735907	1088.80004882813
1453.40744162608	1088.19995117188
1454.04599310949	1085.19995117188
1454.68446181683	1086
1455.32284775564	1081.19995117188
1455.96115093345	1084.19995117188
1456.5993713578	1087.80004882813
1457.23750903623	1083.80004882813
1457.87556397626	1084.19995117188
1458.51353618543	1080.19995117188
1459.15142567127	1079.40002441406
1459.78923244132	1079
1460.42695650311	1090.59997558594
1461.06459786417	1092.59997558594
1461.70215653203	1086.59997558594
1462.33963251423	1087.80004882813
1462.97702581829	1087.59997558594
1463.61433645175	1087.59997558594
1464.25156442214	1082.19995117188
1464.88870973699	1086
1465.52577240382	1091.19995117188
1466.16275243017	1086.80004882813
1466.79964982356	1082.59997558594
1467.43646459154	1082.19995117188
1468.07319674161	1082.80004882813
1468.70984628132	1079.80004882813
1469.34641321818	1095.19995117188
1469.98289755974	1081.80004882813
1470.6192993135	1091
1471.25561848701	1097
1471.89185508779	1090.59997558594
1472.52800912336	1089.59997558594
1473.16408060124	1093.59997558594
1473.80006952897	1084.59997558594
1474.43597591407	1091
1475.07179976406	1081.40002441406
1475.70754108647	1085.19995117188
1476.34319988883	1078.19995117188
1476.97877617865	1080.40002441406
1477.61426996345	1085.59997558594
1478.24968125077	1097
1478.88501004812	1088.19995117188
1479.52025636303	1090.59997558594
1480.15542020302	1085.80004882813
1480.79050157561	1094.40002441406
1481.42550048832	1085.19995117188
1482.06041694867	1079.59997558594
1482.69525096418	1084.59997558594
1483.33000254237	1081.40002441406
1483.96467169077	1085.59997558594
1484.59925841689	1079.19995117188
1485.23376272825	1082.80004882813
1485.86818463237	1082.80004882813
1486.50252413677	1089.80004882813
1487.13678124896	1080.19995117188
1487.77095597646	1084.19995117188
1488.4050483268	1077.59997558594
1489.03905830749	1077.19995117188
1489.67298592604	1077
1490.30683118996	1087.59997558594
1490.9405941068	1083
1491.57427468403	1088
1492.2078729292	1088.80004882813
1492.84138884981	1086.59997558594
1493.47482245338	1098.59997558594
1494.10817374742	1092.40002441406
1494.74144273944	1076.19995117188
1495.37462943696	1082
1496.0077338475	1079
1496.64075597856	1087
1497.27369583765	1089.40002441406
1497.9065534323	1082.40002441406
1498.53932877001	1076.59997558594
1499.17202185829	1070.40002441406
1499.80463270465	1074.19995117188
1500.43716131661	1077.19995117188
1501.06960770167	1083.59997558594
1501.70197186735	1085.40002441406
1502.33425382116	1090.40002441406
1502.96645357059	1082.80004882813
1503.59857112317	1090.40002441406
1504.23060648641	1089.19995117188
1504.8625596678	1088.40002441406
1505.49443067486	1087.40002441406
1506.1262195151	1092.59997558594
1506.75792619602	1090.19995117188
1507.38955072513	1089.80004882813
1508.02109310993	1088.19995117188
1508.65255335794	1084.80004882813
1509.28393147666	1092.19995117188
1509.91522747359	1095
1510.54644135624	1096
1511.17757313212	1096.19995117188
1511.80862280872	1093.80004882813
1512.43959039356	1092.40002441406
1513.07047589413	1100.59997558594
1513.70127931795	1081.19995117188
1514.33200067251	1083.19995117188
1514.96263996531	1085.80004882813
1515.59319720386	1080
1516.22367239567	1085.40002441406
1516.85406554822	1087
1517.48437666903	1085.80004882813
1518.1146057656	1080.59997558594
1518.74475284542	1077.40002441406
1519.374817916	1079.40002441406
1520.00480098483	1074.40002441406
1520.63470205942	1072.40002441406
1521.26452114726	1084.59997558594
1521.89425825586	1077.19995117188
1522.52391339271	1077.19995117188
1523.15348656531	1082
1523.78297778116	1077.59997558594
1524.41238704775	1081.19995117188
1525.04171437259	1081.59997558594
1525.67095976317	1077.59997558594
1526.30012322699	1076.80004882813
1526.92920477154	1082.19995117188
1527.55820440432	1076.19995117188
1528.18712213283	1068.80004882813
1528.81595796455	1073
1529.44471190699	1065.40002441406
1530.07338396764	1069.40002441406
1530.70197415399	1071.80004882813
1531.33048247353	1079.19995117188
1531.95890893377	1080.59997558594
1532.58725354219	1079.19995117188
1533.21551630629	1082.59997558594
1533.84369723356	1087.59997558594
1534.47179633148	1088.59997558594
1535.09981360757	1089.19995117188
1535.72774906929	1093
1536.35560272415	1084.59997558594
1536.98337457963	1090.80004882813
1537.61106464323	1085.80004882813
1538.23867292243	1082
1538.86619942473	1083
1539.49364415762	1083
1540.12100712857	1087
1540.74828834509	1083.40002441406
1541.37548781466	1080.59997558594
1542.00260554478	1084.59997558594
1542.62964154291	1068.80004882813
1543.25659581655	1081.40002441406
1543.8834683732	1082.59997558594
1544.51025922034	1089.59997558594
1545.13696836544	1075
1545.76359581601	1077.59997558594
1546.39014157952	1068.19995117188
1547.01660566345	1064.19995117188
1547.64298807531	1068.59997558594
1548.26928882255	1074.80004882813
1548.89550791269	1070.40002441406
1549.52164535318	1080
1550.14770115153	1073.19995117188
1550.77367531521	1064.40002441406
1551.39956785171	1081.80004882813
1552.0253787685	1066.59997558594
1552.65110807307	1071.80004882813
1553.2767557729	1072.59997558594
1553.90232187548	1066.19995117188
1554.52780638828	1066.19995117188
1555.15320931879	1068.19995117188
1555.77853067447	1060.80004882813
1556.40377046282	1063.19995117188
1557.02892869132	1063.40002441406
1557.65400536744	1062.40002441406
1558.27900049866	1072.40002441406
1558.90391409247	1072.80004882813
1559.52874615633	1069.19995117188
1560.15349669773	1069.40002441406
1560.77816572414	1070.40002441406
1561.40275324305	1059
1562.02725926192	1069.19995117188
1562.65168378824	1072
1563.27602682948	1068.19995117188
1563.90028839311	1067
1564.52446848662	1068.19995117188
1565.14856711748	1068.59997558594
1565.77258429316	1067.80004882813
1566.39652002113	1064.40002441406
1567.02037430887	1075
1567.64414716387	1067.80004882813
1568.26783859357	1062.59997558594
1568.89144860547	1074
1569.51497720703	1072
1570.13842440573	1073.59997558594
1570.76179020904	1061
1571.38507462442	1068.59997558594
1572.00827765936	1072.80004882813
1572.63139932132	1067.59997558594
1573.25443961777	1071
1573.87739855618	1076
1574.50027614402	1074
1575.12307238877	1078
1575.74578729789	1075
1576.36842087885	1071
1576.99097313912	1070.59997558594
1577.61344408616	1070
1578.23583372745	1063.40002441406
1578.85814207046	1072.19995117188
1579.48036912264	1071.59997558594
1580.10251489147	1066
1580.72457938441	1066.80004882813
1581.34656260893	1063
1581.9684645725	1063
1582.59028528258	1066
1583.21202474663	1065.59997558594
1583.83368297212	1070
1584.45525996652	1061
1585.07675573728	1062.80004882813
1585.69817029188	1063.19995117188
1586.31950363778	1067.19995117188
1586.94075578243	1061.40002441406
1587.5619267333	1064
1588.18301649786	1062
1588.80402508357	1058.19995117188
1589.42495249788	1056.59997558594
1590.04579874826	1055
1590.66656384217	1056.80004882813
1591.28724778707	1057.59997558594
1591.90785059042	1049.40002441406
1592.52837225968	1052.19995117188
1593.14881280232	1054.80004882813
1593.76917222578	1057.80004882813
1594.38945053753	1057.80004882813
1595.00964774502	1056.80004882813
1595.62976385573	1051
1596.24979887709	1049.59997558594
1596.86975281657	1051.19995117188
1597.48962568164	1051.40002441406
1598.10941747974	1053.40002441406
1598.72912821832	1054.19995117188
1599.34875790486	1058.40002441406
1599.9683065468	1050
1600.58777415159	1054.80004882813
1601.2071607267	1058
1601.82646627958	1040
1602.44569081769	1053.40002441406
1603.06483434846	1046.59997558594
1603.68389687937	1041.59997558594
1604.30287841786	1042.19995117188
1604.92177897139	1039.19995117188
1605.54059854741	1039.59997558594
1606.15933715337	1044.59997558594
1606.77799479672	1037
1607.39657148492	1040.40002441406
1608.01506722542	1048.40002441406
1608.63348202566	1043.19995117188
1609.2518158931	1051
1609.87006883519	1040.40002441406
1610.48824085939	1046.59997558594
1611.10633197312	1044.19995117188
1611.72434218386	1043.19995117188
1612.34227149904	1049.59997558594
1612.96011992612	1053.40002441406
1613.57788747254	1051.19995117188
1614.19557414575	1050.40002441406
1614.8131799532	1038.59997558594
1615.43070490234	1044.40002441406
1616.04814900061	1045.59997558594
1616.66551225545	1043.19995117188
1617.28279467433	1038
1617.89999626467	1040.59997558594
1618.51711703393	1044.59997558594
1619.13415698955	1039.19995117188
1619.75111613898	1041.80004882813
1620.36799448966	1041.40002441406
1620.98479204903	1042.59997558594
1621.60150882455	1040.80004882813
1622.21814482364	1046.59997558594
1622.83470005376	1053.80004882813
1623.45117452235	1052.80004882813
1624.06756823685	1056.80004882813
1624.6838812047	1050.40002441406
1625.30011343335	1053.59997558594
1625.91626493022	1054.40002441406
1626.53233570278	1050.59997558594
1627.14832575845	1054
1627.76423510468	1061.40002441406
1628.38006374891	1060
1628.99581169857	1055.40002441406
1629.61147896111	1060.40002441406
1630.22706554397	1054.40002441406
1630.84257145457	1046.80004882813
1631.45799670038	1047.59997558594
1632.07334128881	1044.19995117188
1632.6886052273	1038.59997558594
1633.3037885233	1042.40002441406
1633.91889118425	1042.59997558594
1634.53391321757	1037.40002441406
1635.1488546307	1036.80004882813
1635.76371543108	1024.80004882813
1636.37849562616	1034
1636.99319522335	1029.59997558594
1637.60781423009	1033.19995117188
1638.22235265383	1030.19995117188
1638.83681050198	1033.19995117188
1639.451187782	1031.40002441406
1640.0654845013	1030.59997558594
1640.67970066734	1027.59997558594
1641.29383628752	1032.19995117188
1641.9078913693	1035
1642.5218659201	1029.80004882813
1643.13575994735	1041.59997558594
1643.74957345849	1040.59997558594
1644.36330646094	1035.19995117188
1644.97695896213	1038.80004882813
1645.59053096951	1042.40002441406
1646.20402249049	1043.19995117188
1646.8174335325	1049.80004882813
1647.43076410298	1050.19995117188
1648.04401420935	1052
1648.65718385905	1057.59997558594
1649.2702730595	1054.40002441406
1649.88328181812	1049
1650.49621014236	1048.40002441406
1651.10905803963	1047.40002441406
1651.72182551735	1044.80004882813
1652.33451258297	1051.19995117188
1652.9471192439	1044.40002441406
1653.55964550757	1045.40002441406
1654.1720913814	1046.80004882813
1654.78445687283	1047.19995117188
1655.39674198926	1043.80004882813
1656.00894673814	1036
1656.62107112688	1036.19995117188
1657.23311516291	1032.40002441406
1657.84507885365	1033.19995117188
1658.45696220652	1034.19995117188
1659.06876522895	1026.19995117188
1659.68048792835	1026.80004882813
1660.29213031217	1027.80004882813
1660.90369238779	1025
1661.51517416267	1029
1662.12657564421	1026.80004882813
1662.73789683984	1020
1663.34913775697	1027
1663.96029840303	1026.19995117188
1664.57137878544	1024.19995117188
1665.18237891161	1014.20001220703
1665.79329878897	1016.59997558594
1666.40413842493	1009.20001220703
1667.01489782691	1017.59997558594
1667.62557700233	1018.20001220703
1668.2361759586	1019
1668.84669470315	1009.79998779297
1669.4571332434	1013.20001220703
1670.06749158675	1012.20001220703
1670.67776974062	1015.59997558594
1671.28796771243	1017.79998779297
1671.8980855096	1019.20001220703
1672.50812313954	1021.40002441406
1673.11808060967	1016.79998779297
1673.72795792739	1018
1674.33775510013	1015.79998779297
1674.9474721353	1018.20001220703
1675.55710904031	1012.79998779297
1676.16666582257	1012
1676.7761424895	1016.79998779297
1677.38553904851	1013.20001220703
1677.99485550702	1015.79998779297
1678.60409187243	1005.40002441406
1679.21324815215	1004.40002441406
1679.8223243536	1006.79998779297
1680.43132048419	1008.40002441406
1681.04023655132	1006.59997558594
1681.64907256241	998.599975585938
1682.25782852487	1006.79998779297
1682.86650444611	1007.40002441406
1683.47510033353	1007.40002441406
1684.08361619455	1003.59997558594
1684.69205203657	1007.59997558594
1685.300407867	1005.79998779297
1685.90868369325	1004.40002441406
1686.51687952272	1003.79998779297
1687.12499536283	1003.79998779297
1687.73303122098	996.200012207031
1688.34098710457	1009.59997558594
1688.94886302101	1006.40002441406
1689.55665897772	1000.59997558594
1690.16437498208	1001.59997558594
1690.77201104152	1001.79998779297
1691.37956716342	1007
1691.9870433552	1005.20001220703
1692.59443962426	1010.40002441406
1693.20175597801	1010.59997558594
1693.80899242384	1005
1694.41614896916	1009
1695.02322562138	1010.40002441406
1695.63022238789	1010.59997558594
1696.23713927609	1005.20001220703
1696.8439762934	1007.20001220703
1697.4507334472	1008.20001220703
1698.05741074491	1012.40002441406
1698.66400819391	1009.20001220703
1699.27052580161	1012.40002441406
1699.87696357542	1006.79998779297
1700.48332152272	1004.40002441406
1701.08959965092	1004
1701.69579796742	999.599975585938
1702.30191647962	999.400024414063
1702.90795519491	996
1703.51391412069	991.799987792969
1704.11979326437	994.400024414063
1704.72559263332	992.200012207031
1705.33131223496	995.799987792969
1705.93695207668	992.400024414063
1706.54251216588	995
1707.14799250994	990.599975585938
1707.75339311628	993.799987792969
1708.35871399227	981.400024414063
1708.96395514532	988
1709.56911658282	990.400024414063
