634.948122577771	1371
635.690341530823	1359.40002441406
636.43246851086	1379.19995117188
637.174503525845	1373
637.916446583745	1370
638.658297692538	1351.19995117188
639.400056860179	1365.40002441406
640.141724094637	1343.40002441406
640.883299403885	1349.59997558594
641.62478279588	1360.80004882813
642.366174278594	1354
643.107473859989	1362.80004882813
643.848681548029	1367
644.589797350679	1361.80004882813
645.330821275901	1359.59997558594
646.071753331665	1365.40002441406
646.812593525922	1359.19995117188
647.553341866646	1354.19995117188
648.293998361798	1358.59997558594
649.03456301933	1353.59997558594
649.775035847216	1353.80004882813
650.515416853409	1354.80004882813
651.255706045874	1351.59997558594
651.995903432568	1373.19995117188
652.736009021453	1372.59997558594
653.476022820486	1371.59997558594
654.215944837629	1380
654.955775080842	1380.19995117188
655.695513558081	1375.19995117188
656.435160277301	1376.59997558594
657.174715246465	1368.40002441406
657.914178473527	1372.40002441406
658.653549966449	1368.19995117188
659.392829733176	1354.59997558594
660.132017781678	1361.19995117188
660.871114119901	1364.40002441406
661.610118755803	1364.19995117188
662.349031697343	1365
663.087852952468	1369.19995117188
663.826582529139	1361.80004882813
664.565220435305	1365.80004882813
665.30376667892	1361.40002441406
666.04222126794	1367.40002441406
666.780584210316	1361.80004882813
667.518855514	1365.19995117188
668.25703518694	1366.19995117188
668.995123237096	1383.80004882813
669.733119672413	1382.19995117188
670.471024500842	1377
671.208837730333	1387.59997558594
671.946559368839	1369.59997558594
672.684189424308	1364
673.421727904689	1372.80004882813
674.159174817929	1370.80004882813
674.896530171977	1367
675.633793974786	1373
676.370966234295	1373
677.108046958461	1373.19995117188
677.845036155219	1381.59997558594
678.581933832528	1378
679.318739998323	1386.80004882813
680.055454660558	1384.40002441406
680.792077827172	1385.19995117188
681.528609506116	1381.80004882813
682.265049705331	1377.40002441406
683.001398432759	1379.59997558594
683.737655696349	1381.19995117188
684.47382150404	1371.80004882813
685.20989586378	1370.40002441406
685.945878783503	1369.40002441406
686.68177027116	1362
687.417570334688	1367
688.153278982032	1374.19995117188
688.888896221129	1377
689.624422059921	1370.19995117188
690.359856506349	1372.40002441406
691.095199568354	1395.59997558594
691.830451253874	1393.80004882813
692.565611570844	1396.19995117188
693.300680527212	1388.19995117188
694.03565813091	1397
694.770544389877	1395.59997558594
695.505339312053	1395.40002441406
696.240042905372	1394.59997558594
696.974655177772	1397.80004882813
697.70917613719	1413
698.443605791561	1418
699.177944148826	1409
699.912191216909	1398.59997558594
700.646347003755	1400.80004882813
701.380411517295	1409.40002441406
702.114384765465	1408
702.848266756195	1407.19995117188
703.582057497421	1392.19995117188
704.315756997074	1394.59997558594
705.049365263089	1394.40002441406
705.782882303399	1406.40002441406
706.516308125936	1396.59997558594
707.249642738626	1406.80004882813
707.982886149403	1398.80004882813
708.716038366204	1403.19995117188
709.449099396949	1389.80004882813
710.182069249577	1372.19995117188
710.914947932009	1356.40002441406
711.647735452181	1352.80004882813
712.380431818022	1362.40002441406
713.113037037454	1374.19995117188
713.845551118411	1375.40002441406
714.577974068818	1383.59997558594
715.310305896604	1379
716.042546609694	1387.40002441406
716.774696216013	1395.59997558594
717.506754723493	1388
718.238722140053	1390.40002441406
718.970598473624	1395.59997558594
719.702383732127	1395.80004882813
720.43407792349	1390.19995117188
721.165681055634	1390.40002441406
721.897193136486	1395.80004882813
722.628614173966	1404
723.359944175997	1399
724.091183150505	1409.40002441406
724.822331105412	1392.40002441406
725.553388048638	1391.19995117188
726.284353988106	1395.40002441406
727.015228931734	1390.80004882813
727.746012887449	1391.40002441406
728.476705863162	1396.59997558594
729.207307866803	1403
729.937818906289	1393
730.668238989535	1387.80004882813
731.398568124459	1386.19995117188
732.128806318986	1384.80004882813
732.858953581034	1391
733.589009918514	1396.40002441406
734.318975339348	1402.19995117188
735.048849851452	1393.80004882813
735.778633462744	1386.40002441406
736.508326181137	1393.40002441406
737.237928014549	1386.59997558594
737.967438970897	1398.80004882813
738.696859058095	1400.80004882813
739.426188284054	1392.59997558594
740.155426656692	1400.80004882813
740.884574183922	1395.40002441406
741.613630873659	1399.19995117188
742.342596733815	1394.59997558594
743.071471772302	1398
743.800255997034	1389.80004882813
744.528949415921	1398
745.257552036877	1387.19995117188
745.986063867811	1391.80004882813
746.714484916638	1408
747.442815191261	1397
748.171054699597	1397.80004882813
748.899203449554	1403.19995117188
749.627261449039	1394
750.355228705966	1396.40002441406
751.083105228239	1409.19995117188
751.810891023765	1409
752.538586100459	1401.80004882813
753.266190466218	1399.40002441406
753.99370412896	1405
754.721127096582	1406.80004882813
755.448459377	1411.19995117188
756.175700978114	1395.80004882813
756.902851907828	1382.40002441406
757.629912174055	1393.59997558594
758.356881784688	1388.80004882813
759.083760747639	1389.80004882813
759.810549070817	1398.19995117188
760.537246762113	1390.40002441406
761.263853829442	1395.80004882813
761.990370280698	1403.80004882813
762.716796123791	1395.59997558594
763.443131366618	1410
764.169376017082	1422.80004882813
764.895530083085	1417
765.621593572527	1414.59997558594
766.347566493312	1423.19995117188
767.073448853336	1441.40002441406
767.799240660502	1428
768.524941922707	1442.80004882813
769.250552647854	1456.19995117188
769.976072843836	1434.19995117188
770.701502518551	1438
771.426841679905	1452.59997558594
772.152090335793	1447.80004882813
772.877248494107	1446.40002441406
773.602316162747	1456.80004882813
774.327293349609	1471.19995117188
775.052180062592	1466.40002441406
775.776976309589	1470.80004882813
776.501682098496	1455
777.226297437206	1449.19995117188
777.950822333616	1464.19995117188
778.675256795621	1458.19995117188
779.399600831111	1458.80004882813
780.123854447983	1455.19995117188
780.84801765413	1451.40002441406
781.572090457441	1457.40002441406
782.296072865811	1449.59997558594
783.019964887131	1456.40002441406
783.743766529297	1442.80004882813
784.467477800194	1437.19995117188
785.191098707719	1433.40002441406
785.914629259756	1426.80004882813
786.638069464194	1428.80004882813
787.361419328932	1419.40002441406
788.084678861852	1398.19995117188
788.807848070845	1399.80004882813
789.530926963798	1401.59997558594
790.253915548602	1399.80004882813
790.976813833144	1395.40002441406
791.699621825307	1397.40002441406
792.422339532986	1407.59997558594
793.144966964061	1391.19995117188
793.86750412642	1405.19995117188
794.589951027946	1407.19995117188
795.312307676536	1407.19995117188
796.03457408006	1406.59997558594
796.756750246417	1407.59997558594
797.478836183477	1416
798.200831899137	1412
798.92273740127	1407.59997558594
799.644552697769	1413
800.36627779651	1408
801.087912705374	1406.59997558594
801.809457432251	1403.59997558594
802.530911985017	1407.59997558594
803.252276371558	1402.59997558594
803.973550599748	1405.19995117188
804.694734677472	1405.40002441406
805.415828612611	1414.80004882813
806.136832413045	1417.19995117188
806.857746086646	1412.40002441406
807.578569641305	1426.80004882813
808.299303084892	1408.19995117188
809.019946425289	1402.19995117188
809.740499670372	1404.19995117188
810.460962828022	1405.40002441406
811.181335906114	1399.40002441406
811.901618912524	1407
812.621811855131	1406.59997558594
813.341914741809	1401.80004882813
814.061927580433	1410.40002441406
814.781850378881	1407.19995117188
815.501683145025	1412.40002441406
816.221425886743	1412.80004882813
816.941078611903	1412.19995117188
817.660641328387	1409.80004882813
818.380114044065	1405.40002441406
819.099496766808	1396.19995117188
819.818789504492	1406.19995117188
820.53799226499	1396
821.257105056168	1401.59997558594
821.976127885904	1406
822.695060762064	1404.40002441406
823.413903692525	1415.80004882813
824.132656685151	1420.80004882813
824.851319747817	1420.80004882813
825.569892888388	1423.59997558594
826.288376114739	1428.40002441406
827.006769434737	1436.40002441406
827.725072856249	1418.40002441406
828.443286387142	1416.59997558594
829.161410035285	1403.19995117188
829.87944380855	1398.59997558594
830.597387714798	1391.19995117188
831.315241761898	1400.80004882813
832.033005957715	1398
832.750680310119	1404.19995117188
833.468264826969	1402.59997558594
834.18575951614	1400
834.903164385486	1408
835.620479442878	1415.40002441406
836.337704696181	1413.40002441406
837.054840153255	1419
837.771885821962	1406
838.488841710172	1405.80004882813
839.20570782574	1388
839.922484176531	1391
840.639170770409	1391.59997558594
841.355767615231	1393.40002441406
842.072274718864	1390.80004882813
842.788692089164	1402.40002441406
843.505019733993	1402.19995117188
844.221257661209	1408.19995117188
844.937405878676	1406.80004882813
845.65346439425	1393.19995117188
846.369433215789	1394.59997558594
847.085312351156	1384.40002441406
847.801101808205	1406.40002441406
848.516801594793	1387.80004882813
849.232411718781	1380.40002441406
849.947932188021	1384.59997558594
850.663363010376	1391.59997558594
851.378704193698	1408.80004882813
852.093955745842	1414.59997558594
852.809117674669	1419
853.524189988028	1416.40002441406
854.239172693778	1412
854.954065799768	1400.59997558594
855.668869313857	1384.19995117188
856.383583243899	1389.80004882813
857.098207597743	1390.40002441406
857.812742383246	1389.19995117188
858.527187608255	1385.80004882813
859.241543280628	1398.80004882813
859.955809408218	1412.80004882813
860.669985998868	1422.80004882813
861.384073060437	1419
862.098070600772	1419.40002441406
862.811978627724	1422.40002441406
863.52579714914	1414.59997558594
864.239526172873	1401.40002441406
864.953165706776	1395.59997558594
865.666715758687	1393.80004882813
866.380176336464	1397.40002441406
867.093547447951	1377.19995117188
867.806829100996	1390
868.520021303444	1390.40002441406
869.233124063149	1392.80004882813
869.94613738795	1391.59997558594
870.659061285693	1385.40002441406
871.37189576423	1381.80004882813
872.084640831403	1409
872.797296495057	1407.80004882813
873.509862763039	1405.59997558594
874.22233964319	1406.80004882813
874.934727143353	1396.40002441406
875.647025271374	1400.59997558594
876.359234035097	1414.59997558594
877.071353442361	1390.59997558594
877.783383501015	1403.59997558594
878.495324218895	1406.40002441406
879.207175603844	1403.80004882813
879.918937663705	1407.59997558594
880.630610406318	1413
881.342193839524	1407
882.053687971161	1407.59997558594
882.765092809069	1404.40002441406
883.476408361091	1408.19995117188
884.187634635066	1408.19995117188
884.898771638828	1404
885.609819380221	1392.59997558594
886.320777867076	1392.80004882813
887.031647107236	1403.19995117188
887.742427108536	1402.59997558594
888.453117878816	1388.59997558594
889.16371942591	1401.19995117188
889.874231757652	1408.19995117188
890.584654881883	1400.80004882813
891.294988806434	1408
892.005233539141	1398.40002441406
892.715389087837	1401.80004882813
893.42545546036	1410.59997558594
894.135432664543	1411.80004882813
894.845320708216	1414
895.555119599216	1411
896.264829345375	1419
896.974449954526	1420.40002441406
897.683981434496	1430.59997558594
898.393423793125	1442
899.102777038235	1444
899.812041177664	1421
900.521216219239	1411.59997558594
901.230302170793	1415
901.939299040155	1410.80004882813
902.64820683515	1406
903.357025563612	1403.80004882813
904.065755233368	1403
904.774395852247	1408.59997558594
905.482947428076	1409.19995117188
906.191409968682	1394.59997558594
906.899783481897	1407.80004882813
907.608067975538	1416.40002441406
908.316263457443	1414.40002441406
909.02436993543	1399.59997558594
909.732387417327	1397
910.440315910959	1398.59997558594
911.148155424154	1408.59997558594
911.855905964731	1402.19995117188
912.563567540521	1405.40002441406
913.271140159339	1396.19995117188
913.978623829017	1393.40002441406
914.686018557374	1388
915.393324352237	1401.19995117188
916.100541221421	1396.19995117188
916.807669172752	1405.19995117188
917.514708214054	1395.80004882813
918.221658353142	1386.59997558594
918.928519597843	1384
919.635291955976	1384.59997558594
920.341975435358	1387.19995117188
921.048570043813	1391.40002441406
921.75507578916	1409.80004882813
922.461492679212	1418
923.167820721795	1411
923.874059924726	1416.19995117188
924.58021029582	1412.59997558594
925.286271842893	1418.40002441406
925.992244573769	1417.59997558594
926.698128496262	1408
927.403923618184	1407.59997558594
928.109629947355	1410.80004882813
928.815247491593	1409
929.520776258708	1402.40002441406
930.226216256519	1412.40002441406
930.931567492841	1410.59997558594
931.636829975482	1404.80004882813
932.342003712263	1406.80004882813
933.047088710995	1408.19995117188
933.752084979491	1417
934.456992525564	1415.19995117188
935.161811357024	1398
935.866541481688	1408.80004882813
936.571182907363	1396.59997558594
937.275735641861	1396.80004882813
937.980199692995	1385.59997558594
938.684575068572	1387.59997558594
939.388861776411	1384
940.093059824311	1377
940.797169220085	1385.59997558594
941.501189971544	1399.19995117188
942.205122086495	1396
942.908965572751	1394.40002441406
943.612720438111	1387.80004882813
944.316386690391	1387.80004882813
945.019964337391	1385.19995117188
945.723453386924	1389.40002441406
946.426853846795	1403.80004882813
947.130165724808	1395
947.83338902877	1398.80004882813
948.536523766488	1399
949.239569945764	1391
949.942527574402	1386.19995117188
950.64539666021	1394.80004882813
951.348177210993	1377.80004882813
952.050869234548	1365
952.753472738683	1361
953.455987731199	1369.59997558594
954.158414219898	1381.80004882813
954.860752212587	1374.80004882813
955.563001717061	1359.80004882813
956.265162741124	1367
956.967235292576	1373.59997558594
957.669219379224	1373.59997558594
958.371115008857	1394.40002441406
959.072922189283	1398.59997558594
959.774640928301	1375.80004882813
960.476271233708	1362.59997558594
961.177813113301	1372.80004882813
961.879266574882	1369.40002441406
962.580631626248	1369.59997558594
963.281908275194	1381.59997558594
963.98309652952	1378.80004882813
964.684196397022	1377.19995117188
965.3852078855	1374.80004882813
966.086131002745	1390.19995117188
966.786965756555	1378.80004882813
967.487712154726	1386.59997558594
968.188370205055	1385.40002441406
968.888939915331	1382
969.589421293352	1391.59997558594
970.289814346909	1395.19995117188
970.990119083801	1399.40002441406
971.690335511819	1386.80004882813
972.39046363875	1380.80004882813
973.090503472398	1384.80004882813
973.790455020545	1371.19995117188
974.490318290987	1358.40002441406
975.190093291516	1362.59997558594
975.889780029923	1364.40002441406
976.589378513998	1358
977.288888751527	1380.80004882813
977.988310750308	1383.40002441406
978.687644518122	1390
979.386890062767	1383.40002441406
980.086047392025	1385.19995117188
980.785116513689	1375
981.484097435542	1368.80004882813
982.182990165377	1374.59997558594
982.88179471098	1372.40002441406
983.580511080137	1377
984.279139280632	1361.59997558594
984.977679320253	1357.59997558594
985.67613120679	1361
986.374494948027	1364.19995117188
987.072770551745	1386.80004882813
987.770958025731	1373.80004882813
988.469057377772	1371.59997558594
989.167068615649	1370
989.864991747145	1378.80004882813
990.562826780047	1370.40002441406
991.260573722134	1374.80004882813
991.958232581195	1372.80004882813
992.655803365003	1376.40002441406
993.353286081346	1384.59997558594
994.050680738006	1392.40002441406
994.74798734276	1384.59997558594
995.44520590339	1389.80004882813
996.142336427681	1386
996.839378923407	1384.40002441406
997.536333398348	1385.19995117188
998.233199860289	1368
998.929978317004	1358
999.626668776274	1349
1000.32327124587	1355.80004882813
1001.01978573359	1363
1001.71621224718	1368.80004882813
1002.41255079445	1375.80004882813
1003.10880138315	1384.80004882813
1003.80496402107	1382.19995117188
1004.50103871599	1380.19995117188
1005.19702547567	1397.40002441406
1005.8929243079	1390
1006.58873522045	1386.80004882813
1007.2844582211	1387.19995117188
1007.98009331761	1388.59997558594
1008.67564051776	1395.80004882813
1009.37109982933	1399.19995117188
1010.06647126009	1383.59997558594
1010.7617548178	1374.40002441406
1011.45695051026	1385.40002441406
1012.15205834522	1376.40002441406
1012.84707833045	1380.19995117188
1013.54201047373	1391
1014.23685478284	1392.59997558594
1014.93161126553	1388.59997558594
1015.62627992959	1382.40002441406
1016.32086078277	1383.19995117188
1017.01535383285	1383.59997558594
1017.70975908761	1389.59997558594
1018.40407655479	1389.80004882813
1019.09830624219	1384.40002441406
1019.79244815755	1390.19995117188
1020.48650230866	1376.80004882813
1021.18046870328	1386.19995117188
1021.87434734917	1381.19995117188
1022.56813825411	1383.40002441406
1023.26184142584	1386.40002441406
1023.95545687216	1395.80004882813
1024.64898460082	1388.40002441406
1025.34242461957	1389.59997558594
1026.0357769362	1382.40002441406
1026.72904155846	1390.59997558594
1027.42221849412	1379
1028.11530775094	1388.19995117188
1028.80830933668	1386
1029.50122325911	1395.80004882813
1030.19404952599	1400.40002441406
1030.88678814508	1390.19995117188
1031.57943912414	1380.19995117188
1032.27200247093	1378.80004882813
1032.96447819323	1375
1033.65686629878	1372.59997558594
1034.34916679534	1375
1035.04137969068	1372.59997558594
1035.73350499256	1380.19995117188
1036.42554270874	1388.59997558594
1037.11749284697	1369.19995117188
1037.80935541501	1381
1038.50113042062	1373.19995117188
1039.19281787156	1389.80004882813
1039.88441777559	1391
1040.57593014046	1387
1041.26735497393	1384.19995117188
1041.95869228376	1386.80004882813
1042.6499420777	1384.59997558594
1043.3411043635	1386.59997558594
1044.03217914893	1379.59997558594
1044.72316644174	1378.80004882813
1045.41406624968	1387.19995117188
1046.1048785805	1396
1046.79560344197	1396.80004882813
1047.48624084182	1379.80004882813
1048.17679078783	1387
1048.86725328774	1390
1049.55762834929	1381.40002441406
1050.24791598025	1367
1050.93811618837	1376.40002441406
1051.62822898139	1375.40002441406
1052.31825436707	1372.19995117188
1053.00819235315	1372.80004882813
1053.6980429474	1374.59997558594
1054.38780615755	1384.19995117188
1055.07748199136	1382.19995117188
1055.76707045658	1368
1056.45657156095	1364.59997558594
1057.14598531222	1357.19995117188
1057.83531171814	1349.80004882813
1058.52455078646	1356.59997558594
1059.21370252494	1364
1059.90276694129	1371.59997558594
1060.5917440433	1368.80004882813
1061.28063383868	1364.40002441406
1061.9694363352	1357.40002441406
1062.65815154059	1390.59997558594
1063.34677946261	1392
1064.03532010899	1387.80004882813
1064.72377348748	1374.19995117188
1065.41213960583	1370.40002441406
1066.10041847177	1363.19995117188
1066.78861009306	1366.59997558594
1067.47671447743	1389
1068.16473163263	1370
1068.85266156639	1359.59997558594
1069.54050428647	1378.40002441406
1070.2282598006	1379.59997558594
1070.91592811652	1356
1071.60350924198	1371
1072.29100318471	1371
1072.97840995245	1370.19995117188
1073.66572955295	1360.80004882813
1074.35296199394	1362.40002441406
1075.04010728316	1372.19995117188
1075.72716542836	1373.19995117188
1076.41413643726	1372.19995117188
1077.10102031761	1362.19995117188
1077.78781707715	1360.80004882813
1078.4745267236	1356.19995117188
1079.16114926471	1364.59997558594
1079.84768470822	1368.19995117188
1080.53413306185	1361.59997558594
1081.22049433336	1349
1081.90676853046	1369
1082.5929556609	1372
1083.27905573241	1374.19995117188
1083.96506875272	1366
1084.65099472957	1362.40002441406
1085.3368336707	1359.59997558594
1086.02258558383	1374.40002441406
1086.70825047669	1372.40002441406
1087.39382835703	1371.59997558594
1088.07931923257	1367
1088.76472311104	1367.80004882813
1089.45004000018	1363.59997558594
1090.13526990771	1355.19995117188
1090.82041284137	1350.59997558594
1091.50546880889	1350
1092.19043781799	1349.80004882813
1092.87531987642	1350
1093.56011499188	1355.19995117188
1094.24482317212	1348.40002441406
1094.92944442486	1340.40002441406
1095.61397875783	1351.19995117188
1096.29842617876	1355.19995117188
1096.98278669537	1358
1097.6670603154	1351.80004882813
1098.35124704656	1347.40002441406
1099.03534689659	1355
1099.71935987322	1361
1100.40328598416	1367.40002441406
1101.08712523713	1365.40002441406
1101.77087763988	1374
1102.45454320012	1363
1103.13812192557	1366.19995117188
1103.82161382396	1368.59997558594
1104.50501890301	1368.40002441406
1105.18833717045	1375.80004882813
1105.87156863399	1372.19995117188
1106.55471330137	1376.59997558594
1107.2377711803	1383.19995117188
1107.9207422785	1377.80004882813
1108.60362660369	1379
1109.2864241636	1373
1109.96913496594	1382.19995117188
1110.65175901844	1371.40002441406
1111.33429632882	1373
1112.01674690479	1350
1112.69911075408	1354.59997558594
1113.38138788439	1355.80004882813
1114.06357830346	1366.19995117188
1114.745682019	1368.19995117188
1115.42769903872	1384.40002441406
1116.10962937035	1381
1116.7914730216	1375.59997558594
1117.47323000018	1379.59997558594
1118.15490031382	1370.59997558594
1118.83648397022	1364.40002441406
1119.51798097712	1348.40002441406
1120.1993913422	1369.40002441406
1120.88071507321	1357.19995117188
1121.56195217784	1352.19995117188
1122.24310266381	1360.80004882813
1122.92416653884	1362.80004882813
1123.60514381064	1374
1124.28603448692	1363.80004882813
1124.9668385754	1370.80004882813
1125.64755608378	1375.40002441406
1126.32818701978	1378.40002441406
1127.00873139111	1362
1127.68918920548	1362.40002441406
1128.3695604706	1376.80004882813
1129.04984519419	1372.59997558594
1129.73004338394	1370.19995117188
1130.41015504758	1372.59997558594
1131.09018019281	1372
1131.77011882734	1368.59997558594
1132.44997095888	1374.59997558594
1133.12973659514	1361.40002441406
1133.80941574381	1348.40002441406
1134.48900841263	1351.19995117188
1135.16851460927	1349.19995117188
1135.84793434147	1342.59997558594
1136.52726761692	1349.80004882813
1137.20651444333	1345
1137.8856748284	1349
1138.56474877984	1349.80004882813
1139.24373630536	1355.19995117188
1139.92263741265	1355.19995117188
1140.60145210943	1376.59997558594
1141.28018040339	1368
1141.95882230225	1364.80004882813
1142.6373778137	1361.80004882813
1143.31584694545	1358
1143.99422970519	1355
1144.67252610064	1354
1145.35073613949	1349.19995117188
1146.02885982944	1357.40002441406
1146.7068971782	1352.40002441406
1147.38484819347	1347.59997558594
1148.06271288294	1354.40002441406
1148.74049125432	1362.40002441406
1149.41818331531	1350.80004882813
1150.0957890736	1361.80004882813
1150.77330853689	1342.59997558594
1151.45074171289	1347
1152.12808860928	1331.80004882813
1152.80534923378	1335
1153.48252359407	1327.59997558594
1154.15961169786	1325.40002441406
1154.83661355283	1330.19995117188
1155.51352916669	1335.40002441406
1156.19035854713	1343.19995117188
1156.86710170185	1337.59997558594
1157.54375863855	1345.59997558594
1158.22032936491	1336.19995117188
1158.89681388863	1351
1159.57321221741	1340.19995117188
1160.24952435894	1354.59997558594
1160.92575032092	1359.40002441406
1161.60189011103	1361.59997558594
1162.27794373697	1359.40002441406
1162.95391120644	1367.19995117188
1163.62979252712	1370
1164.3055877067	1364.59997558594
1164.98129675288	1365
1165.65691967336	1358
1166.33245647581	1348.80004882813
1167.00790716792	1354.59997558594
1167.6832717574	1357.19995117188
1168.35855025193	1355.40002441406
1169.0337426592	1333.59997558594
1169.70884898689	1347.80004882813
1170.3838692427	1335.19995117188
1171.05880343431	1346.40002441406
1171.73365156941	1356.80004882813
1172.40841365569	1340.59997558594
1173.08308970083	1345.19995117188
1173.75767971253	1342.19995117188
1174.43218369847	1340
1175.10660166633	1332.19995117188
1175.7809336238	1325.40002441406
1176.45517957857	1351.19995117188
1177.12933953832	1341
1177.80341351073	1340.40002441406
1178.47740150349	1357
1179.15130352429	1354.59997558594
1179.8251195808	1362.40002441406
1180.49884968071	1362.80004882813
1181.1724938317	1360.80004882813
1181.84605204145	1348.40002441406
1182.51952431766	1361.80004882813
1183.19291066799	1371.80004882813
1183.86621110013	1359.59997558594
1184.53942562176	1355.80004882813
1185.21255424057	1347.80004882813
1185.88559696422	1364.19995117188
1186.55855380041	1365.19995117188
1187.2314247568	1348
1187.90420984109	1357.80004882813
1188.57690906095	1371
1189.24952242405	1374.40002441406
1189.92204993808	1360.19995117188
1190.59449161071	1377
1191.26684744962	1372.80004882813
1191.93911746249	1376.40002441406
1192.61130165699	1372.40002441406
1193.28340004081	1373.40002441406
1193.95541262161	1370.19995117188
1194.62733940707	1373.19995117188
1195.29918040487	1366.59997558594
1195.97093562269	1380.59997558594
1196.64260506819	1370.19995117188
1197.31418874905	1363.19995117188
1197.98568667295	1366.40002441406
1198.65709884755	1368.80004882813
1199.32842528053	1360.40002441406
1199.99966597957	1360.59997558594
1200.67082095234	1353
1201.3418902065	1355
1202.01287374974	1370.80004882813
1202.68377158971	1361.80004882813
1203.3545837341	1353.19995117188
1204.02531019057	1345.80004882813
1204.6959509668	1361.80004882813
1205.36650607045	1347.59997558594
1206.03697550919	1344.59997558594
1206.70735929069	1348
1207.37765742263	1353.80004882813
1208.04786991266	1346.80004882813
1208.71799676846	1358.40002441406
1209.38803799769	1351
1210.05799360803	1351.80004882813
1210.72786360714	1344
1211.39764800268	1357.59997558594
1212.06734680233	1362.19995117188
1212.73696001375	1350
1213.4064876446	1345.40002441406
1214.07592970255	1347.80004882813
1214.74528619526	1341.40002441406
1215.4145571304	1331
1216.08374251564	1339.40002441406
1216.75284235863	1340.40002441406
1217.42185666704	1347.19995117188
1218.09078544854	1351.19995117188
1218.75962871078	1351.40002441406
1219.42838646143	1330.59997558594
1220.09705870816	1342
1220.76564545861	1343.19995117188
1221.43414672046	1347.80004882813
1222.10256250136	1346
1222.77089280898	1341.40002441406
1223.43913765098	1335.40002441406
1224.107297035	1330
1224.77537096873	1338
1225.44335945981	1339.40002441406
1226.1112625159	1336
1226.77908014467	1337.19995117188
1227.44681235376	1329.59997558594
1228.11445915085	1337.40002441406
1228.78202054357	1336.80004882813
1229.44949653961	1327.80004882813
1230.11688714659	1321.80004882813
1230.7841923722	1331.40002441406
1231.45141222407	1347.80004882813
1232.11854670988	1340.19995117188
1232.78559583726	1337.80004882813
1233.45255961388	1343.59997558594
1234.1194380474	1345.19995117188
1234.78623114546	1348.80004882813
1235.45293891572	1353.19995117188
1236.11956136583	1341.80004882813
1236.78609850345	1351.19995117188
1237.45255033623	1348
1238.11891687182	1353.40002441406
1238.78519811788	1354.19995117188
1239.45139408205	1359.59997558594
1240.11750477198	1351.40002441406
1240.78353019534	1325
1241.44947035976	1343.59997558594
1242.11532527291	1329.40002441406
1242.78109494242	1332.19995117188
1243.44677937595	1325.40002441406
1244.11237858115	1321.40002441406
1244.77789256567	1328.59997558594
1245.44332133715	1342.80004882813
1246.10866490325	1337
1246.7739232716	1336.80004882813
1247.43909644987	1339.19995117188
1248.10418444569	1336
1248.76918726671	1337
1249.43410492059	1334.19995117188
1250.09893741496	1337.80004882813
1250.76368475747	1331.59997558594
1251.42834695576	1327
1252.09292401749	1333.59997558594
1252.75741595029	1321.40002441406
1253.42182276182	1338.59997558594
1254.08614445971	1335.59997558594
1254.75038105161	1338.19995117188
1255.41453254515	1340.19995117188
1256.07859894799	1323
1256.74258026777	1318.40002441406
1257.40647651213	1326.80004882813
1258.0702876887	1318
1258.73401380514	1316.59997558594
1259.39765486908	1323.19995117188
1260.06121088817	1328.80004882813
1260.72468187004	1336.40002441406
1261.38806782233	1348.19995117188
1262.05136875269	1344.59997558594
1262.71458466875	1321.80004882813
1263.37771557815	1337.59997558594
1264.04076148854	1331
1264.70372240753	1327.80004882813
1265.3665983428	1324.59997558594
1266.02938930195	1327.80004882813
1266.69209529263	1324.59997558594
1267.35471632249	1331.59997558594
1268.01725239914	1336.59997558594
1268.67970353024	1326.80004882813
1269.34206972342	1320.19995117188
1270.00435098631	1315.19995117188
1270.66654732655	1319.80004882813
1271.32865875177	1330.80004882813
1271.9906852696	1334.40002441406
1272.65262688768	1334.19995117188
1273.31448361365	1333.40002441406
1273.97625545514	1330.80004882813
1274.63794241978	1322.80004882813
1275.2995445152	1315.19995117188
1275.96106174903	1335.19995117188
1276.62249412892	1334
1277.28384166248	1332.40002441406
1277.94510435735	1316
1278.60628222116	1318.19995117188
1279.26737526155	1318
1279.92838348613	1324.80004882813
1280.58930690255	1313.80004882813
1281.25014551842	1316.80004882813
1281.91089934139	1321.40002441406
1282.57156837907	1336
1283.2321526391	1341.40002441406
1283.89265212911	1346
1284.55306685671	1329.40002441406
1285.21339682955	1311.19995117188
1285.87364205525	1308.40002441406
1286.53380254142	1297
1287.19387829571	1294.19995117188
1287.85386932573	1300.19995117188
1288.51377563911	1309.19995117188
1289.17359724348	1318.80004882813
1289.83333414646	1320.59997558594
1290.49298635567	1323.19995117188
1291.15255387874	1321.40002441406
1291.8120367233	1328.59997558594
1292.47143489696	1324.59997558594
1293.13074840736	1320.19995117188
1293.7899772621	1317
1294.44912146882	1338.80004882813
1295.10818103513	1330.19995117188
1295.76715596866	1328.40002441406
1296.42604627704	1311
1297.08485196787	1316.59997558594
1297.74357304878	1320.19995117188
1298.4022095274	1309.59997558594
1299.06076141134	1323.59997558594
1299.71922870821	1315.59997558594
1300.37761142565	1328.80004882813
1301.03590957126	1315.80004882813
1301.69412315268	1318.40002441406
1302.3522521775	1321.19995117188
1303.01029665336	1327.80004882813
1303.66825658787	1320.80004882813
1304.32613198865	1320.40002441406
1304.98392286332	1317.80004882813
1305.64162921948	1315.40002441406
1306.29925106476	1310
1306.95678840677	1328.40002441406
1307.61424125312	1323.40002441406
1308.27160961145	1325.19995117188
1308.92889348934	1323.59997558594
1309.58609289443	1320.40002441406
1310.24320783432	1313.19995117188
1310.90023831664	1309.80004882813
1311.55718434898	1299.80004882813
1312.21404593897	1300
1312.87082309421	1299.40002441406
1313.52751582233	1295.19995117188
1314.18412413092	1303
1314.84064802761	1313.40002441406
1315.49708752	1316.40002441406
1316.1534426157	1321
1316.80971332233	1326
1317.46589964749	1323.40002441406
1318.1220015988	1326
1318.77801918386	1339.80004882813
1319.43395241028	1327.40002441406
1320.08980128567	1328
1320.74556581764	1335.19995117188
1321.4012460138	1332.59997558594
1322.05684188176	1328.19995117188
1322.71235342911	1330.80004882813
1323.36778066347	1330.40002441406
1324.02312359245	1334.80004882813
1324.67838222365	1341.59997558594
1325.33355656468	1331.80004882813
1325.98864662314	1326
1326.64365240663	1333.59997558594
1327.29857392277	1332.80004882813
1327.95341117915	1317.59997558594
1328.60816418339	1316
1329.26283294308	1320.19995117188
1329.91741746582	1322.40002441406
1330.57191775923	1323.19995117188
1331.2263338309	1324.19995117188
1331.88066568843	1340.80004882813
1332.53491333943	1331.80004882813
1333.1890767915	1330.80004882813
1333.84315605224	1328.40002441406
1334.49715112925	1316.59997558594
1335.15106203013	1314.59997558594
1335.80488876249	1317.80004882813
1336.45863133391	1324
1337.112289752	1321.40002441406
1337.76586402437	1330.40002441406
1338.4193541586	1337.40002441406
1339.0727601623	1341.19995117188
1339.72608204306	1341.40002441406
1340.37931980849	1348.59997558594
1341.03247346617	1328.59997558594
1341.68554302372	1333.59997558594
1342.33852848871	1340.19995117188
1342.99142986876	1330.19995117188
1343.64424717145	1332.40002441406
1344.29698040438	1339.40002441406
1344.94962957515	1342
1345.60219469135	1351.80004882813
1346.25467576058	1346.40002441406
1346.90707279042	1348.40002441406
1347.55938578848	1347.40002441406
1348.21161476235	1334
1348.86375971962	1327.40002441406
1349.51582066787	1330.19995117188
1350.16779761472	1333
1350.81969056774	1333.40002441406
1351.47149953453	1328.19995117188
1352.12322452269	1321.59997558594
1352.77486553979	1328.80004882813
1353.42642259344	1339.19995117188
1354.07789569122	1329
1354.72928484072	1347.40002441406
1355.38059004953	1364.19995117188
1356.03181132525	1361.59997558594
1356.68294867545	1369.19995117188
1357.33400210773	1365.19995117188
1357.98497162968	1362.59997558594
1358.63585724889	1356.80004882813
1359.28665897294	1360.80004882813
1359.93737680942	1364.40002441406
1360.58801076591	1360.40002441406
1361.23856085001	1369.59997558594
1361.88902706929	1374
1362.53940943135	1376.19995117188
1363.18970794377	1382.80004882813
1363.83992261413	1371
1364.49005345003	1383.19995117188
1365.14010045904	1372.19995117188
1365.79006364874	1371
1366.43994302673	1377.40002441406
1367.08973860058	1371.40002441406
1367.73945037788	1376.80004882813
1368.38907836621	1365.59997558594
1369.03862257315	1356.40002441406
1369.68808300629	1360.40002441406
1370.3374596732	1358.40002441406
1370.98675258148	1353.80004882813
1371.63596173868	1372.40002441406
1372.28508715241	1357.59997558594
1372.93412883024	1350.80004882813
1373.58308677974	1338.59997558594
1374.2319610085	1339.80004882813
1374.8807515241	1322
1375.52945833412	1333.80004882813
1376.17808144612	1320.19995117188
1376.82662086771	1319.59997558594
1377.47507660644	1322
1378.12344866989	1317.19995117188
1378.77173706565	1314.59997558594
1379.41994180129	1318.59997558594
1380.06806288439	1327.19995117188
1380.71610032252	1328.59997558594
1381.36405412326	1324.59997558594
1382.01192429419	1328.40002441406
1382.65971084287	1316.40002441406
1383.30741377688	1323.59997558594
1383.95503310381	1317.80004882813
1384.60256883121	1315.19995117188
1385.25002096667	1324.59997558594
1385.89738951775	1316.40002441406
1386.54467449204	1305.19995117188
1387.19187589709	1294
1387.8389937405	1303.59997558594
1388.48602802982	1306
1389.13297877262	1302.80004882813
1389.77984597649	1311
1390.42662964899	1312.59997558594
1391.07332979768	1319.40002441406
1391.71994643015	1308.80004882813
1392.36647955395	1307.40002441406
1393.01292917667	1301.19995117188
1393.65929530586	1295
1394.3055779491	1305.40002441406
1394.95177711395	1293.80004882813
1395.59789280799	1297.80004882813
1396.24392503877	1302.40002441406
1396.88987381387	1305.40002441406
1397.53573914086	1305.40002441406
1398.1815210273	1310
1398.82721948075	1316.19995117188
1399.47283450878	1317.80004882813
1400.11836611897	1315.40002441406
1400.76381431886	1304.59997558594
1401.40917911603	1295.80004882813
1402.05446051805	1281.59997558594
1402.69965853247	1282.59997558594
1403.34477316686	1279
1403.98980442878	1281.59997558594
1404.6347523258	1292
1405.27961686548	1277.80004882813
1405.92439805538	1288.59997558594
1406.56909590306	1278.80004882813
1407.21371041608	1298.59997558594
1407.85824160202	1304.40002441406
1408.50268946841	1287
1409.14705402284	1297.19995117188
1409.79133527285	1293.19995117188
1410.43553322601	1282
1411.07964788987	1302.59997558594
1411.723679272	1289.59997558594
1412.36762737996	1281.19995117188
1413.01149222129	1283.80004882813
1413.65527380357	1280
1414.29897213435	1274
1414.94258722118	1282.19995117188
1415.58611907163	1269.40002441406
1416.22956769325	1272.59997558594
1416.87293309359	1275
1417.51621528021	1264.19995117188
1418.15941426067	1282
1418.80253004253	1293.59997558594
1419.44556263333	1310.59997558594
1420.08851204063	1305.19995117188
1420.731378272	1308.40002441406
1421.37416133497	1307.80004882813
1422.0168612371	1315.59997558594
1422.65947798596	1315.40002441406
1423.30201158908	1316
1423.94446205403	1312.59997558594
1424.58682938835	1301.80004882813
1425.2291135996	1299.19995117188
1425.87131469532	1308.59997558594
1426.51343268308	1304.19995117188
1427.15546757042	1304.19995117188
1427.79741936488	1303.59997558594
1428.43928807403	1293.40002441406
1429.0810737054	1279.59997558594
1429.72277626656	1285.40002441406
1430.36439576504	1281
1431.00593220841	1285.59997558594
1431.64738560419	1286.59997558594
1432.28875595995	1291.80004882813
1432.93004328324	1294.40002441406
1433.57124758159	1290.80004882813
1434.21236886255	1290.59997558594
1434.85340713368	1287.59997558594
1435.49436240252	1288.80004882813
1436.13523467661	1293.80004882813
1436.77602396349	1281.19995117188
1437.41673027073	1294.59997558594
1438.05735360585	1282.59997558594
1438.69789397641	1285.40002441406
1439.33835138994	1276
1439.978725854	1275
1440.61901737612	1277
1441.25922596385	1279.80004882813
1441.89935162473	1275.80004882813
1442.53939436631	1265.80004882813
1443.17935419612	1261.59997558594
1443.81923112171	1279.59997558594
1444.45902515061	1270.40002441406
1445.09873629038	1284.19995117188
1445.73836454854	1272
1446.37790993265	1286.40002441406
1447.01737245024	1288.59997558594
1447.65675210885	1292.59997558594
1448.29604891602	1297.40002441406
1448.93526287928	1286.40002441406
1449.57439400618	1283.19995117188
1450.21344230426	1284
1450.85240778105	1278.59997558594
1451.49129044409	1283.40002441406
1452.13009030092	1283.59997558594
1452.76880735907	1278.59997558594
1453.40744162608	1275.80004882813
1454.04599310949	1285.19995117188
1454.68446181683	1285.40002441406
1455.32284775564	1295
1455.96115093345	1283.80004882813
1456.5993713578	1293.80004882813
1457.23750903623	1284.80004882813
1457.87556397626	1291.19995117188
1458.51353618543	1288.80004882813
1459.15142567127	1289.59997558594
1459.78923244132	1284.19995117188
1460.42695650311	1295.59997558594
1461.06459786417	1295.40002441406
1461.70215653203	1297.40002441406
1462.33963251423	1289.19995117188
1462.97702581829	1295.19995117188
1463.61433645175	1293.19995117188
1464.25156442214	1287.59997558594
1464.88870973699	1287
1465.52577240382	1285
1466.16275243017	1276
1466.79964982356	1274.80004882813
1467.43646459154	1266.80004882813
1468.07319674161	1276.40002441406
1468.70984628132	1269.59997558594
1469.34641321818	1273.80004882813
1469.98289755974	1286.80004882813
1470.6192993135	1292.40002441406
1471.25561848701	1284.40002441406
1471.89185508779	1276
1472.52800912336	1286.80004882813
1473.16408060124	1283.59997558594
1473.80006952897	1291.40002441406
1474.43597591407	1286
1475.07179976406	1289
1475.70754108647	1273.40002441406
1476.34319988883	1270
1476.97877617865	1272
1477.61426996345	1276.40002441406
1478.24968125077	1287.80004882813
1478.88501004812	1286.40002441406
1479.52025636303	1289.80004882813
1480.15542020302	1287.40002441406
1480.79050157561	1296.59997558594
1481.42550048832	1287
1482.06041694867	1288
1482.69525096418	1289
1483.33000254237	1292
1483.96467169077	1277
1484.59925841689	1281.59997558594
1485.23376272825	1277.40002441406
1485.86818463237	1283
1486.50252413677	1282
1487.13678124896	1277.80004882813
1487.77095597646	1271.80004882813
1488.4050483268	1271.19995117188
1489.03905830749	1269.40002441406
1489.67298592604	1263.80004882813
1490.30683118996	1270.80004882813
1490.9405941068	1273.80004882813
1491.57427468403	1282.40002441406
1492.2078729292	1291.19995117188
1492.84138884981	1291.59997558594
1493.47482245338	1300
1494.10817374742	1299.80004882813
1494.74144273944	1294.80004882813
1495.37462943696	1291
1496.0077338475	1296
1496.64075597856	1287.80004882813
1497.27369583765	1284
1497.9065534323	1280.19995117188
1498.53932877001	1263.80004882813
1499.17202185829	1268
1499.80463270465	1281.40002441406
1500.43716131661	1280.19995117188
1501.06960770167	1282
1501.70197186735	1285.19995117188
1502.33425382116	1281.59997558594
1502.96645357059	1281.80004882813
1503.59857112317	1285.40002441406
1504.23060648641	1297.19995117188
1504.8625596678	1293.80004882813
1505.49443067486	1294.59997558594
1506.1262195151	1300.59997558594
1506.75792619602	1301.40002441406
1507.38955072513	1303
1508.02109310993	1302
1508.65255335794	1291.59997558594
1509.28393147666	1289.80004882813
1509.91522747359	1284.40002441406
1510.54644135624	1293.59997558594
1511.17757313212	1294
1511.80862280872	1293.80004882813
1512.43959039356	1286.19995117188
1513.07047589413	1279.80004882813
1513.70127931795	1286.80004882813
1514.33200067251	1277
1514.96263996531	1270.40002441406
1515.59319720386	1266.59997558594
1516.22367239567	1267.40002441406
1516.85406554822	1272.19995117188
1517.48437666903	1275.40002441406
1518.1146057656	1273.59997558594
1518.74475284542	1280
1519.374817916	1271.80004882813
1520.00480098483	1266
1520.63470205942	1279
1521.26452114726	1265.80004882813
1521.89425825586	1266.19995117188
1522.52391339271	1271.80004882813
1523.15348656531	1281.19995117188
1523.78297778116	1279.59997558594
1524.41238704775	1264
1525.04171437259	1272.40002441406
1525.67095976317	1272.40002441406
1526.30012322699	1264.40002441406
1526.92920477154	1276
1527.55820440432	1269.40002441406
1528.18712213283	1268.59997558594
1528.81595796455	1263.19995117188
1529.44471190699	1258.59997558594
1530.07338396764	1248.80004882813
1530.70197415399	1258.59997558594
1531.33048247353	1259.59997558594
1531.95890893377	1262.59997558594
1532.58725354219	1273.80004882813
1533.21551630629	1293.19995117188
1533.84369723356	1288.59997558594
1534.47179633148	1290.80004882813
1535.09981360757	1293.59997558594
1535.72774906929	1293.80004882813
1536.35560272415	1301.19995117188
1536.98337457963	1289
1537.61106464323	1291.40002441406
1538.23867292243	1294.40002441406
1538.86619942473	1287
1539.49364415762	1277
1540.12100712857	1284.80004882813
1540.74828834509	1278.80004882813
1541.37548781466	1277.40002441406
1542.00260554478	1269.59997558594
1542.62964154291	1268.59997558594
1543.25659581655	1266.40002441406
1543.8834683732	1273.80004882813
1544.51025922034	1266.59997558594
1545.13696836544	1254
1545.76359581601	1260.59997558594
1546.39014157952	1249.80004882813
1547.01660566345	1243.80004882813
1547.64298807531	1247.59997558594
1548.26928882255	1258.80004882813
1548.89550791269	1256.19995117188
1549.52164535318	1260.80004882813
1550.14770115153	1265.40002441406
1550.77367531521	1267.80004882813
1551.39956785171	1258.19995117188
1552.0253787685	1265.19995117188
1552.65110807307	1267.80004882813
1553.2767557729	1260.80004882813
1553.90232187548	1261.19995117188
1554.52780638828	1260.80004882813
1555.15320931879	1255
1555.77853067447	1246.40002441406
1556.40377046282	1249.59997558594
1557.02892869132	1246.59997558594
1557.65400536744	1238.59997558594
1558.27900049866	1257.59997558594
1558.90391409247	1244.80004882813
1559.52874615633	1244.59997558594
1560.15349669773	1266.19995117188
1560.77816572414	1270.80004882813
1561.40275324305	1268.80004882813
1562.02725926192	1265.80004882813
1562.65168378824	1262.40002441406
1563.27602682948	1259.19995117188
1563.90028839311	1257
1564.52446848662	1258.80004882813
1565.14856711748	1269
1565.77258429316	1266
1566.39652002113	1261.59997558594
1567.02037430887	1264.19995117188
1567.64414716387	1263.40002441406
1568.26783859357	1269
1568.89144860547	1258.59997558594
1569.51497720703	1252.40002441406
1570.13842440573	1270
1570.76179020904	1271.40002441406
1571.38507462442	1264.19995117188
1572.00827765936	1260.19995117188
1572.63139932132	1274.59997558594
1573.25443961777	1257
1573.87739855618	1277.80004882813
1574.50027614402	1272.40002441406
1575.12307238877	1274.40002441406
1575.74578729789	1267.80004882813
1576.36842087885	1274.19995117188
1576.99097313912	1270.40002441406
1577.61344408616	1271
1578.23583372745	1254.19995117188
1578.85814207046	1249.19995117188
1579.48036912264	1254.19995117188
1580.10251489147	1264
1580.72457938441	1262
1581.34656260893	1269
1581.9684645725	1266
1582.59028528258	1248.59997558594
1583.21202474663	1257.40002441406
1583.83368297212	1251.19995117188
1584.45525996652	1247.80004882813
1585.07675573728	1241.59997558594
1585.69817029188	1243.59997558594
1586.31950363778	1246.40002441406
1586.94075578243	1242.59997558594
1587.5619267333	1244.19995117188
1588.18301649786	1239.80004882813
1588.80402508357	1238
1589.42495249788	1236.19995117188
1590.04579874826	1232.59997558594
1590.66656384217	1234
1591.28724778707	1222.40002441406
1591.90785059042	1222.59997558594
1592.52837225968	1232.40002441406
1593.14881280232	1225.40002441406
1593.76917222578	1217.40002441406
1594.38945053753	1225.80004882813
1595.00964774502	1225.80004882813
1595.62976385573	1218.59997558594
1596.24979887709	1226.19995117188
1596.86975281657	1214.40002441406
1597.48962568164	1216.19995117188
1598.10941747974	1224.40002441406
1598.72912821832	1230.19995117188
1599.34875790486	1228
1599.9683065468	1233.19995117188
1600.58777415159	1230.19995117188
1601.2071607267	1220.59997558594
1601.82646627958	1215.80004882813
1602.44569081769	1207.40002441406
1603.06483434846	1208.19995117188
1603.68389687937	1196.40002441406
1604.30287841786	1196.19995117188
1604.92177897139	1193.59997558594
1605.54059854741	1199.40002441406
1606.15933715337	1207.80004882813
1606.77799479672	1201.40002441406
1607.39657148492	1208.80004882813
1608.01506722542	1206
1608.63348202566	1218.80004882813
1609.2518158931	1203.80004882813
1609.87006883519	1200.80004882813
1610.48824085939	1208.80004882813
1611.10633197312	1209
1611.72434218386	1206
1612.34227149904	1210.59997558594
1612.96011992612	1210.40002441406
1613.57788747254	1201
1614.19557414575	1205
1614.8131799532	1191.19995117188
1615.43070490234	1194.19995117188
1616.04814900061	1188.80004882813
1616.66551225545	1188
1617.28279467433	1188.19995117188
1617.89999626467	1190
1618.51711703393	1192.40002441406
1619.13415698955	1186.80004882813
1619.75111613898	1178.59997558594
1620.36799448966	1191.40002441406
1620.98479204903	1195.80004882813
1621.60150882455	1193.40002441406
1622.21814482364	1196.40002441406
1622.83470005376	1190.19995117188
1623.45117452235	1201.19995117188
1624.06756823685	1208.19995117188
1624.6838812047	1204.80004882813
1625.30011343335	1207
1625.91626493022	1204.59997558594
1626.53233570278	1199
1627.14832575845	1207.59997558594
1627.76423510468	1206.80004882813
1628.38006374891	1221
1628.99581169857	1211.40002441406
1629.61147896111	1217.40002441406
1630.22706554397	1209.80004882813
1630.84257145457	1213.19995117188
1631.45799670038	1196.19995117188
1632.07334128881	1211.80004882813
1632.6886052273	1196.59997558594
1633.3037885233	1197.19995117188
1633.91889118425	1195
1634.53391321757	1186.80004882813
1635.1488546307	1189.80004882813
1635.76371543108	1200
1636.37849562616	1182.59997558594
1636.99319522335	1183.59997558594
1637.60781423009	1187.19995117188
1638.22235265383	1181.80004882813
1638.83681050198	1192.19995117188
1639.451187782	1186.80004882813
1640.0654845013	1188
1640.67970066734	1188.40002441406
1641.29383628752	1191.19995117188
1641.9078913693	1200.59997558594
1642.5218659201	1197.59997558594
1643.13575994735	1194
1643.74957345849	1203.40002441406
1644.36330646094	1201
1644.97695896213	1209.40002441406
1645.59053096951	1204.19995117188
1646.20402249049	1208.40002441406
1646.8174335325	1213.19995117188
1647.43076410298	1230.59997558594
1648.04401420935	1234.19995117188
1648.65718385905	1232.40002441406
1649.2702730595	1238.40002441406
1649.88328181812	1229.59997558594
1650.49621014236	1228.80004882813
1651.10905803963	1218.40002441406
1651.72182551735	1217.19995117188
1652.33451258297	1205.40002441406
1652.9471192439	1206
1653.55964550757	1210
1654.1720913814	1199.19995117188
1654.78445687283	1215.80004882813
1655.39674198926	1199
1656.00894673814	1191
1656.62107112688	1188.80004882813
1657.23311516291	1179.40002441406
1657.84507885365	1183.19995117188
1658.45696220652	1179.19995117188
1659.06876522895	1175.80004882813
1659.68048792835	1168
1660.29213031217	1171
1660.90369238779	1159.59997558594
1661.51517416267	1164.80004882813
1662.12657564421	1169.40002441406
1662.73789683984	1163
1663.34913775697	1164.40002441406
1663.96029840303	1154.59997558594
1664.57137878544	1155.19995117188
1665.18237891161	1153.19995117188
1665.79329878897	1155.40002441406
1666.40413842493	1150.40002441406
1667.01489782691	1152.19995117188
1667.62557700233	1145.40002441406
1668.2361759586	1144.80004882813
1668.84669470315	1149.80004882813
1669.4571332434	1143
1670.06749158675	1143.40002441406
1670.67776974062	1143.80004882813
1671.28796771243	1139.19995117188
1671.8980855096	1148
1672.50812313954	1142.59997558594
1673.11808060967	1147.40002441406
1673.72795792739	1152
1674.33775510013	1151
1674.9474721353	1144
1675.55710904031	1162
1676.16666582257	1156
1676.7761424895	1152
1677.38553904851	1152
1677.99485550702	1146
1678.60409187243	1151.59997558594
1679.21324815215	1129
1679.8223243536	1135.40002441406
1680.43132048419	1134.59997558594
1681.04023655132	1123.59997558594
1681.64907256241	1134.19995117188
1682.25782852487	1128.59997558594
1682.86650444611	1126.59997558594
1683.47510033353	1123
1684.08361619455	1125.59997558594
1684.69205203657	1134.59997558594
1685.300407867	1126.40002441406
1685.90868369325	1132.40002441406
1686.51687952272	1133
1687.12499536283	1139.80004882813
1687.73303122098	1130.80004882813
1688.34098710457	1128.59997558594
1688.94886302101	1125.40002441406
1689.55665897772	1121.59997558594
1690.16437498208	1119
1690.77201104152	1126
1691.37956716342	1124
1691.9870433552	1126
1692.59443962426	1133.40002441406
1693.20175597801	1135.19995117188
1693.80899242384	1139.40002441406
1694.41614896916	1144.80004882813
1695.02322562138	1131.59997558594
1695.63022238789	1128.80004882813
1696.23713927609	1130.59997558594
1696.8439762934	1129.40002441406
1697.4507334472	1136.19995117188
1698.05741074491	1133.40002441406
1698.66400819391	1129.80004882813
1699.27052580161	1126.80004882813
1699.87696357542	1126.59997558594
1700.48332152272	1120.80004882813
1701.08959965092	1113.80004882813
1701.69579796742	1108.80004882813
1702.30191647962	1105.40002441406
1702.90795519491	1106
1703.51391412069	1102.40002441406
1704.11979326437	1106
1704.72559263332	1104.19995117188
1705.33131223496	1102.40002441406
1705.93695207668	1114
1706.54251216588	1107.19995117188
1707.14799250994	1108.80004882813
1707.75339311628	1101.40002441406
1708.35871399227	1103.19995117188
1708.96395514532	1108.80004882813
1709.56911658282	1102.80004882813
