634.948122577771	1570
635.690341530823	1581.19995117188
636.43246851086	1588.40002441406
637.174503525845	1586.80004882813
637.916446583745	1579.59997558594
638.658297692538	1556.59997558594
639.400056860179	1557.40002441406
640.141724094637	1561.80004882813
640.883299403885	1550.40002441406
641.62478279588	1575
642.366174278594	1568.40002441406
643.107473859989	1575.80004882813
643.848681548029	1573
644.589797350679	1580.59997558594
645.330821275901	1577.59997558594
646.071753331665	1561.59997558594
646.812593525922	1570.19995117188
647.553341866646	1554.40002441406
648.293998361798	1556.40002441406
649.03456301933	1566
649.775035847216	1557.19995117188
650.515416853409	1551.80004882813
651.255706045874	1547.59997558594
651.995903432568	1561.80004882813
652.736009021453	1560.40002441406
653.476022820486	1577.19995117188
654.215944837629	1578
654.955775080842	1581.59997558594
655.695513558081	1582.80004882813
656.435160277301	1596
657.174715246465	1587.40002441406
657.914178473527	1568.40002441406
658.653549966449	1581.19995117188
659.392829733176	1560
660.132017781678	1570.59997558594
660.871114119901	1579.59997558594
661.610118755803	1582.40002441406
662.349031697343	1585.80004882813
663.087852952468	1578.40002441406
663.826582529139	1565.19995117188
664.565220435305	1552.59997558594
665.30376667892	1553.59997558594
666.04222126794	1566.40002441406
666.780584210316	1566.19995117188
667.518855514	1574.40002441406
668.25703518694	1580.80004882813
668.995123237096	1589.40002441406
669.733119672413	1578.40002441406
670.471024500842	1583.80004882813
671.208837730333	1596.80004882813
671.946559368839	1594.19995117188
672.684189424308	1570
673.421727904689	1581
674.159174817929	1591.59997558594
674.896530171977	1593.59997558594
675.633793974786	1591.40002441406
676.370966234295	1587.40002441406
677.108046958461	1578.80004882813
677.845036155219	1578
678.581933832528	1590.40002441406
679.318739998323	1581.80004882813
680.055454660558	1579.19995117188
680.792077827172	1583.80004882813
681.528609506116	1600.40002441406
682.265049705331	1581.40002441406
683.001398432759	1583.40002441406
683.737655696349	1578.40002441406
684.47382150404	1601.19995117188
685.20989586378	1594.59997558594
685.945878783503	1582.40002441406
686.68177027116	1577.59997558594
687.417570334688	1566
688.153278982032	1578.19995117188
688.888896221129	1587
689.624422059921	1590.80004882813
690.359856506349	1596.19995117188
691.095199568354	1608.80004882813
691.830451253874	1618.40002441406
692.565611570844	1613.59997558594
693.300680527212	1608
694.03565813091	1616.59997558594
694.770544389877	1605.80004882813
695.505339312053	1605
696.240042905372	1613.59997558594
696.974655177772	1624.59997558594
697.70917613719	1637.40002441406
698.443605791561	1641.80004882813
699.177944148826	1640
699.912191216909	1631.19995117188
700.646347003755	1623
701.380411517295	1634.19995117188
702.114384765465	1620.80004882813
702.848266756195	1629
703.582057497421	1620.40002441406
704.315756997074	1597.19995117188
705.049365263089	1606
705.782882303399	1617.59997558594
706.516308125936	1614
707.249642738626	1604
707.982886149403	1618
708.716038366204	1619
709.449099396949	1606.59997558594
710.182069249577	1592.80004882813
710.914947932009	1581
711.647735452181	1554.40002441406
712.380431818022	1558.59997558594
713.113037037454	1574
713.845551118411	1579
714.577974068818	1596
715.310305896604	1606.40002441406
716.042546609694	1610.59997558594
716.774696216013	1612.40002441406
717.506754723493	1612.80004882813
718.238722140053	1613.40002441406
718.970598473624	1611.19995117188
719.702383732127	1599
720.43407792349	1612.80004882813
721.165681055634	1610.19995117188
721.897193136486	1614.40002441406
722.628614173966	1617.59997558594
723.359944175997	1619.40002441406
724.091183150505	1620.80004882813
724.822331105412	1616.40002441406
725.553388048638	1597.80004882813
726.284353988106	1609.40002441406
727.015228931734	1612.80004882813
727.746012887449	1613.19995117188
728.476705863162	1622.59997558594
729.207307866803	1623.59997558594
729.937818906289	1604.80004882813
730.668238989535	1602
731.398568124459	1599.80004882813
732.128806318986	1606.59997558594
732.858953581034	1587
733.589009918514	1611.40002441406
734.318975339348	1605.19995117188
735.048849851452	1613.80004882813
735.778633462744	1611.80004882813
736.508326181137	1618.40002441406
737.237928014549	1627
737.967438970897	1627.40002441406
738.696859058095	1620.40002441406
739.426188284054	1612.19995117188
740.155426656692	1607.80004882813
740.884574183922	1617.19995117188
741.613630873659	1608.40002441406
742.342596733815	1616.80004882813
743.071471772302	1616.19995117188
743.800255997034	1627.80004882813
744.528949415921	1616
745.257552036877	1599.19995117188
745.986063867811	1616.40002441406
746.714484916638	1623.40002441406
747.442815191261	1619.59997558594
748.171054699597	1624.40002441406
748.899203449554	1625.59997558594
749.627261449039	1614
750.355228705966	1618.19995117188
751.083105228239	1622.59997558594
751.810891023765	1619.80004882813
752.538586100459	1631.80004882813
753.266190466218	1647.19995117188
753.99370412896	1622.80004882813
754.721127096582	1623.59997558594
755.448459377	1640.40002441406
756.175700978114	1616
756.902851907828	1609.59997558594
757.629912174055	1622.19995117188
758.356881784688	1608
759.083760747639	1609.19995117188
759.810549070817	1603.59997558594
760.537246762113	1614.80004882813
761.263853829442	1614.59997558594
761.990370280698	1606.40002441406
762.716796123791	1608.19995117188
763.443131366618	1604.40002441406
764.169376017082	1628.80004882813
764.895530083085	1634.80004882813
765.621593572527	1653.19995117188
766.347566493312	1647.80004882813
767.073448853336	1664
767.799240660502	1675.19995117188
768.524941922707	1671
769.250552647854	1684
769.976072843836	1659.19995117188
770.701502518551	1671.19995117188
771.426841679905	1676.80004882813
772.152090335793	1690.80004882813
772.877248494107	1686.40002441406
773.602316162747	1692.80004882813
774.327293349609	1713
775.052180062592	1705.40002441406
775.776976309589	1723
776.501682098496	1707.59997558594
777.226297437206	1703.59997558594
777.950822333616	1691.19995117188
778.675256795621	1691.59997558594
779.399600831111	1708.59997558594
780.123854447983	1698.80004882813
780.84801765413	1702.80004882813
781.572090457441	1682
782.296072865811	1679
783.019964887131	1659.80004882813
783.743766529297	1654.40002441406
784.467477800194	1666.19995117188
785.191098707719	1651.59997558594
785.914629259756	1659.19995117188
786.638069464194	1662
787.361419328932	1638.19995117188
788.084678861852	1622.59997558594
788.807848070845	1623
789.530926963798	1608.59997558594
790.253915548602	1601.80004882813
790.976813833144	1619.19995117188
791.699621825307	1608.59997558594
792.422339532986	1598.59997558594
793.144966964061	1623
793.86750412642	1628.19995117188
794.589951027946	1621.80004882813
795.312307676536	1645
796.03457408006	1623.59997558594
796.756750246417	1636.59997558594
797.478836183477	1644.40002441406
798.200831899137	1635.59997558594
798.92273740127	1639
799.644552697769	1627.59997558594
800.36627779651	1631
801.087912705374	1632.59997558594
801.809457432251	1632.19995117188
802.530911985017	1618
803.252276371558	1628
803.973550599748	1609.80004882813
804.694734677472	1622.19995117188
805.415828612611	1631.40002441406
806.136832413045	1631.80004882813
806.857746086646	1635.80004882813
807.578569641305	1640.40002441406
808.299303084892	1645.59997558594
809.019946425289	1644.80004882813
809.740499670372	1630
810.460962828022	1624.40002441406
811.181335906114	1627.40002441406
811.901618912524	1627.19995117188
812.621811855131	1624.80004882813
813.341914741809	1630.59997558594
814.061927580433	1630.40002441406
814.781850378881	1625.40002441406
815.501683145025	1633.80004882813
816.221425886743	1639.19995117188
816.941078611903	1616.80004882813
817.660641328387	1627.40002441406
818.380114044065	1619.19995117188
819.099496766808	1620.40002441406
819.818789504492	1625.80004882813
820.53799226499	1625.80004882813
821.257105056168	1610.40002441406
821.976127885904	1622.80004882813
822.695060762064	1640.40002441406
823.413903692525	1644.59997558594
824.132656685151	1646
824.851319747817	1660
825.569892888388	1645
826.288376114739	1652.40002441406
827.006769434737	1643.40002441406
827.725072856249	1654.19995117188
828.443286387142	1612.59997558594
829.161410035285	1626.19995117188
829.87944380855	1603.40002441406
830.597387714798	1604.59997558594
831.315241761898	1618.19995117188
832.033005957715	1627.40002441406
832.750680310119	1633.19995117188
833.468264826969	1628.19995117188
834.18575951614	1626.19995117188
834.903164385486	1624.19995117188
835.620479442878	1631.80004882813
836.337704696181	1638
837.054840153255	1635
837.771885821962	1639.80004882813
838.488841710172	1634.19995117188
839.20570782574	1625
839.922484176531	1607.40002441406
840.639170770409	1618.80004882813
841.355767615231	1609.80004882813
842.072274718864	1614.19995117188
842.788692089164	1619.40002441406
843.505019733993	1630
844.221257661209	1632.59997558594
844.937405878676	1626.19995117188
845.65346439425	1609
846.369433215789	1617.19995117188
847.085312351156	1588
847.801101808205	1615
848.516801594793	1587
849.232411718781	1599.80004882813
849.947932188021	1606.80004882813
850.663363010376	1624
851.378704193698	1632.80004882813
852.093955745842	1648
852.809117674669	1643.40002441406
853.524189988028	1629.59997558594
854.239172693778	1639.19995117188
854.954065799768	1603
855.668869313857	1606.59997558594
856.383583243899	1589.80004882813
857.098207597743	1591
857.812742383246	1591
858.527187608255	1606.19995117188
859.241543280628	1611
859.955809408218	1640.59997558594
860.669985998868	1627.19995117188
861.384073060437	1650
862.098070600772	1640
862.811978627724	1643.40002441406
863.52579714914	1642
864.239526172873	1618.80004882813
864.953165706776	1619.59997558594
865.666715758687	1598.59997558594
866.380176336464	1598.59997558594
867.093547447951	1596.40002441406
867.806829100996	1596.80004882813
868.520021303444	1608
869.233124063149	1605
869.94613738795	1596
870.659061285693	1604.19995117188
871.37189576423	1602.59997558594
872.084640831403	1609.19995117188
872.797296495057	1630
873.509862763039	1629.59997558594
874.22233964319	1622.40002441406
874.934727143353	1617.80004882813
875.647025271374	1624
876.359234035097	1627.80004882813
877.071353442361	1628
877.783383501015	1611.59997558594
878.495324218895	1611.40002441406
879.207175603844	1623.59997558594
879.918937663705	1626
880.630610406318	1641.59997558594
881.342193839524	1637.19995117188
882.053687971161	1622.19995117188
882.765092809069	1626
883.476408361091	1607.19995117188
884.187634635066	1619.59997558594
884.898771638828	1618.19995117188
885.609819380221	1621.80004882813
886.320777867076	1619.59997558594
887.031647107236	1615
887.742427108536	1610.59997558594
888.453117878816	1614
889.16371942591	1635.40002441406
889.874231757652	1624
890.584654881883	1632.40002441406
891.294988806434	1614.80004882813
892.005233539141	1608.80004882813
892.715389087837	1626
893.42545546036	1626.19995117188
894.135432664543	1637.80004882813
894.845320708216	1646.19995117188
895.555119599216	1643.40002441406
896.264829345375	1640.80004882813
896.974449954526	1646.40002441406
897.683981434496	1659.80004882813
898.393423793125	1656.59997558594
899.102777038235	1648.59997558594
899.812041177664	1647.19995117188
900.521216219239	1635.80004882813
901.230302170793	1639
901.939299040155	1626.80004882813
902.64820683515	1640.80004882813
903.357025563612	1625
904.065755233368	1629.19995117188
904.774395852247	1632
905.482947428076	1626.59997558594
906.191409968682	1625.80004882813
906.899783481897	1630.59997558594
907.608067975538	1628.80004882813
908.316263457443	1621
909.02436993543	1621
909.732387417327	1628
910.440315910959	1617.80004882813
911.148155424154	1632
911.855905964731	1635.40002441406
912.563567540521	1614.19995117188
913.271140159339	1592.40002441406
913.978623829017	1599
914.686018557374	1606.59997558594
915.393324352237	1605.40002441406
916.100541221421	1612.80004882813
916.807669172752	1618.40002441406
917.514708214054	1608.80004882813
918.221658353142	1593.59997558594
918.928519597843	1587.40002441406
919.635291955976	1585.40002441406
920.341975435358	1592.19995117188
921.048570043813	1617
921.75507578916	1631
922.461492679212	1626.59997558594
923.167820721795	1647.19995117188
923.874059924726	1623.19995117188
924.58021029582	1625.19995117188
925.286271842893	1626.80004882813
925.992244573769	1632.59997558594
926.698128496262	1625.80004882813
927.403923618184	1630.19995117188
928.109629947355	1617
928.815247491593	1610.59997558594
929.520776258708	1610.80004882813
930.226216256519	1614.80004882813
930.931567492841	1615.40002441406
931.636829975482	1598
932.342003712263	1606.80004882813
933.047088710995	1608
933.752084979491	1629.59997558594
934.456992525564	1614.19995117188
935.161811357024	1621.40002441406
935.866541481688	1610
936.571182907363	1603.80004882813
937.275735641861	1616.80004882813
937.980199692995	1596.59997558594
938.684575068572	1596.19995117188
939.388861776411	1609.59997558594
940.093059824311	1588.40002441406
940.797169220085	1600.59997558594
941.501189971544	1611.80004882813
942.205122086495	1605.59997558594
942.908965572751	1591.19995117188
943.612720438111	1597.40002441406
944.316386690391	1598.40002441406
945.019964337391	1581
945.723453386924	1606.40002441406
946.426853846795	1602
947.130165724808	1601.59997558594
947.83338902877	1601.40002441406
948.536523766488	1586.19995117188
949.239569945764	1606
949.942527574402	1602.80004882813
950.64539666021	1582.40002441406
951.348177210993	1580.40002441406
952.050869234548	1563.59997558594
952.753472738683	1550
953.455987731199	1565.40002441406
954.158414219898	1571
954.860752212587	1583.40002441406
955.563001717061	1591.59997558594
956.265162741124	1592.19995117188
956.967235292576	1583.19995117188
957.669219379224	1572.40002441406
958.371115008857	1591.19995117188
959.072922189283	1592.80004882813
959.774640928301	1575.80004882813
960.476271233708	1568
961.177813113301	1580.40002441406
961.879266574882	1580
962.580631626248	1575
963.281908275194	1589.40002441406
963.98309652952	1580.19995117188
964.684196397022	1585.80004882813
965.3852078855	1587.59997558594
966.086131002745	1595.80004882813
966.786965756555	1588.40002441406
967.487712154726	1606.59997558594
968.188370205055	1601.40002441406
968.888939915331	1599.80004882813
969.589421293352	1601.19995117188
970.289814346909	1601.19995117188
970.990119083801	1599.80004882813
971.690335511819	1589.80004882813
972.39046363875	1598
973.090503472398	1576.59997558594
973.790455020545	1583
974.490318290987	1569.19995117188
975.190093291516	1568.59997558594
975.889780029923	1576.19995117188
976.589378513998	1579.59997558594
977.288888751527	1588.19995117188
977.988310750308	1591.40002441406
978.687644518122	1607.40002441406
979.386890062767	1591.80004882813
980.086047392025	1596.40002441406
980.785116513689	1582.59997558594
981.484097435542	1587.19995117188
982.182990165377	1595.59997558594
982.88179471098	1577.80004882813
983.580511080137	1564.19995117188
984.279139280632	1567.19995117188
984.977679320253	1561.59997558594
985.67613120679	1561.80004882813
986.374494948027	1570.59997558594
987.072770551745	1582
987.770958025731	1578.80004882813
988.469057377772	1584
989.167068615649	1590.80004882813
989.864991747145	1590.40002441406
990.562826780047	1587.40002441406
991.260573722134	1584.19995117188
991.958232581195	1585
992.655803365003	1595.40002441406
993.353286081346	1591.80004882813
994.050680738006	1602.40002441406
994.74798734276	1597.59997558594
995.44520590339	1602.59997558594
996.142336427681	1588
996.839378923407	1578.40002441406
997.536333398348	1571.19995117188
998.233199860289	1567.19995117188
998.929978317004	1558.80004882813
999.626668776274	1545.40002441406
1000.32327124587	1549.40002441406
1001.01978573359	1554
1001.71621224718	1560.19995117188
1002.41255079445	1573.59997558594
1003.10880138315	1596.80004882813
1003.80496402107	1589
1004.50103871599	1586.59997558594
1005.19702547567	1595.40002441406
1005.8929243079	1610
1006.58873522045	1604.80004882813
1007.2844582211	1612.40002441406
1007.98009331761	1612.80004882813
1008.67564051776	1614.80004882813
1009.37109982933	1594.80004882813
1010.06647126009	1606
1010.7617548178	1584
1011.45695051026	1593.19995117188
1012.15205834522	1586.59997558594
1012.84707833045	1581
1013.54201047373	1573.40002441406
1014.23685478284	1579.40002441406
1014.93161126553	1578
1015.62627992959	1583
1016.32086078277	1571.80004882813
1017.01535383285	1579.80004882813
1017.70975908761	1575.59997558594
1018.40407655479	1584.80004882813
1019.09830624219	1580.80004882813
1019.79244815755	1588
1020.48650230866	1579.40002441406
1021.18046870328	1591.59997558594
1021.87434734917	1589
1022.56813825411	1593.19995117188
1023.26184142584	1589.80004882813
1023.95545687216	1605.80004882813
1024.64898460082	1585.19995117188
1025.34242461957	1596
1026.0357769362	1607.40002441406
1026.72904155846	1605.80004882813
1027.42221849412	1591.40002441406
1028.11530775094	1590.59997558594
1028.80830933668	1594.59997558594
1029.50122325911	1613.19995117188
1030.19404952599	1610.19995117188
1030.88678814508	1597.40002441406
1031.57943912414	1590.59997558594
1032.27200247093	1569.59997558594
1032.96447819323	1572
1033.65686629878	1576.59997558594
1034.34916679534	1573.59997558594
1035.04137969068	1596
1035.73350499256	1595
1036.42554270874	1582.59997558594
1037.11749284697	1586
1037.80935541501	1587.19995117188
1038.50113042062	1586.19995117188
1039.19281787156	1588.19995117188
1039.88441777559	1581.80004882813
1040.57593014046	1579.59997558594
1041.26735497393	1594.19995117188
1041.95869228376	1583
1042.6499420777	1577.40002441406
1043.3411043635	1572.80004882813
1044.03217914893	1571.40002441406
1044.72316644174	1592
1045.41406624968	1600.80004882813
1046.1048785805	1594.40002441406
1046.79560344197	1587.19995117188
1047.48624084182	1585
1048.17679078783	1579
1048.86725328774	1577.80004882813
1049.55762834929	1581.40002441406
1050.24791598025	1583.80004882813
1050.93811618837	1583
1051.62822898139	1566
1052.31825436707	1573.19995117188
1053.00819235315	1584
1053.6980429474	1592.59997558594
1054.38780615755	1593
1055.07748199136	1576.40002441406
1055.76707045658	1572
1056.45657156095	1552.59997558594
1057.14598531222	1544.80004882813
1057.83531171814	1547.59997558594
1058.52455078646	1556.40002441406
1059.21370252494	1549.80004882813
1059.90276694129	1549.59997558594
1060.5917440433	1561.19995117188
1061.28063383868	1563.40002441406
1061.9694363352	1571.80004882813
1062.65815154059	1582.59997558594
1063.34677946261	1579.40002441406
1064.03532010899	1574
1064.72377348748	1580.40002441406
1065.41213960583	1561.59997558594
1066.10041847177	1563.59997558594
1066.78861009306	1561.19995117188
1067.47671447743	1558.19995117188
1068.16473163263	1564
1068.85266156639	1559.59997558594
1069.54050428647	1573.59997558594
1070.2282598006	1578.19995117188
1070.91592811652	1573.59997558594
1071.60350924198	1572.40002441406
1072.29100318471	1557.19995117188
1072.97840995245	1564.40002441406
1073.66572955295	1556.80004882813
1074.35296199394	1549.40002441406
1075.04010728316	1566.40002441406
1075.72716542836	1550.19995117188
1076.41413643726	1558.40002441406
1077.10102031761	1550.80004882813
1077.78781707715	1546
1078.4745267236	1537.19995117188
1079.16114926471	1545.59997558594
1079.84768470822	1550.40002441406
1080.53413306185	1544
1081.22049433336	1538.19995117188
1081.90676853046	1553.80004882813
1082.5929556609	1560.19995117188
1083.27905573241	1567.80004882813
1083.96506875272	1558.19995117188
1084.65099472957	1570.19995117188
1085.3368336707	1558
1086.02258558383	1553.80004882813
1086.70825047669	1561.19995117188
1087.39382835703	1569.80004882813
1088.07931923257	1559.19995117188
1088.76472311104	1550.59997558594
1089.45004000018	1553.59997558594
1090.13526990771	1534.80004882813
1090.82041284137	1531
1091.50546880889	1537.40002441406
1092.19043781799	1524.40002441406
1092.87531987642	1531.19995117188
1093.56011499188	1535.40002441406
1094.24482317212	1534.80004882813
1094.92944442486	1540
1095.61397875783	1546.19995117188
1096.29842617876	1534.19995117188
1096.98278669537	1563.80004882813
1097.6670603154	1543.19995117188
1098.35124704656	1554.40002441406
1099.03534689659	1553.59997558594
1099.71935987322	1548.80004882813
1100.40328598416	1556.59997558594
1101.08712523713	1546.80004882813
1101.77087763988	1567.40002441406
1102.45454320012	1553.59997558594
1103.13812192557	1549.59997558594
1103.82161382396	1538.80004882813
1104.50501890301	1542.19995117188
1105.18833717045	1542.40002441406
1105.87156863399	1554.80004882813
1106.55471330137	1569.19995117188
1107.2377711803	1572
1107.9207422785	1584.19995117188
1108.60362660369	1584.19995117188
1109.2864241636	1581.59997558594
1109.96913496594	1570.80004882813
1110.65175901844	1566.80004882813
1111.33429632882	1549.59997558594
1112.01674690479	1559
1112.69911075408	1547.80004882813
1113.38138788439	1560.59997558594
1114.06357830346	1567.80004882813
1114.745682019	1560.59997558594
1115.42769903872	1560.80004882813
1116.10962937035	1565.80004882813
1116.7914730216	1575.80004882813
1117.47323000018	1578
1118.15490031382	1562.19995117188
1118.83648397022	1561
1119.51798097712	1550.40002441406
1120.1993913422	1536.80004882813
1120.88071507321	1528.19995117188
1121.56195217784	1537
1122.24310266381	1547
1122.92416653884	1549.19995117188
1123.60514381064	1562.40002441406
1124.28603448692	1562.40002441406
1124.9668385754	1561.40002441406
1125.64755608378	1560
1126.32818701978	1556.80004882813
1127.00873139111	1558.40002441406
1127.68918920548	1563
1128.3695604706	1575.40002441406
1129.04984519419	1577.19995117188
1129.73004338394	1563.40002441406
1130.41015504758	1559.80004882813
1131.09018019281	1566
1131.77011882734	1563
1132.44997095888	1558.59997558594
1133.12973659514	1560.40002441406
1133.80941574381	1546.59997558594
1134.48900841263	1539.80004882813
1135.16851460927	1541
1135.84793434147	1534.80004882813
1136.52726761692	1525.59997558594
1137.20651444333	1527.19995117188
1137.8856748284	1547.40002441406
1138.56474877984	1560.40002441406
1139.24373630536	1540.40002441406
1139.92263741265	1554.80004882813
1140.60145210943	1552.40002441406
1141.28018040339	1553.80004882813
1141.95882230225	1536.80004882813
1142.6373778137	1544
1143.31584694545	1544.19995117188
1143.99422970519	1552.40002441406
1144.67252610064	1551.80004882813
1145.35073613949	1547.19995117188
1146.02885982944	1539.80004882813
1146.7068971782	1541.59997558594
1147.38484819347	1542.40002441406
1148.06271288294	1548.59997558594
1148.74049125432	1559.59997558594
1149.41818331531	1548.40002441406
1150.0957890736	1554.59997558594
1150.77330853689	1541.80004882813
1151.45074171289	1523.59997558594
1152.12808860928	1534.40002441406
1152.80534923378	1531
1153.48252359407	1510.40002441406
1154.15961169786	1501
1154.83661355283	1515
1155.51352916669	1522.19995117188
1156.19035854713	1527.40002441406
1156.86710170185	1523.59997558594
1157.54375863855	1526.80004882813
1158.22032936491	1529
1158.89681388863	1526.59997558594
1159.57321221741	1524
1160.24952435894	1535
1160.92575032092	1555.80004882813
1161.60189011103	1557
1162.27794373697	1550.19995117188
1162.95391120644	1546.19995117188
1163.62979252712	1556.80004882813
1164.3055877067	1548.40002441406
1164.98129675288	1552
1165.65691967336	1541.40002441406
1166.33245647581	1529.59997558594
1167.00790716792	1529.19995117188
1167.6832717574	1535.19995117188
1168.35855025193	1533.19995117188
1169.0337426592	1534.80004882813
1169.70884898689	1528.19995117188
1170.3838692427	1519
1171.05880343431	1525.80004882813
1171.73365156941	1536
1172.40841365569	1524.59997558594
1173.08308970083	1526.19995117188
1173.75767971253	1525.19995117188
1174.43218369847	1520
1175.10660166633	1519.40002441406
1175.7809336238	1501.59997558594
1176.45517957857	1518.19995117188
1177.12933953832	1519
1177.80341351073	1529.19995117188
1178.47740150349	1546.80004882813
1179.15130352429	1542.59997558594
1179.8251195808	1549.80004882813
1180.49884968071	1542.59997558594
1181.1724938317	1545.80004882813
1181.84605204145	1547.59997558594
1182.51952431766	1545.59997558594
1183.19291066799	1564.80004882813
1183.86621110013	1556
1184.53942562176	1545.80004882813
1185.21255424057	1550.19995117188
1185.88559696422	1546.59997558594
1186.55855380041	1541.19995117188
1187.2314247568	1542.59997558594
1187.90420984109	1546.80004882813
1188.57690906095	1561.80004882813
1189.24952242405	1559.40002441406
1189.92204993808	1557.80004882813
1190.59449161071	1547.40002441406
1191.26684744962	1565.80004882813
1191.93911746249	1557
1192.61130165699	1550
1193.28340004081	1560
1193.95541262161	1555.59997558594
1194.62733940707	1567.19995117188
1195.29918040487	1560.59997558594
1195.97093562269	1554.80004882813
1196.64260506819	1540
1197.31418874905	1552.80004882813
1197.98568667295	1549.40002441406
1198.65709884755	1545.59997558594
1199.32842528053	1551.40002441406
1199.99966597957	1563
1200.67082095234	1554
1201.3418902065	1538.59997558594
1202.01287374974	1551.19995117188
1202.68377158971	1549.40002441406
1203.3545837341	1537.40002441406
1204.02531019057	1535.40002441406
1204.6959509668	1535.80004882813
1205.36650607045	1522.80004882813
1206.03697550919	1527
1206.70735929069	1539.40002441406
1207.37765742263	1534.80004882813
1208.04786991266	1536.59997558594
1208.71799676846	1533.19995117188
1209.38803799769	1538.59997558594
1210.05799360803	1530.19995117188
1210.72786360714	1530
1211.39764800268	1530.59997558594
1212.06734680233	1537.40002441406
1212.73696001375	1543.59997558594
1213.4064876446	1531.40002441406
1214.07592970255	1542.59997558594
1214.74528619526	1525.40002441406
1215.4145571304	1517
1216.08374251564	1510.19995117188
1216.75284235863	1529.80004882813
1217.42185666704	1525.80004882813
1218.09078544854	1520.19995117188
1218.75962871078	1516.80004882813
1219.42838646143	1508.40002441406
1220.09705870816	1503.59997558594
1220.76564545861	1506.80004882813
1221.43414672046	1515
1222.10256250136	1508.40002441406
1222.77089280898	1517.19995117188
1223.43913765098	1521
1224.107297035	1518.59997558594
1224.77537096873	1514.59997558594
1225.44335945981	1512.19995117188
1226.1112625159	1515.40002441406
1226.77908014467	1524.19995117188
1227.44681235376	1512.80004882813
1228.11445915085	1516.59997558594
1228.78202054357	1507.40002441406
1229.44949653961	1510.80004882813
1230.11688714659	1507.80004882813
1230.7841923722	1523.40002441406
1231.45141222407	1522.80004882813
1232.11854670988	1509.19995117188
1232.78559583726	1517.40002441406
1233.45255961388	1520.59997558594
1234.1194380474	1525.19995117188
1234.78623114546	1520.19995117188
1235.45293891572	1530.40002441406
1236.11956136583	1535.80004882813
1236.78609850345	1533.80004882813
1237.45255033623	1541.80004882813
1238.11891687182	1544
1238.78519811788	1554.59997558594
1239.45139408205	1533
1240.11750477198	1520.59997558594
1240.78353019534	1521.19995117188
1241.44947035976	1520.59997558594
1242.11532527291	1511.19995117188
1242.78109494242	1508.59997558594
1243.44677937595	1505.59997558594
1244.11237858115	1508.59997558594
1244.77789256567	1515
1245.44332133715	1509.59997558594
1246.10866490325	1512.19995117188
1246.7739232716	1520
1247.43909644987	1522.19995117188
1248.10418444569	1523.40002441406
1248.76918726671	1524.59997558594
1249.43410492059	1526.19995117188
1250.09893741496	1500.40002441406
1250.76368475747	1485.80004882813
1251.42834695576	1516
1252.09292401749	1515.19995117188
1252.75741595029	1509.59997558594
1253.42182276182	1510
1254.08614445971	1509.59997558594
1254.75038105161	1510
1255.41453254515	1505.80004882813
1256.07859894799	1509.59997558594
1256.74258026777	1492.19995117188
1257.40647651213	1495
1258.0702876887	1486.40002441406
1258.73401380514	1489.59997558594
1259.39765486908	1507.80004882813
1260.06121088817	1497.59997558594
1260.72468187004	1518
1261.38806782233	1522.40002441406
1262.05136875269	1513.19995117188
1262.71458466875	1517
1263.37771557815	1506.80004882813
1264.04076148854	1500.59997558594
1264.70372240753	1490.19995117188
1265.3665983428	1506.19995117188
1266.02938930195	1511.59997558594
1266.69209529263	1491.80004882813
1267.35471632249	1511
1268.01725239914	1506.59997558594
1268.67970353024	1494.59997558594
1269.34206972342	1488.80004882813
1270.00435098631	1487.59997558594
1270.66654732655	1481.19995117188
1271.32865875177	1499.59997558594
1271.9906852696	1495.40002441406
1272.65262688768	1498.80004882813
1273.31448361365	1499.80004882813
1273.97625545514	1505.19995117188
1274.63794241978	1501.59997558594
1275.2995445152	1498.40002441406
1275.96106174903	1501.80004882813
1276.62249412892	1514.59997558594
1277.28384166248	1490.19995117188
1277.94510435735	1498
1278.60628222116	1501.59997558594
1279.26737526155	1486.80004882813
1279.92838348613	1491.19995117188
1280.58930690255	1500.40002441406
1281.25014551842	1499
1281.91089934139	1513.19995117188
1282.57156837907	1505.80004882813
1283.2321526391	1503.40002441406
1283.89265212911	1511.59997558594
1284.55306685671	1499
1285.21339682955	1483.40002441406
1285.87364205525	1465.80004882813
1286.53380254142	1454
1287.19387829571	1467.80004882813
1287.85386932573	1460.59997558594
1288.51377563911	1479.19995117188
1289.17359724348	1488.40002441406
1289.83333414646	1491.19995117188
1290.49298635567	1477.59997558594
1291.15255387874	1479
1291.8120367233	1488
1292.47143489696	1493.80004882813
1293.13074840736	1487
1293.7899772621	1495.80004882813
1294.44912146882	1497.80004882813
1295.10818103513	1496
1295.76715596866	1484.80004882813
1296.42604627704	1477.40002441406
1297.08485196787	1485.40002441406
1297.74357304878	1491
1298.4022095274	1493
1299.06076141134	1494.40002441406
1299.71922870821	1485.19995117188
1300.37761142565	1492.80004882813
1301.03590957126	1491.40002441406
1301.69412315268	1498.59997558594
1302.3522521775	1483.40002441406
1303.01029665336	1489.40002441406
1303.66825658787	1487.19995117188
1304.32613198865	1488.19995117188
1304.98392286332	1489.80004882813
1305.64162921948	1505.59997558594
1306.29925106476	1476.19995117188
1306.95678840677	1491.80004882813
1307.61424125312	1497.40002441406
1308.27160961145	1497
1308.92889348934	1494.19995117188
1309.58609289443	1489.19995117188
1310.24320783432	1480
1310.90023831664	1469
1311.55718434898	1466.19995117188
1312.21404593897	1461.59997558594
1312.87082309421	1468.59997558594
1313.52751582233	1468.19995117188
1314.18412413092	1462.19995117188
1314.84064802761	1484.40002441406
1315.49708752	1489.80004882813
1316.1534426157	1488
1316.80971332233	1498.59997558594
1317.46589964749	1504
1318.1220015988	1511.40002441406
1318.77801918386	1502.40002441406
1319.43395241028	1514.40002441406
1320.08980128567	1503.19995117188
1320.74556581764	1497.80004882813
1321.4012460138	1501.19995117188
1322.05684188176	1512.19995117188
1322.71235342911	1503.80004882813
1323.36778066347	1512.40002441406
1324.02312359245	1507.80004882813
1324.67838222365	1517.59997558594
1325.33355656468	1515.40002441406
1325.98864662314	1524.40002441406
1326.64365240663	1514.80004882813
1327.29857392277	1494.19995117188
1327.95341117915	1488
1328.60816418339	1493.59997558594
1329.26283294308	1489.40002441406
1329.91741746582	1498
1330.57191775923	1486.80004882813
1331.2263338309	1487.19995117188
1331.88066568843	1500.80004882813
1332.53491333943	1501.40002441406
1333.1890767915	1492.59997558594
1333.84315605224	1494.59997558594
1334.49715112925	1493.40002441406
1335.15106203013	1485.80004882813
1335.80488876249	1492.59997558594
1336.45863133391	1492.80004882813
1337.112289752	1494.59997558594
1337.76586402437	1510.19995117188
1338.4193541586	1511.40002441406
1339.0727601623	1520.40002441406
1339.72608204306	1510.59997558594
1340.37931980849	1500.40002441406
1341.03247346617	1513.80004882813
1341.68554302372	1506.19995117188
1342.33852848871	1503.19995117188
1342.99142986876	1497.19995117188
1343.64424717145	1499.19995117188
1344.29698040438	1502.59997558594
1344.94962957515	1517.59997558594
1345.60219469135	1520.80004882813
1346.25467576058	1531.40002441406
1346.90707279042	1534.19995117188
1347.55938578848	1500.40002441406
1348.21161476235	1500.80004882813
1348.86375971962	1499.59997558594
1349.51582066787	1508.40002441406
1350.16779761472	1494.19995117188
1350.81969056774	1496.40002441406
1351.47149953453	1499.59997558594
1352.12322452269	1505.40002441406
1352.77486553979	1495
1353.42642259344	1499.19995117188
1354.07789569122	1507.80004882813
1354.72928484072	1519.80004882813
1355.38059004953	1523.40002441406
1356.03181132525	1542
1356.68294867545	1541.19995117188
1357.33400210773	1534.59997558594
1357.98497162968	1536.80004882813
1358.63585724889	1525
1359.28665897294	1538.40002441406
1359.93737680942	1532.40002441406
1360.58801076591	1546.40002441406
1361.23856085001	1565.40002441406
1361.88902706929	1556.59997558594
1362.53940943135	1571.19995117188
1363.18970794377	1565.40002441406
1363.83992261413	1571.59997558594
1364.49005345003	1564
1365.14010045904	1577
1365.79006364874	1562.59997558594
1366.43994302673	1563.40002441406
1367.08973860058	1575.40002441406
1367.73945037788	1562.59997558594
1368.38907836621	1567.40002441406
1369.03862257315	1556.80004882813
1369.68808300629	1540.59997558594
1370.3374596732	1542.80004882813
1370.98675258148	1534.40002441406
1371.63596173868	1543.19995117188
1372.28508715241	1535
1372.93412883024	1523.19995117188
1373.58308677974	1515.40002441406
1374.2319610085	1503.80004882813
1374.8807515241	1500.59997558594
1375.52945833412	1488
1376.17808144612	1484
1376.82662086771	1496.40002441406
1377.47507660644	1495.40002441406
1378.12344866989	1475.80004882813
1378.77173706565	1494
1379.41994180129	1488.59997558594
1380.06806288439	1503.59997558594
1380.71610032252	1501.19995117188
1381.36405412326	1510.59997558594
1382.01192429419	1501.59997558594
1382.65971084287	1501
1383.30741377688	1498.59997558594
1383.95503310381	1492.19995117188
1384.60256883121	1488.40002441406
1385.25002096667	1486.40002441406
1385.89738951775	1478.59997558594
1386.54467449204	1479.59997558594
1387.19187589709	1473
1387.8389937405	1466.80004882813
1388.48602802982	1467.59997558594
1389.13297877262	1474.59997558594
1389.77984597649	1461.80004882813
1390.42662964899	1471.40002441406
1391.07332979768	1488.80004882813
1391.71994643015	1490.19995117188
1392.36647955395	1470
1393.01292917667	1465.59997558594
1393.65929530586	1484.19995117188
1394.3055779491	1463.80004882813
1394.95177711395	1457.80004882813
1395.59789280799	1475.40002441406
1396.24392503877	1479.19995117188
1396.88987381387	1471
1397.53573914086	1489.40002441406
1398.1815210273	1483.80004882813
1398.82721948075	1483.19995117188
1399.47283450878	1487.80004882813
1400.11836611897	1484.80004882813
1400.76381431886	1469.19995117188
1401.40917911603	1462.19995117188
1402.05446051805	1431.80004882813
1402.69965853247	1438.80004882813
1403.34477316686	1433.59997558594
1403.98980442878	1447.19995117188
1404.6347523258	1448.19995117188
1405.27961686548	1455.80004882813
1405.92439805538	1452
1406.56909590306	1453.40002441406
1407.21371041608	1457.80004882813
1407.85824160202	1445
1408.50268946841	1454.19995117188
1409.14705402284	1451.59997558594
1409.79133527285	1455.19995117188
1410.43553322601	1459.80004882813
1411.07964788987	1450.59997558594
1411.723679272	1451.40002441406
1412.36762737996	1429.40002441406
1413.01149222129	1441.80004882813
1413.65527380357	1439
1414.29897213435	1444.80004882813
1414.94258722118	1439
1415.58611907163	1420
1416.22956769325	1416.40002441406
1416.87293309359	1423.19995117188
1417.51621528021	1430.80004882813
1418.15941426067	1447.59997558594
1418.80253004253	1446.80004882813
1419.44556263333	1466.59997558594
1420.08851204063	1473.19995117188
1420.731378272	1479.59997558594
1421.37416133497	1472.80004882813
1422.0168612371	1477.59997558594
1422.65947798596	1478.80004882813
1423.30201158908	1480.40002441406
1423.94446205403	1475
1424.58682938835	1469
1425.2291135996	1469
1425.87131469532	1469.59997558594
1426.51343268308	1460
1427.15546757042	1462.19995117188
1427.79741936488	1459
1428.43928807403	1463.80004882813
1429.0810737054	1445.40002441406
1429.72277626656	1440
1430.36439576504	1438.40002441406
1431.00593220841	1452.40002441406
1431.64738560419	1439.59997558594
1432.28875595995	1448.19995117188
1432.93004328324	1457.40002441406
1433.57124758159	1448.59997558594
1434.21236886255	1459.19995117188
1434.85340713368	1453.19995117188
1435.49436240252	1460
1436.13523467661	1459.40002441406
1436.77602396349	1463.19995117188
1437.41673027073	1443
1438.05735360585	1454.40002441406
1438.69789397641	1441.40002441406
1439.33835138994	1435.59997558594
1439.978725854	1434.59997558594
1440.61901737612	1446
1441.25922596385	1435.19995117188
1441.89935162473	1440.59997558594
1442.53939436631	1434
1443.17935419612	1428
1443.81923112171	1436.59997558594
1444.45902515061	1442.40002441406
1445.09873629038	1442.59997558594
1445.73836454854	1442.80004882813
1446.37790993265	1446.80004882813
1447.01737245024	1457
1447.65675210885	1464.40002441406
1448.29604891602	1461.40002441406
1448.93526287928	1444.80004882813
1449.57439400618	1439
1450.21344230426	1436.80004882813
1450.85240778105	1457.19995117188
1451.49129044409	1453.19995117188
1452.13009030092	1449.80004882813
1452.76880735907	1443.19995117188
1453.40744162608	1457.59997558594
1454.04599310949	1443.19995117188
1454.68446181683	1445.19995117188
1455.32284775564	1459.40002441406
1455.96115093345	1447.80004882813
1456.5993713578	1448.19995117188
1457.23750903623	1441.80004882813
1457.87556397626	1446.19995117188
1458.51353618543	1443.80004882813
1459.15142567127	1430
1459.78923244132	1433.19995117188
1460.42695650311	1446.59997558594
1461.06459786417	1451.59997558594
1461.70215653203	1447.19995117188
1462.33963251423	1437.59997558594
1462.97702581829	1449.40002441406
1463.61433645175	1446
1464.25156442214	1452.40002441406
1464.88870973699	1444.59997558594
1465.52577240382	1445
1466.16275243017	1440.59997558594
1466.79964982356	1442.80004882813
1467.43646459154	1421.19995117188
1468.07319674161	1427.40002441406
1468.70984628132	1431.59997558594
1469.34641321818	1442.80004882813
1469.98289755974	1442.80004882813
1470.6192993135	1434.59997558594
1471.25561848701	1450.80004882813
1471.89185508779	1441
1472.52800912336	1448.40002441406
1473.16408060124	1461.80004882813
1473.80006952897	1442.59997558594
1474.43597591407	1445.80004882813
1475.07179976406	1445.40002441406
1475.70754108647	1431
1476.34319988883	1441.80004882813
1476.97877617865	1446.40002441406
1477.61426996345	1465.19995117188
1478.24968125077	1458.80004882813
1478.88501004812	1451.19995117188
1479.52025636303	1456.59997558594
1480.15542020302	1456.40002441406
1480.79050157561	1444.80004882813
1481.42550048832	1461.59997558594
1482.06041694867	1447
1482.69525096418	1448.19995117188
1483.33000254237	1451.59997558594
1483.96467169077	1441.40002441406
1484.59925841689	1454.80004882813
1485.23376272825	1448.59997558594
1485.86818463237	1430.80004882813
1486.50252413677	1438.19995117188
1487.13678124896	1427.59997558594
1487.77095597646	1426.19995117188
1488.4050483268	1415.59997558594
1489.03905830749	1409
1489.67298592604	1432
1490.30683118996	1424.80004882813
1490.9405941068	1441.19995117188
1491.57427468403	1450.80004882813
1492.2078729292	1448.19995117188
1492.84138884981	1460
1493.47482245338	1456.59997558594
1494.10817374742	1454.19995117188
1494.74144273944	1449.19995117188
1495.37462943696	1450.80004882813
1496.0077338475	1462.80004882813
1496.64075597856	1444.19995117188
1497.27369583765	1437.59997558594
1497.9065534323	1431.40002441406
1498.53932877001	1426.80004882813
1499.17202185829	1408
1499.80463270465	1429
1500.43716131661	1430.19995117188
1501.06960770167	1437.59997558594
1501.70197186735	1429.80004882813
1502.33425382116	1447
1502.96645357059	1458
1503.59857112317	1449.59997558594
1504.23060648641	1449.80004882813
1504.8625596678	1458.40002441406
1505.49443067486	1465
1506.1262195151	1460
1506.75792619602	1450.59997558594
1507.38955072513	1456.80004882813
1508.02109310993	1451.80004882813
1508.65255335794	1449
1509.28393147666	1448.59997558594
1509.91522747359	1452.59997558594
1510.54644135624	1452.80004882813
1511.17757313212	1466
1511.80862280872	1454.59997558594
1512.43959039356	1466.40002441406
1513.07047589413	1443.40002441406
1513.70127931795	1442.80004882813
1514.33200067251	1438.59997558594
1514.96263996531	1435
1515.59319720386	1424.80004882813
1516.22367239567	1423.19995117188
1516.85406554822	1434.80004882813
1517.48437666903	1436.40002441406
1518.1146057656	1434.40002441406
1518.74475284542	1430.19995117188
1519.374817916	1420.59997558594
1520.00480098483	1429.80004882813
1520.63470205942	1417
1521.26452114726	1416.80004882813
1521.89425825586	1420.59997558594
1522.52391339271	1421.80004882813
1523.15348656531	1422.19995117188
1523.78297778116	1423.40002441406
1524.41238704775	1431.59997558594
1525.04171437259	1417.59997558594
1525.67095976317	1415.40002441406
1526.30012322699	1421.19995117188
1526.92920477154	1404.40002441406
1527.55820440432	1407.40002441406
1528.18712213283	1414.59997558594
1528.81595796455	1403.40002441406
1529.44471190699	1399
1530.07338396764	1388
1530.70197415399	1398.80004882813
1531.33048247353	1403
1531.95890893377	1402.80004882813
1532.58725354219	1421.19995117188
1533.21551630629	1427
1533.84369723356	1436.59997558594
1534.47179633148	1436.80004882813
1535.09981360757	1443
1535.72774906929	1452.80004882813
1536.35560272415	1435.59997558594
1536.98337457963	1441.80004882813
1537.61106464323	1427.19995117188
1538.23867292243	1441.19995117188
1538.86619942473	1433.40002441406
1539.49364415762	1431.40002441406
1540.12100712857	1431.80004882813
1540.74828834509	1424.80004882813
1541.37548781466	1418
1542.00260554478	1417.19995117188
1542.62964154291	1416.80004882813
1543.25659581655	1412.80004882813
1543.8834683732	1417.59997558594
1544.51025922034	1419.19995117188
1545.13696836544	1408.40002441406
1545.76359581601	1402.80004882813
1546.39014157952	1381.19995117188
1547.01660566345	1378.59997558594
1547.64298807531	1384.59997558594
1548.26928882255	1402.40002441406
1548.89550791269	1395.59997558594
1549.52164535318	1402.19995117188
1550.14770115153	1409.80004882813
1550.77367531521	1404.40002441406
1551.39956785171	1401.80004882813
1552.0253787685	1408.19995117188
1552.65110807307	1399
1553.2767557729	1391.59997558594
1553.90232187548	1392
1554.52780638828	1393.40002441406
1555.15320931879	1382.40002441406
1555.77853067447	1389.40002441406
1556.40377046282	1377.40002441406
1557.02892869132	1384.59997558594
1557.65400536744	1388.19995117188
1558.27900049866	1409.19995117188
1558.90391409247	1396.40002441406
1559.52874615633	1392.40002441406
1560.15349669773	1402.59997558594
1560.77816572414	1410.59997558594
1561.40275324305	1410.19995117188
1562.02725926192	1455.40002441406
1562.65168378824	1420
1563.27602682948	1415.19995117188
1563.90028839311	1408.40002441406
1564.52446848662	1420.59997558594
1565.14856711748	1429
1565.77258429316	1434.40002441406
1566.39652002113	1414.59997558594
1567.02037430887	1401.19995117188
1567.64414716387	1402.80004882813
1568.26783859357	1400.40002441406
1568.89144860547	1403.19995117188
1569.51497720703	1400.40002441406
1570.13842440573	1405
1570.76179020904	1400.80004882813
1571.38507462442	1404.80004882813
1572.00827765936	1398.59997558594
1572.63139932132	1412.19995117188
1573.25443961777	1422.19995117188
1573.87739855618	1417.59997558594
1574.50027614402	1407.59997558594
1575.12307238877	1422.40002441406
1575.74578729789	1412
1576.36842087885	1414.59997558594
1576.99097313912	1410.19995117188
1577.61344408616	1413.80004882813
1578.23583372745	1403.59997558594
1578.85814207046	1401.80004882813
1579.48036912264	1393
1580.10251489147	1391.40002441406
1580.72457938441	1396
1581.34656260893	1403.19995117188
1581.9684645725	1402.59997558594
1582.59028528258	1399.80004882813
1583.21202474663	1398.80004882813
1583.83368297212	1404
1584.45525996652	1392.59997558594
1585.07675573728	1393
1585.69817029188	1398.40002441406
1586.31950363778	1402.40002441406
1586.94075578243	1395.19995117188
1587.5619267333	1385.59997558594
1588.18301649786	1399.19995117188
1588.80402508357	1386
1589.42495249788	1375.40002441406
1590.04579874826	1367.59997558594
1590.66656384217	1374.40002441406
1591.28724778707	1361
1591.90785059042	1355.40002441406
1592.52837225968	1357.80004882813
1593.14881280232	1360.19995117188
1593.76917222578	1352.59997558594
1594.38945053753	1358.59997558594
1595.00964774502	1351.80004882813
1595.62976385573	1355
1596.24979887709	1345.40002441406
1596.86975281657	1347.59997558594
1597.48962568164	1358.19995117188
1598.10941747974	1359
1598.72912821832	1375.40002441406
1599.34875790486	1367.80004882813
1599.9683065468	1356.40002441406
1600.58777415159	1357.59997558594
1601.2071607267	1344.19995117188
1601.82646627958	1332.80004882813
1602.44569081769	1332
1603.06483434846	1326.59997558594
1603.68389687937	1326.80004882813
1604.30287841786	1319.80004882813
1604.92177897139	1318.19995117188
1605.54059854741	1323.19995117188
1606.15933715337	1325.80004882813
1606.77799479672	1332.40002441406
1607.39657148492	1337.19995117188
1608.01506722542	1345
1608.63348202566	1332.59997558594
1609.2518158931	1340
1609.87006883519	1336.40002441406
1610.48824085939	1343
1611.10633197312	1337
1611.72434218386	1344
1612.34227149904	1339
1612.96011992612	1336.40002441406
1613.57788747254	1342.19995117188
1614.19557414575	1340.59997558594
1614.8131799532	1328
1615.43070490234	1325.59997558594
1616.04814900061	1327.59997558594
1616.66551225545	1322.59997558594
1617.28279467433	1325.80004882813
1617.89999626467	1328
1618.51711703393	1322.59997558594
1619.13415698955	1316.40002441406
1619.75111613898	1323.19995117188
1620.36799448966	1324.40002441406
1620.98479204903	1318.40002441406
1621.60150882455	1313
1622.21814482364	1321.40002441406
1622.83470005376	1331.19995117188
1623.45117452235	1337.40002441406
1624.06756823685	1338.40002441406
1624.6838812047	1331.19995117188
1625.30011343335	1340.40002441406
1625.91626493022	1342.80004882813
1626.53233570278	1349.80004882813
1627.14832575845	1344.40002441406
1627.76423510468	1346.19995117188
1628.38006374891	1345.40002441406
1628.99581169857	1361.40002441406
1629.61147896111	1356.80004882813
1630.22706554397	1347
1630.84257145457	1345.59997558594
1631.45799670038	1339.59997558594
1632.07334128881	1332.59997558594
1632.6886052273	1349.19995117188
1633.3037885233	1324.80004882813
1633.91889118425	1323.19995117188
1634.53391321757	1327.19995117188
1635.1488546307	1321.80004882813
1635.76371543108	1306.80004882813
1636.37849562616	1304.59997558594
1636.99319522335	1305.80004882813
1637.60781423009	1294
1638.22235265383	1315.80004882813
1638.83681050198	1315
1639.451187782	1309.40002441406
1640.0654845013	1313.19995117188
1640.67970066734	1308
1641.29383628752	1313.80004882813
1641.9078913693	1320
1642.5218659201	1329.59997558594
1643.13575994735	1319.59997558594
1643.74957345849	1322
1644.36330646094	1330.80004882813
1644.97695896213	1332.19995117188
1645.59053096951	1334.59997558594
1646.20402249049	1331.40002441406
1646.8174335325	1340.19995117188
1647.43076410298	1352.59997558594
1648.04401420935	1363.59997558594
1648.65718385905	1373.19995117188
1649.2702730595	1368.19995117188
1649.88328181812	1369.19995117188
1650.49621014236	1369.80004882813
1651.10905803963	1354.19995117188
1651.72182551735	1358.40002441406
1652.33451258297	1356
1652.9471192439	1345.59997558594
1653.55964550757	1342.80004882813
1654.1720913814	1340.19995117188
1654.78445687283	1338
1655.39674198926	1324
1656.00894673814	1317.40002441406
1656.62107112688	1315.19995117188
1657.23311516291	1306.19995117188
1657.84507885365	1304.40002441406
1658.45696220652	1292.59997558594
1659.06876522895	1289
1659.68048792835	1287.19995117188
1660.29213031217	1281.80004882813
1660.90369238779	1286.59997558594
1661.51517416267	1283.59997558594
1662.12657564421	1279.59997558594
1662.73789683984	1288.19995117188
1663.34913775697	1281
1663.96029840303	1272
1664.57137878544	1266.19995117188
1665.18237891161	1261.59997558594
1665.79329878897	1267.40002441406
1666.40413842493	1258.19995117188
1667.01489782691	1259
1667.62557700233	1262.40002441406
1668.2361759586	1262.19995117188
1668.84669470315	1260.59997558594
1669.4571332434	1250.19995117188
1670.06749158675	1250.19995117188
1670.67776974062	1253.59997558594
1671.28796771243	1243.80004882813
1671.8980855096	1254.19995117188
1672.50812313954	1256.59997558594
1673.11808060967	1252.59997558594
1673.72795792739	1265.59997558594
1674.33775510013	1266
1674.9474721353	1261.19995117188
1675.55710904031	1260.40002441406
1676.16666582257	1262.59997558594
1676.7761424895	1274.59997558594
1677.38553904851	1276
1677.99485550702	1260.59997558594
1678.60409187243	1258.80004882813
1679.21324815215	1242.19995117188
1679.8223243536	1239.80004882813
1680.43132048419	1236.40002441406
1681.04023655132	1233.59997558594
1681.64907256241	1233
1682.25782852487	1232.59997558594
1682.86650444611	1233.80004882813
1683.47510033353	1228.80004882813
1684.08361619455	1245.40002441406
1684.69205203657	1242.80004882813
1685.300407867	1248.80004882813
1685.90868369325	1248.59997558594
1686.51687952272	1248
1687.12499536283	1235.40002441406
1687.73303122098	1236.19995117188
1688.34098710457	1234
1688.94886302101	1238.40002441406
1689.55665897772	1230
1690.16437498208	1227
1690.77201104152	1235.40002441406
1691.37956716342	1240.59997558594
1691.9870433552	1240.40002441406
1692.59443962426	1245.80004882813
1693.20175597801	1241.59997558594
1693.80899242384	1247
1694.41614896916	1238.19995117188
1695.02322562138	1235.40002441406
1695.63022238789	1230.59997558594
1696.23713927609	1235
1696.8439762934	1239.19995117188
1697.4507334472	1235.40002441406
1698.05741074491	1238.59997558594
1698.66400819391	1234.80004882813
1699.27052580161	1229.19995117188
1699.87696357542	1230.59997558594
1700.48332152272	1213.80004882813
1701.08959965092	1220
1701.69579796742	1216.59997558594
1702.30191647962	1202.19995117188
1702.90795519491	1197.19995117188
1703.51391412069	1196.40002441406
1704.11979326437	1205.59997558594
1704.72559263332	1206
1705.33131223496	1205.40002441406
1705.93695207668	1200
1706.54251216588	1204.80004882813
1707.14799250994	1206.40002441406
1707.75339311628	1203.40002441406
1708.35871399227	1198
1708.96395514532	1199.59997558594
1709.56911658282	1203.40002441406
