634.948122577771	1111
635.690341530823	1112.59997558594
636.43246851086	1115
637.174503525845	1104
637.916446583745	1107.19995117188
638.658297692538	1102.40002441406
639.400056860179	1109.19995117188
640.141724094637	1106.40002441406
640.883299403885	1105.59997558594
641.62478279588	1110.40002441406
642.366174278594	1115.59997558594
643.107473859989	1111.80004882813
643.848681548029	1116.40002441406
644.589797350679	1110.19995117188
645.330821275901	1110.19995117188
646.071753331665	1107.19995117188
646.812593525922	1113.19995117188
647.553341866646	1107.19995117188
648.293998361798	1116.59997558594
649.03456301933	1109.80004882813
649.775035847216	1103.80004882813
650.515416853409	1106.40002441406
651.255706045874	1107.19995117188
651.995903432568	1106.59997558594
652.736009021453	1107.80004882813
653.476022820486	1110.40002441406
654.215944837629	1111.19995117188
654.955775080842	1110.40002441406
655.695513558081	1115
656.435160277301	1122.19995117188
657.174715246465	1112.59997558594
657.914178473527	1120.40002441406
658.653549966449	1118.19995117188
659.392829733176	1112.40002441406
660.132017781678	1121.19995117188
660.871114119901	1118
661.610118755803	1106.80004882813
662.349031697343	1109.40002441406
663.087852952468	1120.80004882813
663.826582529139	1116.40002441406
664.565220435305	1111.19995117188
665.30376667892	1110.59997558594
666.04222126794	1112.80004882813
666.780584210316	1111.19995117188
667.518855514	1103.59997558594
668.25703518694	1107
668.995123237096	1118.40002441406
669.733119672413	1115.59997558594
670.471024500842	1112
671.208837730333	1122.40002441406
671.946559368839	1122.40002441406
672.684189424308	1112.19995117188
673.421727904689	1119.19995117188
674.159174817929	1121.80004882813
674.896530171977	1116.80004882813
675.633793974786	1120.80004882813
676.370966234295	1127.80004882813
677.108046958461	1119
677.845036155219	1119.80004882813
678.581933832528	1118
679.318739998323	1117
680.055454660558	1122.19995117188
680.792077827172	1122.19995117188
681.528609506116	1123.80004882813
682.265049705331	1121
683.001398432759	1123.80004882813
683.737655696349	1119.19995117188
684.47382150404	1118.19995117188
685.20989586378	1126.40002441406
685.945878783503	1129.80004882813
686.68177027116	1119.19995117188
687.417570334688	1117.19995117188
688.153278982032	1116.19995117188
688.888896221129	1113.59997558594
689.624422059921	1117.40002441406
690.359856506349	1122.40002441406
691.095199568354	1121.19995117188
691.830451253874	1111.59997558594
692.565611570844	1127.40002441406
693.300680527212	1124.19995117188
694.03565813091	1124.59997558594
694.770544389877	1128.19995117188
695.505339312053	1130
696.240042905372	1125.80004882813
696.974655177772	1132
697.70917613719	1134
698.443605791561	1130.40002441406
699.177944148826	1134.19995117188
699.912191216909	1126.19995117188
700.646347003755	1132.40002441406
701.380411517295	1136
702.114384765465	1133.40002441406
702.848266756195	1129.59997558594
703.582057497421	1132.40002441406
704.315756997074	1125
705.049365263089	1126.40002441406
705.782882303399	1127.80004882813
706.516308125936	1132.59997558594
707.249642738626	1131
707.982886149403	1133.19995117188
708.716038366204	1124.40002441406
709.449099396949	1115.40002441406
710.182069249577	1129.80004882813
710.914947932009	1114.80004882813
711.647735452181	1113.40002441406
712.380431818022	1111.40002441406
713.113037037454	1112.19995117188
713.845551118411	1111.19995117188
714.577974068818	1117
715.310305896604	1115.80004882813
716.042546609694	1122.59997558594
716.774696216013	1120.59997558594
717.506754723493	1113.80004882813
718.238722140053	1129.40002441406
718.970598473624	1133
719.702383732127	1130.59997558594
720.43407792349	1132.19995117188
721.165681055634	1129.40002441406
721.897193136486	1142.80004882813
722.628614173966	1142
723.359944175997	1133.80004882813
724.091183150505	1131.80004882813
724.822331105412	1134
725.553388048638	1130
726.284353988106	1121.40002441406
727.015228931734	1129.59997558594
727.746012887449	1129
728.476705863162	1131.59997558594
729.207307866803	1136.19995117188
729.937818906289	1129.80004882813
730.668238989535	1135.59997558594
731.398568124459	1123.40002441406
732.128806318986	1129.40002441406
732.858953581034	1127.59997558594
733.589009918514	1134.59997558594
734.318975339348	1138.19995117188
735.048849851452	1130.59997558594
735.778633462744	1127.59997558594
736.508326181137	1139.40002441406
737.237928014549	1132.19995117188
737.967438970897	1135.19995117188
738.696859058095	1135
739.426188284054	1131.19995117188
740.155426656692	1131.19995117188
740.884574183922	1133.19995117188
741.613630873659	1124.40002441406
742.342596733815	1131
743.071471772302	1129.19995117188
743.800255997034	1126.40002441406
744.528949415921	1133.80004882813
745.257552036877	1130.19995117188
745.986063867811	1132.59997558594
746.714484916638	1134.19995117188
747.442815191261	1131.40002441406
748.171054699597	1131
748.899203449554	1135.40002441406
749.627261449039	1130.80004882813
750.355228705966	1126
751.083105228239	1129.40002441406
751.810891023765	1136.59997558594
752.538586100459	1138.80004882813
753.266190466218	1133.59997558594
753.99370412896	1153.80004882813
754.721127096582	1149.59997558594
755.448459377	1155.80004882813
756.175700978114	1141.19995117188
756.902851907828	1140
757.629912174055	1143
758.356881784688	1136.40002441406
759.083760747639	1133.80004882813
759.810549070817	1139.80004882813
760.537246762113	1148.80004882813
761.263853829442	1138.80004882813
761.990370280698	1135.40002441406
762.716796123791	1131
763.443131366618	1144.59997558594
764.169376017082	1143.19995117188
764.895530083085	1154
765.621593572527	1144.80004882813
766.347566493312	1147.40002441406
767.073448853336	1159.40002441406
767.799240660502	1164.80004882813
768.524941922707	1158.40002441406
769.250552647854	1171.19995117188
769.976072843836	1168.40002441406
770.701502518551	1168.40002441406
771.426841679905	1168.59997558594
772.152090335793	1176.19995117188
772.877248494107	1175
773.602316162747	1170.80004882813
774.327293349609	1183.59997558594
775.052180062592	1184.40002441406
775.776976309589	1180.19995117188
776.501682098496	1172.59997558594
777.226297437206	1165.80004882813
777.950822333616	1167.40002441406
778.675256795621	1170.59997558594
779.399600831111	1168
780.123854447983	1171.59997558594
780.84801765413	1173
781.572090457441	1172.59997558594
782.296072865811	1163
783.019964887131	1161.59997558594
783.743766529297	1155
784.467477800194	1153.80004882813
785.191098707719	1151.40002441406
785.914629259756	1147.80004882813
786.638069464194	1151
787.361419328932	1140.40002441406
788.084678861852	1143
788.807848070845	1133.19995117188
789.530926963798	1126.80004882813
790.253915548602	1131.19995117188
790.976813833144	1127.19995117188
791.699621825307	1129.40002441406
792.422339532986	1143
793.144966964061	1134.80004882813
793.86750412642	1139.59997558594
794.589951027946	1146.40002441406
795.312307676536	1146
796.03457408006	1140.19995117188
796.756750246417	1138.80004882813
797.478836183477	1139.40002441406
798.200831899137	1147.19995117188
798.92273740127	1138.19995117188
799.644552697769	1140.59997558594
800.36627779651	1135.19995117188
801.087912705374	1145
801.809457432251	1144.19995117188
802.530911985017	1148.19995117188
803.252276371558	1139
803.973550599748	1139
804.694734677472	1130.19995117188
805.415828612611	1148.40002441406
806.136832413045	1147
806.857746086646	1151.59997558594
807.578569641305	1143
808.299303084892	1143.40002441406
809.019946425289	1151.59997558594
809.740499670372	1146.40002441406
810.460962828022	1142.80004882813
811.181335906114	1139
811.901618912524	1144.40002441406
812.621811855131	1141.19995117188
813.341914741809	1134.59997558594
814.061927580433	1144.19995117188
814.781850378881	1147.59997558594
815.501683145025	1145.19995117188
816.221425886743	1144.40002441406
816.941078611903	1150.59997558594
817.660641328387	1136.40002441406
818.380114044065	1132
819.099496766808	1129.80004882813
819.818789504492	1139.59997558594
820.53799226499	1135.80004882813
821.257105056168	1127.59997558594
821.976127885904	1134.19995117188
822.695060762064	1138
823.413903692525	1148.40002441406
824.132656685151	1149
824.851319747817	1158
825.569892888388	1151.80004882813
826.288376114739	1151.19995117188
827.006769434737	1152.40002441406
827.725072856249	1157.19995117188
828.443286387142	1148.59997558594
829.161410035285	1152.19995117188
829.87944380855	1145.19995117188
830.597387714798	1135.59997558594
831.315241761898	1138.80004882813
832.033005957715	1147.59997558594
832.750680310119	1140
833.468264826969	1146.80004882813
834.18575951614	1140.59997558594
834.903164385486	1144.19995117188
835.620479442878	1150.19995117188
836.337704696181	1151
837.054840153255	1141.59997558594
837.771885821962	1146
838.488841710172	1146.19995117188
839.20570782574	1149
839.922484176531	1136.40002441406
840.639170770409	1146.40002441406
841.355767615231	1137.40002441406
842.072274718864	1147.19995117188
842.788692089164	1143.80004882813
843.505019733993	1140.59997558594
844.221257661209	1145
844.937405878676	1145
845.65346439425	1141.19995117188
846.369433215789	1138.19995117188
847.085312351156	1134.80004882813
847.801101808205	1138.40002441406
848.516801594793	1135.80004882813
849.232411718781	1134.80004882813
849.947932188021	1127
850.663363010376	1131.80004882813
851.378704193698	1142
852.093955745842	1159.19995117188
852.809117674669	1143.59997558594
853.524189988028	1146.40002441406
854.239172693778	1148.59997558594
854.954065799768	1151.80004882813
855.668869313857	1139
856.383583243899	1138.80004882813
857.098207597743	1141.59997558594
857.812742383246	1144.40002441406
858.527187608255	1139.19995117188
859.241543280628	1141.80004882813
859.955809408218	1144.59997558594
860.669985998868	1153.40002441406
861.384073060437	1152.80004882813
862.098070600772	1158.19995117188
862.811978627724	1156.40002441406
863.52579714914	1152
864.239526172873	1153
864.953165706776	1141.59997558594
865.666715758687	1144.59997558594
866.380176336464	1144.40002441406
867.093547447951	1142.40002441406
867.806829100996	1138.80004882813
868.520021303444	1137.19995117188
869.233124063149	1132.80004882813
869.94613738795	1134.59997558594
870.659061285693	1138.59997558594
871.37189576423	1135
872.084640831403	1139
872.797296495057	1157.19995117188
873.509862763039	1145.19995117188
874.22233964319	1150.40002441406
874.934727143353	1141.80004882813
875.647025271374	1153.80004882813
876.359234035097	1151
877.071353442361	1140.40002441406
877.783383501015	1147
878.495324218895	1154.19995117188
879.207175603844	1150.40002441406
879.918937663705	1144.40002441406
880.630610406318	1152
881.342193839524	1151.40002441406
882.053687971161	1149.19995117188
882.765092809069	1163.19995117188
883.476408361091	1146.19995117188
884.187634635066	1151.59997558594
884.898771638828	1156.40002441406
885.609819380221	1148.80004882813
886.320777867076	1146.59997558594
887.031647107236	1145.59997558594
887.742427108536	1145.19995117188
888.453117878816	1146.80004882813
889.16371942591	1154.19995117188
889.874231757652	1155.40002441406
890.584654881883	1154.80004882813
891.294988806434	1145.19995117188
892.005233539141	1148.19995117188
892.715389087837	1152.80004882813
893.42545546036	1154.19995117188
894.135432664543	1148.59997558594
894.845320708216	1147.40002441406
895.555119599216	1152
896.264829345375	1156.19995117188
896.974449954526	1157.59997558594
897.683981434496	1165.19995117188
898.393423793125	1159.19995117188
899.102777038235	1158.59997558594
899.812041177664	1160.40002441406
900.521216219239	1166
901.230302170793	1151.59997558594
901.939299040155	1156
902.64820683515	1152.40002441406
903.357025563612	1152
904.065755233368	1152
904.774395852247	1152.40002441406
905.482947428076	1151.80004882813
906.191409968682	1154.59997558594
906.899783481897	1149.80004882813
907.608067975538	1148.80004882813
908.316263457443	1152
909.02436993543	1147
909.732387417327	1156.19995117188
910.440315910959	1150.80004882813
911.148155424154	1162.40002441406
911.855905964731	1149.59997558594
912.563567540521	1150.59997558594
913.271140159339	1157
913.978623829017	1155.40002441406
914.686018557374	1154.40002441406
915.393324352237	1158
916.100541221421	1156
916.807669172752	1157
917.514708214054	1147
918.221658353142	1141.80004882813
918.928519597843	1139.80004882813
919.635291955976	1139
920.341975435358	1142.40002441406
921.048570043813	1151.59997558594
921.75507578916	1158.40002441406
922.461492679212	1162.80004882813
923.167820721795	1162.59997558594
923.874059924726	1161.19995117188
924.58021029582	1157.59997558594
925.286271842893	1150
925.992244573769	1160
926.698128496262	1155.40002441406
927.403923618184	1153.40002441406
928.109629947355	1136.80004882813
928.815247491593	1147.40002441406
929.520776258708	1140.40002441406
930.226216256519	1152.19995117188
930.931567492841	1153.59997558594
931.636829975482	1155.19995117188
932.342003712263	1150.40002441406
933.047088710995	1146.19995117188
933.752084979491	1154.80004882813
934.456992525564	1162
935.161811357024	1161.59997558594
935.866541481688	1147.59997558594
936.571182907363	1143.19995117188
937.275735641861	1140
937.980199692995	1143.80004882813
938.684575068572	1145.19995117188
939.388861776411	1138.80004882813
940.093059824311	1145
940.797169220085	1146.59997558594
941.501189971544	1137.40002441406
942.205122086495	1134.19995117188
942.908965572751	1139
943.612720438111	1135.80004882813
944.316386690391	1130.19995117188
945.019964337391	1129.80004882813
945.723453386924	1131.59997558594
946.426853846795	1142
947.130165724808	1142.40002441406
947.83338902877	1138.59997558594
948.536523766488	1138
949.239569945764	1139.40002441406
949.942527574402	1143.59997558594
950.64539666021	1147.80004882813
951.348177210993	1144.40002441406
952.050869234548	1132.59997558594
952.753472738683	1132.40002441406
953.455987731199	1127.40002441406
954.158414219898	1133
954.860752212587	1134.40002441406
955.563001717061	1132
956.265162741124	1127.40002441406
956.967235292576	1125
957.669219379224	1139.40002441406
958.371115008857	1140.59997558594
959.072922189283	1135.59997558594
959.774640928301	1132.19995117188
960.476271233708	1134.59997558594
961.177813113301	1134.19995117188
961.879266574882	1128
962.580631626248	1136.59997558594
963.281908275194	1136
963.98309652952	1136.19995117188
964.684196397022	1144.40002441406
965.3852078855	1145.19995117188
966.086131002745	1142.59997558594
966.786965756555	1147.40002441406
967.487712154726	1150
968.188370205055	1145.40002441406
968.888939915331	1143.59997558594
969.589421293352	1150.19995117188
970.289814346909	1146.80004882813
970.990119083801	1145.80004882813
971.690335511819	1140.59997558594
972.39046363875	1145.40002441406
973.090503472398	1143.80004882813
973.790455020545	1137.19995117188
974.490318290987	1144.40002441406
975.190093291516	1139.40002441406
975.889780029923	1134.19995117188
976.589378513998	1131.80004882813
977.288888751527	1141.19995117188
977.988310750308	1143
978.687644518122	1146.40002441406
979.386890062767	1140.59997558594
980.086047392025	1150.40002441406
980.785116513689	1136.59997558594
981.484097435542	1137.80004882813
982.182990165377	1140.40002441406
982.88179471098	1136.19995117188
983.580511080137	1123
984.279139280632	1126.40002441406
984.977679320253	1129.19995117188
985.67613120679	1130
986.374494948027	1129.40002441406
987.072770551745	1127.59997558594
987.770958025731	1137.80004882813
988.469057377772	1141
989.167068615649	1139.40002441406
989.864991747145	1137.59997558594
990.562826780047	1138.40002441406
991.260573722134	1139.80004882813
991.958232581195	1141.40002441406
992.655803365003	1142.80004882813
993.353286081346	1144.40002441406
994.050680738006	1140.59997558594
994.74798734276	1150
995.44520590339	1152.59997558594
996.142336427681	1147.19995117188
996.839378923407	1146.80004882813
997.536333398348	1145
998.233199860289	1143.40002441406
998.929978317004	1127.19995117188
999.626668776274	1127.40002441406
1000.32327124587	1132.19995117188
1001.01978573359	1134
1001.71621224718	1140.19995117188
1002.41255079445	1130.40002441406
1003.10880138315	1132.80004882813
1003.80496402107	1145
1004.50103871599	1142
1005.19702547567	1152
1005.8929243079	1153.19995117188
1006.58873522045	1156
1007.2844582211	1162.19995117188
1007.98009331761	1154.80004882813
1008.67564051776	1156.19995117188
1009.37109982933	1153.59997558594
1010.06647126009	1145.40002441406
1010.7617548178	1154.59997558594
1011.45695051026	1139.40002441406
1012.15205834522	1146.80004882813
1012.84707833045	1157.40002441406
1013.54201047373	1145.80004882813
1014.23685478284	1143
1014.93161126553	1145.40002441406
1015.62627992959	1142.40002441406
1016.32086078277	1140.19995117188
1017.01535383285	1142.59997558594
1017.70975908761	1142
1018.40407655479	1140.80004882813
1019.09830624219	1143.40002441406
1019.79244815755	1138
1020.48650230866	1149
1021.18046870328	1147.80004882813
1021.87434734917	1155.19995117188
1022.56813825411	1146.40002441406
1023.26184142584	1146.19995117188
1023.95545687216	1141.40002441406
1024.64898460082	1146.19995117188
1025.34242461957	1148.80004882813
1026.0357769362	1151.59997558594
1026.72904155846	1144.19995117188
1027.42221849412	1156.40002441406
1028.11530775094	1150
1028.80830933668	1151.80004882813
1029.50122325911	1157.40002441406
1030.19404952599	1156.80004882813
1030.88678814508	1156.19995117188
1031.57943912414	1141.19995117188
1032.27200247093	1141.40002441406
1032.96447819323	1131.59997558594
1033.65686629878	1140.40002441406
1034.34916679534	1136
1035.04137969068	1136.80004882813
1035.73350499256	1135.80004882813
1036.42554270874	1139
1037.11749284697	1140.40002441406
1037.80935541501	1138.40002441406
1038.50113042062	1134.59997558594
1039.19281787156	1143.80004882813
1039.88441777559	1138.80004882813
1040.57593014046	1146.19995117188
1041.26735497393	1140
1041.95869228376	1138.19995117188
1042.6499420777	1143
1043.3411043635	1142.80004882813
1044.03217914893	1154.80004882813
1044.72316644174	1150.59997558594
1045.41406624968	1146.40002441406
1046.1048785805	1152.19995117188
1046.79560344197	1153.19995117188
1047.48624084182	1148.80004882813
1048.17679078783	1151
1048.86725328774	1146.19995117188
1049.55762834929	1148
1050.24791598025	1143.59997558594
1050.93811618837	1139.59997558594
1051.62822898139	1128.59997558594
1052.31825436707	1138
1053.00819235315	1147.59997558594
1053.6980429474	1151.40002441406
1054.38780615755	1145.19995117188
1055.07748199136	1145.59997558594
1055.76707045658	1140.19995117188
1056.45657156095	1140.80004882813
1057.14598531222	1130
1057.83531171814	1135.40002441406
1058.52455078646	1140.40002441406
1059.21370252494	1127.19995117188
1059.90276694129	1134.59997558594
1060.5917440433	1132.59997558594
1061.28063383868	1137.19995117188
1061.9694363352	1146.19995117188
1062.65815154059	1144.59997558594
1063.34677946261	1151
1064.03532010899	1148
1064.72377348748	1156.80004882813
1065.41213960583	1149
1066.10041847177	1137
1066.78861009306	1142.59997558594
1067.47671447743	1145.40002441406
1068.16473163263	1138.59997558594
1068.85266156639	1148
1069.54050428647	1140.59997558594
1070.2282598006	1151.40002441406
1070.91592811652	1140
1071.60350924198	1148.40002441406
1072.29100318471	1138.59997558594
1072.97840995245	1145.80004882813
1073.66572955295	1137.80004882813
1074.35296199394	1141.19995117188
1075.04010728316	1148.19995117188
1075.72716542836	1147.80004882813
1076.41413643726	1141
1077.10102031761	1137
1077.78781707715	1134.59997558594
1078.4745267236	1133.59997558594
1079.16114926471	1130.19995117188
1079.84768470822	1130
1080.53413306185	1130.80004882813
1081.22049433336	1135
1081.90676853046	1147.59997558594
1082.5929556609	1139
1083.27905573241	1143.80004882813
1083.96506875272	1146.19995117188
1084.65099472957	1141.40002441406
1085.3368336707	1140.40002441406
1086.02258558383	1135.59997558594
1086.70825047669	1138.80004882813
1087.39382835703	1141.19995117188
1088.07931923257	1143.59997558594
1088.76472311104	1138.80004882813
1089.45004000018	1149
1090.13526990771	1137.19995117188
1090.82041284137	1135.80004882813
1091.50546880889	1124.80004882813
1092.19043781799	1123.80004882813
1092.87531987642	1129
1093.56011499188	1127.59997558594
1094.24482317212	1130.19995117188
1094.92944442486	1131
1095.61397875783	1132
1096.29842617876	1134.59997558594
1096.98278669537	1133.40002441406
1097.6670603154	1132.19995117188
1098.35124704656	1125.40002441406
1099.03534689659	1128.59997558594
1099.71935987322	1135
1100.40328598416	1136.59997558594
1101.08712523713	1144.40002441406
1101.77087763988	1138.40002441406
1102.45454320012	1133.80004882813
1103.13812192557	1137.59997558594
1103.82161382396	1136.19995117188
1104.50501890301	1133.40002441406
1105.18833717045	1142.59997558594
1105.87156863399	1142.59997558594
1106.55471330137	1137.40002441406
1107.2377711803	1149.59997558594
1107.9207422785	1149.19995117188
1108.60362660369	1148
1109.2864241636	1146.40002441406
1109.96913496594	1157.59997558594
1110.65175901844	1139
1111.33429632882	1140.59997558594
1112.01674690479	1140
1112.69911075408	1142
1113.38138788439	1139
1114.06357830346	1137.59997558594
1114.745682019	1147.19995117188
1115.42769903872	1151.80004882813
1116.10962937035	1152.80004882813
1116.7914730216	1151.80004882813
1117.47323000018	1151.40002441406
1118.15490031382	1145.80004882813
1118.83648397022	1146.40002441406
1119.51798097712	1136.19995117188
1120.1993913422	1133.80004882813
1120.88071507321	1134
1121.56195217784	1135.40002441406
1122.24310266381	1129.80004882813
1122.92416653884	1129.19995117188
1123.60514381064	1135.80004882813
1124.28603448692	1135.80004882813
1124.9668385754	1147.59997558594
1125.64755608378	1142.40002441406
1126.32818701978	1141.80004882813
1127.00873139111	1142.80004882813
1127.68918920548	1152.80004882813
1128.3695604706	1154.40002441406
1129.04984519419	1153.19995117188
1129.73004338394	1150.80004882813
1130.41015504758	1146.59997558594
1131.09018019281	1148.80004882813
1131.77011882734	1144
1132.44997095888	1151.80004882813
1133.12973659514	1148.59997558594
1133.80941574381	1139.59997558594
1134.48900841263	1142
1135.16851460927	1137.19995117188
1135.84793434147	1133.80004882813
1136.52726761692	1138.40002441406
1137.20651444333	1142.19995117188
1137.8856748284	1146.19995117188
1138.56474877984	1137
1139.24373630536	1132.59997558594
1139.92263741265	1133.19995117188
1140.60145210943	1144.19995117188
1141.28018040339	1142.19995117188
1141.95882230225	1138.80004882813
1142.6373778137	1148.80004882813
1143.31584694545	1142.59997558594
1143.99422970519	1144.19995117188
1144.67252610064	1143.40002441406
1145.35073613949	1137.40002441406
1146.02885982944	1130.40002441406
1146.7068971782	1135.80004882813
1147.38484819347	1131.80004882813
1148.06271288294	1128.59997558594
1148.74049125432	1147
1149.41818331531	1139.59997558594
1150.0957890736	1143
1150.77330853689	1142
1151.45074171289	1143
1152.12808860928	1135.40002441406
1152.80534923378	1140.19995117188
1153.48252359407	1126.80004882813
1154.15961169786	1118.80004882813
1154.83661355283	1130.40002441406
1155.51352916669	1121.40002441406
1156.19035854713	1121.19995117188
1156.86710170185	1128.59997558594
1157.54375863855	1129.59997558594
1158.22032936491	1129.80004882813
1158.89681388863	1126.40002441406
1159.57321221741	1126.80004882813
1160.24952435894	1129
1160.92575032092	1141
1161.60189011103	1148.40002441406
1162.27794373697	1137
1162.95391120644	1137.19995117188
1163.62979252712	1143.19995117188
1164.3055877067	1152.40002441406
1164.98129675288	1140.80004882813
1165.65691967336	1147.19995117188
1166.33245647581	1142.80004882813
1167.00790716792	1145.19995117188
1167.6832717574	1141.80004882813
1168.35855025193	1140.19995117188
1169.0337426592	1142.59997558594
1169.70884898689	1140.59997558594
1170.3838692427	1133.59997558594
1171.05880343431	1134.19995117188
1171.73365156941	1135.40002441406
1172.40841365569	1135.80004882813
1173.08308970083	1135.59997558594
1173.75767971253	1136.80004882813
1174.43218369847	1142
1175.10660166633	1137.40002441406
1175.7809336238	1136.19995117188
1176.45517957857	1128.80004882813
1177.12933953832	1131.19995117188
1177.80341351073	1138.40002441406
1178.47740150349	1139
1179.15130352429	1147.80004882813
1179.8251195808	1151.80004882813
1180.49884968071	1151.40002441406
1181.1724938317	1153
1181.84605204145	1144.19995117188
1182.51952431766	1147.80004882813
1183.19291066799	1158.59997558594
1183.86621110013	1158
1184.53942562176	1164
1185.21255424057	1158
1185.88559696422	1158.59997558594
1186.55855380041	1151.19995117188
1187.2314247568	1150
1187.90420984109	1152.80004882813
1188.57690906095	1144.40002441406
1189.24952242405	1150
1189.92204993808	1152.80004882813
1190.59449161071	1159
1191.26684744962	1152.59997558594
1191.93911746249	1155
1192.61130165699	1153.19995117188
1193.28340004081	1155.59997558594
1193.95541262161	1163.40002441406
1194.62733940707	1155.40002441406
1195.29918040487	1155.80004882813
1195.97093562269	1158
1196.64260506819	1164.19995117188
1197.31418874905	1153.59997558594
1197.98568667295	1152
1198.65709884755	1151.59997558594
1199.32842528053	1159.80004882813
1199.99966597957	1148.19995117188
1200.67082095234	1142.40002441406
1201.3418902065	1135.40002441406
1202.01287374974	1147
1202.68377158971	1146.40002441406
1203.3545837341	1135.80004882813
1204.02531019057	1141
1204.6959509668	1135.80004882813
1205.36650607045	1138
1206.03697550919	1143.80004882813
1206.70735929069	1134.59997558594
1207.37765742263	1141.40002441406
1208.04786991266	1140.40002441406
1208.71799676846	1140.59997558594
1209.38803799769	1138.59997558594
1210.05799360803	1137.80004882813
1210.72786360714	1145.19995117188
1211.39764800268	1141.19995117188
1212.06734680233	1148.19995117188
1212.73696001375	1148.19995117188
1213.4064876446	1146.59997558594
1214.07592970255	1140.19995117188
1214.74528619526	1133.80004882813
1215.4145571304	1133.19995117188
1216.08374251564	1138.59997558594
1216.75284235863	1137.40002441406
1217.42185666704	1139.59997558594
1218.09078544854	1129.80004882813
1218.75962871078	1123.40002441406
1219.42838646143	1138.40002441406
1220.09705870816	1127.59997558594
1220.76564545861	1136.19995117188
1221.43414672046	1133.80004882813
1222.10256250136	1129.59997558594
1222.77089280898	1136.59997558594
1223.43913765098	1135.19995117188
1224.107297035	1130.40002441406
1224.77537096873	1129.59997558594
1225.44335945981	1133.80004882813
1226.1112625159	1128
1226.77908014467	1125
1227.44681235376	1134
1228.11445915085	1135.59997558594
1228.78202054357	1136.80004882813
1229.44949653961	1124.80004882813
1230.11688714659	1128.19995117188
1230.7841923722	1131.19995117188
1231.45141222407	1124.40002441406
1232.11854670988	1130.40002441406
1232.78559583726	1142.19995117188
1233.45255961388	1126
1234.1194380474	1130.80004882813
1234.78623114546	1133
1235.45293891572	1133.19995117188
1236.11956136583	1133.80004882813
1236.78609850345	1143.19995117188
1237.45255033623	1138.59997558594
1238.11891687182	1140.19995117188
1238.78519811788	1138.59997558594
1239.45139408205	1135.40002441406
1240.11750477198	1133.19995117188
1240.78353019534	1127.59997558594
1241.44947035976	1135.40002441406
1242.11532527291	1121.80004882813
1242.78109494242	1126
1243.44677937595	1131.80004882813
1244.11237858115	1136
1244.77789256567	1134.59997558594
1245.44332133715	1134.80004882813
1246.10866490325	1135
1246.7739232716	1135.80004882813
1247.43909644987	1130.19995117188
1248.10418444569	1132.40002441406
1248.76918726671	1144.40002441406
1249.43410492059	1137.40002441406
1250.09893741496	1141.19995117188
1250.76368475747	1128.40002441406
1251.42834695576	1137.19995117188
1252.09292401749	1131.59997558594
1252.75741595029	1128
1253.42182276182	1135.80004882813
1254.08614445971	1133.59997558594
1254.75038105161	1136.59997558594
1255.41453254515	1135.40002441406
1256.07859894799	1144.19995117188
1256.74258026777	1127.40002441406
1257.40647651213	1124.40002441406
1258.0702876887	1127
1258.73401380514	1122
1259.39765486908	1126
1260.06121088817	1133.40002441406
1260.72468187004	1134.80004882813
1261.38806782233	1133
1262.05136875269	1128.59997558594
1262.71458466875	1133.40002441406
1263.37771557815	1128
1264.04076148854	1126
1264.70372240753	1128.80004882813
1265.3665983428	1128.40002441406
1266.02938930195	1129.59997558594
1266.69209529263	1128.80004882813
1267.35471632249	1134.40002441406
1268.01725239914	1128
1268.67970353024	1123.59997558594
1269.34206972342	1127.80004882813
1270.00435098631	1119.19995117188
1270.66654732655	1125.80004882813
1271.32865875177	1125.59997558594
1271.9906852696	1130.59997558594
1272.65262688768	1130.40002441406
1273.31448361365	1138.80004882813
1273.97625545514	1133
1274.63794241978	1134.19995117188
1275.2995445152	1135.80004882813
1275.96106174903	1138.40002441406
1276.62249412892	1135.40002441406
1277.28384166248	1132.40002441406
1277.94510435735	1137.19995117188
1278.60628222116	1128.59997558594
1279.26737526155	1131.59997558594
1279.92838348613	1135
1280.58930690255	1127.59997558594
1281.25014551842	1129.80004882813
1281.91089934139	1129.19995117188
1282.57156837907	1125
1283.2321526391	1141.40002441406
1283.89265212911	1139.19995117188
1284.55306685671	1137.80004882813
1285.21339682955	1125.19995117188
1285.87364205525	1118.19995117188
1286.53380254142	1116.59997558594
1287.19387829571	1110
1287.85386932573	1115.40002441406
1288.51377563911	1122.59997558594
1289.17359724348	1124
1289.83333414646	1130.40002441406
1290.49298635567	1126.40002441406
1291.15255387874	1123
1291.8120367233	1135.59997558594
1292.47143489696	1133
1293.13074840736	1125
1293.7899772621	1123.40002441406
1294.44912146882	1127.59997558594
1295.10818103513	1125
1295.76715596866	1119.40002441406
1296.42604627704	1119.59997558594
1297.08485196787	1129.59997558594
1297.74357304878	1133
1298.4022095274	1135
1299.06076141134	1142.40002441406
1299.71922870821	1132.59997558594
1300.37761142565	1136.40002441406
1301.03590957126	1128.19995117188
1301.69412315268	1133.40002441406
1302.3522521775	1126.59997558594
1303.01029665336	1128.59997558594
1303.66825658787	1127
1304.32613198865	1129.59997558594
1304.98392286332	1124.40002441406
1305.64162921948	1124
1306.29925106476	1130
1306.95678840677	1127.19995117188
1307.61424125312	1129.80004882813
1308.27160961145	1133.19995117188
1308.92889348934	1133.80004882813
1309.58609289443	1122.40002441406
1310.24320783432	1134.59997558594
1310.90023831664	1123.40002441406
1311.55718434898	1122.19995117188
1312.21404593897	1117.80004882813
1312.87082309421	1119.19995117188
1313.52751582233	1123.40002441406
1314.18412413092	1124.40002441406
1314.84064802761	1122.59997558594
1315.49708752	1123.19995117188
1316.1534426157	1129.19995117188
1316.80971332233	1133
1317.46589964749	1132.80004882813
1318.1220015988	1136.59997558594
1318.77801918386	1134.80004882813
1319.43395241028	1135.19995117188
1320.08980128567	1133.59997558594
1320.74556581764	1135.80004882813
1321.4012460138	1130.40002441406
1322.05684188176	1131.59997558594
1322.71235342911	1136.19995117188
1323.36778066347	1141
1324.02312359245	1137.19995117188
1324.67838222365	1143.59997558594
1325.33355656468	1146.40002441406
1325.98864662314	1146.40002441406
1326.64365240663	1137
1327.29857392277	1127.40002441406
1327.95341117915	1134.19995117188
1328.60816418339	1123.80004882813
1329.26283294308	1122.80004882813
1329.91741746582	1130
1330.57191775923	1136
1331.2263338309	1119.19995117188
1331.88066568843	1131.40002441406
1332.53491333943	1137.80004882813
1333.1890767915	1134.40002441406
1333.84315605224	1134.59997558594
1334.49715112925	1130.80004882813
1335.15106203013	1134.40002441406
1335.80488876249	1127.80004882813
1336.45863133391	1134
1337.112289752	1123.40002441406
1337.76586402437	1140.19995117188
1338.4193541586	1142.40002441406
1339.0727601623	1148.40002441406
1339.72608204306	1138.40002441406
1340.37931980849	1156
1341.03247346617	1145.40002441406
1341.68554302372	1147.80004882813
1342.33852848871	1136.19995117188
1342.99142986876	1145
1343.64424717145	1146.80004882813
1344.29698040438	1152.40002441406
1344.94962957515	1151.40002441406
1345.60219469135	1153.59997558594
1346.25467576058	1156.40002441406
1346.90707279042	1155.59997558594
1347.55938578848	1144
1348.21161476235	1148.19995117188
1348.86375971962	1145.40002441406
1349.51582066787	1144.19995117188
1350.16779761472	1146.19995117188
1350.81969056774	1153.59997558594
1351.47149953453	1143.59997558594
1352.12322452269	1136.19995117188
1352.77486553979	1140.19995117188
1353.42642259344	1144.40002441406
1354.07789569122	1151.80004882813
1354.72928484072	1149.80004882813
1355.38059004953	1158.59997558594
1356.03181132525	1154.80004882813
1356.68294867545	1165.40002441406
1357.33400210773	1157.40002441406
1357.98497162968	1162.40002441406
1358.63585724889	1159.40002441406
1359.28665897294	1157.19995117188
1359.93737680942	1155.59997558594
1360.58801076591	1161.80004882813
1361.23856085001	1165.19995117188
1361.88902706929	1172.59997558594
1362.53940943135	1165.59997558594
1363.18970794377	1168.19995117188
1363.83992261413	1172
1364.49005345003	1171
1365.14010045904	1169.59997558594
1365.79006364874	1159.59997558594
1366.43994302673	1175.80004882813
1367.08973860058	1165.19995117188
1367.73945037788	1162.19995117188
1368.38907836621	1171.80004882813
1369.03862257315	1158.40002441406
1369.68808300629	1155.59997558594
1370.3374596732	1157.80004882813
1370.98675258148	1157.80004882813
1371.63596173868	1157.19995117188
1372.28508715241	1155
1372.93412883024	1149.80004882813
1373.58308677974	1148.19995117188
1374.2319610085	1137.59997558594
1374.8807515241	1139.80004882813
1375.52945833412	1137.19995117188
1376.17808144612	1132.40002441406
1376.82662086771	1132
1377.47507660644	1132.40002441406
1378.12344866989	1130.40002441406
1378.77173706565	1131
1379.41994180129	1123
1380.06806288439	1135.59997558594
1380.71610032252	1130
1381.36405412326	1137.19995117188
1382.01192429419	1131.40002441406
1382.65971084287	1140
1383.30741377688	1133
1383.95503310381	1135.40002441406
1384.60256883121	1138.59997558594
1385.25002096667	1129
1385.89738951775	1129.80004882813
1386.54467449204	1126.19995117188
1387.19187589709	1119.80004882813
1387.8389937405	1129.59997558594
1388.48602802982	1124.19995117188
1389.13297877262	1128.19995117188
1389.77984597649	1118
1390.42662964899	1123.19995117188
1391.07332979768	1130.19995117188
1391.71994643015	1127.59997558594
1392.36647955395	1121.59997558594
1393.01292917667	1132.80004882813
1393.65929530586	1132
1394.3055779491	1128
1394.95177711395	1122.19995117188
1395.59789280799	1123.59997558594
1396.24392503877	1126.19995117188
1396.88987381387	1122.40002441406
1397.53573914086	1120.59997558594
1398.1815210273	1115.19995117188
1398.82721948075	1121.59997558594
1399.47283450878	1127.59997558594
1400.11836611897	1131.80004882813
1400.76381431886	1121.40002441406
1401.40917911603	1115.40002441406
1402.05446051805	1104.59997558594
1402.69965853247	1104.59997558594
1403.34477316686	1112.59997558594
1403.98980442878	1110.59997558594
1404.6347523258	1115.80004882813
1405.27961686548	1118.19995117188
1405.92439805538	1111.40002441406
1406.56909590306	1118.80004882813
1407.21371041608	1112.80004882813
1407.85824160202	1120.40002441406
1408.50268946841	1118.40002441406
1409.14705402284	1120.80004882813
1409.79133527285	1115.40002441406
1410.43553322601	1125.40002441406
1411.07964788987	1118.80004882813
1411.723679272	1126.59997558594
1412.36762737996	1122.59997558594
1413.01149222129	1119.19995117188
1413.65527380357	1111.80004882813
1414.29897213435	1122.19995117188
1414.94258722118	1112.80004882813
1415.58611907163	1114.80004882813
1416.22956769325	1108.80004882813
1416.87293309359	1111.59997558594
1417.51621528021	1110.59997558594
1418.15941426067	1114.40002441406
1418.80253004253	1110.59997558594
1419.44556263333	1129.40002441406
1420.08851204063	1130.80004882813
1420.731378272	1127
1421.37416133497	1127
1422.0168612371	1132
1422.65947798596	1132.80004882813
1423.30201158908	1130.40002441406
1423.94446205403	1131.40002441406
1424.58682938835	1123.59997558594
1425.2291135996	1126.40002441406
1425.87131469532	1124.80004882813
1426.51343268308	1122.59997558594
1427.15546757042	1118.19995117188
1427.79741936488	1121.40002441406
1428.43928807403	1118.40002441406
1429.0810737054	1120.80004882813
1429.72277626656	1110.80004882813
1430.36439576504	1112.59997558594
1431.00593220841	1114.80004882813
1431.64738560419	1117.80004882813
1432.28875595995	1106.40002441406
1432.93004328324	1121.19995117188
1433.57124758159	1111
1434.21236886255	1118
1434.85340713368	1125.40002441406
1435.49436240252	1129
1436.13523467661	1126.19995117188
1436.77602396349	1126.80004882813
1437.41673027073	1125.80004882813
1438.05735360585	1109.59997558594
1438.69789397641	1110.40002441406
1439.33835138994	1111.59997558594
1439.978725854	1116.59997558594
1440.61901737612	1115.19995117188
1441.25922596385	1118.40002441406
1441.89935162473	1111.80004882813
1442.53939436631	1109.59997558594
1443.17935419612	1115
1443.81923112171	1111.19995117188
1444.45902515061	1106.80004882813
1445.09873629038	1116.19995117188
1445.73836454854	1128.19995117188
1446.37790993265	1127.59997558594
1447.01737245024	1121.80004882813
1447.65675210885	1119
1448.29604891602	1117.19995117188
1448.93526287928	1110.80004882813
1449.57439400618	1114.80004882813
1450.21344230426	1114.19995117188
1450.85240778105	1112
1451.49129044409	1116.80004882813
1452.13009030092	1117.40002441406
1452.76880735907	1107.40002441406
1453.40744162608	1109.19995117188
1454.04599310949	1113.59997558594
1454.68446181683	1117
1455.32284775564	1116.19995117188
1455.96115093345	1118.59997558594
1456.5993713578	1122.59997558594
1457.23750903623	1117
1457.87556397626	1120.40002441406
1458.51353618543	1111.40002441406
1459.15142567127	1108.40002441406
1459.78923244132	1109.59997558594
1460.42695650311	1118.19995117188
1461.06459786417	1128.40002441406
1461.70215653203	1123.19995117188
1462.33963251423	1109.80004882813
1462.97702581829	1107
1463.61433645175	1111.19995117188
1464.25156442214	1117.59997558594
1464.88870973699	1111.19995117188
1465.52577240382	1114.59997558594
1466.16275243017	1111.59997558594
1466.79964982356	1104.19995117188
1467.43646459154	1105.40002441406
1468.07319674161	1110
1468.70984628132	1105
1469.34641321818	1108.19995117188
1469.98289755974	1111.59997558594
1470.6192993135	1114.19995117188
1471.25561848701	1111
1471.89185508779	1110.19995117188
1472.52800912336	1109.40002441406
1473.16408060124	1119.59997558594
1473.80006952897	1113
1474.43597591407	1110.59997558594
1475.07179976406	1115.59997558594
1475.70754108647	1115.80004882813
1476.34319988883	1117.80004882813
1476.97877617865	1117
1477.61426996345	1117.19995117188
1478.24968125077	1124.59997558594
1478.88501004812	1124.19995117188
1479.52025636303	1124.19995117188
1480.15542020302	1121
1480.79050157561	1123.40002441406
1481.42550048832	1117.59997558594
1482.06041694867	1119
1482.69525096418	1132
1483.33000254237	1127
1483.96467169077	1130.80004882813
1484.59925841689	1128.59997558594
1485.23376272825	1112.80004882813
1485.86818463237	1120.59997558594
1486.50252413677	1117
1487.13678124896	1116.59997558594
1487.77095597646	1112
1488.4050483268	1110
1489.03905830749	1103
1489.67298592604	1107.40002441406
1490.30683118996	1112.19995117188
1490.9405941068	1118.19995117188
1491.57427468403	1116.80004882813
1492.2078729292	1114.40002441406
1492.84138884981	1117.80004882813
1493.47482245338	1118.40002441406
1494.10817374742	1126.80004882813
1494.74144273944	1121.59997558594
1495.37462943696	1125.40002441406
1496.0077338475	1123.19995117188
1496.64075597856	1114.80004882813
1497.27369583765	1109.40002441406
1497.9065534323	1111.80004882813
1498.53932877001	1114
1499.17202185829	1108.19995117188
1499.80463270465	1102.59997558594
1500.43716131661	1115.40002441406
1501.06960770167	1119.40002441406
1501.70197186735	1122
1502.33425382116	1119
1502.96645357059	1113
1503.59857112317	1117.40002441406
1504.23060648641	1122
1504.8625596678	1120.80004882813
1505.49443067486	1124.40002441406
1506.1262195151	1133.80004882813
1506.75792619602	1120.19995117188
1507.38955072513	1123.80004882813
1508.02109310993	1126
1508.65255335794	1132.40002441406
1509.28393147666	1130.59997558594
1509.91522747359	1127.40002441406
1510.54644135624	1128.40002441406
1511.17757313212	1132.59997558594
1511.80862280872	1130.19995117188
1512.43959039356	1121.80004882813
1513.07047589413	1118.80004882813
1513.70127931795	1116.40002441406
1514.33200067251	1118.40002441406
1514.96263996531	1114.80004882813
1515.59319720386	1109.40002441406
1516.22367239567	1112.80004882813
1516.85406554822	1115.59997558594
1517.48437666903	1113.80004882813
1518.1146057656	1125.19995117188
1518.74475284542	1113.80004882813
1519.374817916	1111.40002441406
1520.00480098483	1107
1520.63470205942	1107
1521.26452114726	1104.59997558594
1521.89425825586	1111
1522.52391339271	1106.80004882813
1523.15348656531	1112.19995117188
1523.78297778116	1112.40002441406
1524.41238704775	1116.40002441406
1525.04171437259	1109
1525.67095976317	1109.19995117188
1526.30012322699	1108.19995117188
1526.92920477154	1108.40002441406
1527.55820440432	1101.19995117188
1528.18712213283	1101.40002441406
1528.81595796455	1104.19995117188
1529.44471190699	1098.40002441406
1530.07338396764	1095.80004882813
1530.70197415399	1099.80004882813
1531.33048247353	1101.80004882813
1531.95890893377	1103.40002441406
1532.58725354219	1098
1533.21551630629	1103
1533.84369723356	1114.40002441406
1534.47179633148	1111.80004882813
1535.09981360757	1114.40002441406
1535.72774906929	1120
1536.35560272415	1109.80004882813
1536.98337457963	1118
1537.61106464323	1112.40002441406
1538.23867292243	1118.19995117188
1538.86619942473	1107.19995117188
1539.49364415762	1114
1540.12100712857	1108.19995117188
1540.74828834509	1110.59997558594
1541.37548781466	1115.80004882813
1542.00260554478	1113.40002441406
1542.62964154291	1107.19995117188
1543.25659581655	1109.80004882813
1543.8834683732	1109.80004882813
1544.51025922034	1102.80004882813
1545.13696836544	1106.40002441406
1545.76359581601	1110.19995117188
1546.39014157952	1098
1547.01660566345	1095.59997558594
1547.64298807531	1098
1548.26928882255	1093.19995117188
1548.89550791269	1097.40002441406
1549.52164535318	1100.80004882813
1550.14770115153	1101.59997558594
1550.77367531521	1101.19995117188
1551.39956785171	1109
1552.0253787685	1096.59997558594
1552.65110807307	1106.80004882813
1553.2767557729	1100.40002441406
1553.90232187548	1103.80004882813
1554.52780638828	1097.59997558594
1555.15320931879	1100.59997558594
1555.77853067447	1093
1556.40377046282	1089
1557.02892869132	1088.80004882813
1557.65400536744	1086.80004882813
1558.27900049866	1093.40002441406
1558.90391409247	1097
1559.52874615633	1095.40002441406
1560.15349669773	1101.59997558594
1560.77816572414	1098.59997558594
1561.40275324305	1113
1562.02725926192	1106
1562.65168378824	1103.59997558594
1563.27602682948	1100.40002441406
1563.90028839311	1103.19995117188
1564.52446848662	1105.40002441406
1565.14856711748	1104.19995117188
1565.77258429316	1099.40002441406
1566.39652002113	1104.59997558594
1567.02037430887	1097.19995117188
1567.64414716387	1110.80004882813
1568.26783859357	1106
1568.89144860547	1102.19995117188
1569.51497720703	1098.59997558594
1570.13842440573	1104.19995117188
1570.76179020904	1109.80004882813
1571.38507462442	1098.40002441406
1572.00827765936	1101.40002441406
1572.63139932132	1103.19995117188
1573.25443961777	1107.40002441406
1573.87739855618	1105
1574.50027614402	1102.19995117188
1575.12307238877	1096.80004882813
1575.74578729789	1099
1576.36842087885	1107.80004882813
1576.99097313912	1110.59997558594
1577.61344408616	1104.19995117188
1578.23583372745	1106.19995117188
1578.85814207046	1096.19995117188
1579.48036912264	1093.59997558594
1580.10251489147	1102.19995117188
1580.72457938441	1094.59997558594
1581.34656260893	1093.19995117188
1581.9684645725	1099.80004882813
1582.59028528258	1100.80004882813
1583.21202474663	1100.59997558594
1583.83368297212	1095
1584.45525996652	1089.40002441406
1585.07675573728	1096.59997558594
1585.69817029188	1097
1586.31950363778	1092.40002441406
1586.94075578243	1084.40002441406
1587.5619267333	1093
1588.18301649786	1092.59997558594
1588.80402508357	1085.19995117188
1589.42495249788	1082.19995117188
1590.04579874826	1079.19995117188
1590.66656384217	1082.59997558594
1591.28724778707	1086.80004882813
1591.90785059042	1079.59997558594
1592.52837225968	1074.19995117188
1593.14881280232	1079.19995117188
1593.76917222578	1078
1594.38945053753	1074.40002441406
1595.00964774502	1079.80004882813
1595.62976385573	1077.19995117188
1596.24979887709	1079.59997558594
1596.86975281657	1074.40002441406
1597.48962568164	1081.80004882813
1598.10941747974	1082
1598.72912821832	1084
1599.34875790486	1086.59997558594
1599.9683065468	1081.19995117188
1600.58777415159	1083.59997558594
1601.2071607267	1083.19995117188
1601.82646627958	1077
1602.44569081769	1074.59997558594
1603.06483434846	1076.80004882813
1603.68389687937	1066.59997558594
1604.30287841786	1069
1604.92177897139	1070.59997558594
1605.54059854741	1064
1606.15933715337	1067.80004882813
1606.77799479672	1064.40002441406
1607.39657148492	1074.80004882813
1608.01506722542	1067.80004882813
1608.63348202566	1072.19995117188
1609.2518158931	1066.80004882813
1609.87006883519	1070.19995117188
1610.48824085939	1067
1611.10633197312	1069.40002441406
1611.72434218386	1066.19995117188
1612.34227149904	1079.59997558594
1612.96011992612	1068.59997558594
1613.57788747254	1064
1614.19557414575	1072.40002441406
1614.8131799532	1061
1615.43070490234	1064
1616.04814900061	1068
1616.66551225545	1056.40002441406
1617.28279467433	1068
1617.89999626467	1065.40002441406
1618.51711703393	1064.59997558594
1619.13415698955	1066.59997558594
1619.75111613898	1065.59997558594
1620.36799448966	1062.19995117188
1620.98479204903	1066
1621.60150882455	1056.19995117188
1622.21814482364	1057.40002441406
1622.83470005376	1069
1623.45117452235	1074.80004882813
1624.06756823685	1068.80004882813
1624.6838812047	1068
1625.30011343335	1069.80004882813
1625.91626493022	1071.40002441406
1626.53233570278	1073
1627.14832575845	1069.59997558594
1627.76423510468	1066.19995117188
1628.38006374891	1066.40002441406
1628.99581169857	1070.80004882813
1629.61147896111	1070.40002441406
1630.22706554397	1070.40002441406
1630.84257145457	1064.19995117188
1631.45799670038	1069.40002441406
1632.07334128881	1066
1632.6886052273	1065.40002441406
1633.3037885233	1061.40002441406
1633.91889118425	1064
1634.53391321757	1065.40002441406
1635.1488546307	1066.19995117188
1635.76371543108	1059
1636.37849562616	1058.59997558594
1636.99319522335	1061
1637.60781423009	1061.19995117188
1638.22235265383	1058
1638.83681050198	1062.19995117188
1639.451187782	1062.80004882813
1640.0654845013	1068.19995117188
1640.67970066734	1063.59997558594
1641.29383628752	1066.19995117188
1641.9078913693	1075
1642.5218659201	1067.19995117188
1643.13575994735	1078.19995117188
1643.74957345849	1074.80004882813
1644.36330646094	1065.40002441406
1644.97695896213	1071
1645.59053096951	1074.40002441406
1646.20402249049	1076.40002441406
1646.8174335325	1084.80004882813
1647.43076410298	1071.40002441406
1648.04401420935	1083.80004882813
1648.65718385905	1089.19995117188
1649.2702730595	1096.19995117188
1649.88328181812	1087.80004882813
1650.49621014236	1090.19995117188
1651.10905803963	1090.19995117188
1651.72182551735	1079
1652.33451258297	1077.19995117188
1652.9471192439	1076.19995117188
1653.55964550757	1066.19995117188
1654.1720913814	1066.40002441406
1654.78445687283	1068
1655.39674198926	1067.59997558594
1656.00894673814	1059
1656.62107112688	1057.19995117188
1657.23311516291	1052.59997558594
1657.84507885365	1057.59997558594
1658.45696220652	1058.40002441406
1659.06876522895	1054.80004882813
1659.68048792835	1049.19995117188
1660.29213031217	1046.80004882813
1660.90369238779	1044.40002441406
1661.51517416267	1046.19995117188
1662.12657564421	1044.40002441406
1662.73789683984	1046.59997558594
1663.34913775697	1049
1663.96029840303	1049.19995117188
1664.57137878544	1037.59997558594
1665.18237891161	1041.19995117188
1665.79329878897	1034.19995117188
1666.40413842493	1042.80004882813
1667.01489782691	1035.59997558594
1667.62557700233	1036.80004882813
1668.2361759586	1035
1668.84669470315	1036.59997558594
1669.4571332434	1031.40002441406
1670.06749158675	1029.40002441406
1670.67776974062	1035.19995117188
1671.28796771243	1033.40002441406
1671.8980855096	1027.19995117188
1672.50812313954	1028.80004882813
1673.11808060967	1033.19995117188
1673.72795792739	1033.19995117188
1674.33775510013	1035
1674.9474721353	1041.19995117188
1675.55710904031	1030.59997558594
1676.16666582257	1040.80004882813
1676.7761424895	1038.19995117188
1677.38553904851	1035.59997558594
1677.99485550702	1037
1678.60409187243	1041.40002441406
1679.21324815215	1030.59997558594
1679.8223243536	1033.19995117188
1680.43132048419	1025.80004882813
1681.04023655132	1025.19995117188
1681.64907256241	1026.80004882813
1682.25782852487	1029.40002441406
1682.86650444611	1021
1683.47510033353	1015.59997558594
1684.08361619455	1021
1684.69205203657	1021.40002441406
1685.300407867	1026.40002441406
1685.90868369325	1028.80004882813
1686.51687952272	1026.40002441406
1687.12499536283	1027.19995117188
1687.73303122098	1028
1688.34098710457	1028.80004882813
1688.94886302101	1027.80004882813
1689.55665897772	1024.40002441406
1690.16437498208	1028.19995117188
1690.77201104152	1028
1691.37956716342	1027.59997558594
1691.9870433552	1030.40002441406
1692.59443962426	1030.59997558594
1693.20175597801	1033
1693.80899242384	1026
1694.41614896916	1027
1695.02322562138	1023.79998779297
1695.63022238789	1028.80004882813
1696.23713927609	1027.59997558594
1696.8439762934	1028.40002441406
1697.4507334472	1026.80004882813
1698.05741074491	1024
1698.66400819391	1035.59997558594
1699.27052580161	1024.59997558594
1699.87696357542	1022.79998779297
1700.48332152272	1019
1701.08959965092	1017.40002441406
1701.69579796742	1017.59997558594
1702.30191647962	1016
1702.90795519491	1010
1703.51391412069	1012
1704.11979326437	1016.20001220703
1704.72559263332	1006
1705.33131223496	1006.40002441406
1705.93695207668	1008.20001220703
1706.54251216588	1004.79998779297
1707.14799250994	1010.59997558594
1707.75339311628	1008.40002441406
1708.35871399227	1011.59997558594
1708.96395514532	1009.20001220703
1709.56911658282	1012.79998779297
