634.948122577771	1370.19995117188
635.690341530823	1358.59997558594
636.43246851086	1361.40002441406
637.174503525845	1369
637.916446583745	1364.59997558594
638.658297692538	1366.40002441406
639.400056860179	1360.40002441406
640.141724094637	1349.40002441406
640.883299403885	1353
641.62478279588	1341.19995117188
642.366174278594	1356
643.107473859989	1369.19995117188
643.848681548029	1363.59997558594
644.589797350679	1365.80004882813
645.330821275901	1363.80004882813
646.071753331665	1357
646.812593525922	1353
647.553341866646	1362
648.293998361798	1364.19995117188
649.03456301933	1369.59997558594
649.775035847216	1361
650.515416853409	1342.40002441406
651.255706045874	1352.59997558594
651.995903432568	1341.80004882813
652.736009021453	1361.40002441406
653.476022820486	1354
654.215944837629	1367.80004882813
654.955775080842	1366.19995117188
655.695513558081	1370.80004882813
656.435160277301	1381
657.174715246465	1362.19995117188
657.914178473527	1375.19995117188
658.653549966449	1369.19995117188
659.392829733176	1363
660.132017781678	1360.59997558594
660.871114119901	1369.40002441406
661.610118755803	1369.80004882813
662.349031697343	1371.59997558594
663.087852952468	1382.80004882813
663.826582529139	1375
664.565220435305	1369.59997558594
665.30376667892	1370
666.04222126794	1356.59997558594
666.780584210316	1357.59997558594
667.518855514	1360
668.25703518694	1358.40002441406
668.995123237096	1367.59997558594
669.733119672413	1375.59997558594
670.471024500842	1380.19995117188
671.208837730333	1376
671.946559368839	1379.80004882813
672.684189424308	1361
673.421727904689	1362.59997558594
674.159174817929	1373.19995117188
674.896530171977	1381
675.633793974786	1383.40002441406
676.370966234295	1369.80004882813
677.108046958461	1376.40002441406
677.845036155219	1376
678.581933832528	1382.40002441406
679.318739998323	1383.80004882813
680.055454660558	1373.19995117188
680.792077827172	1382.59997558594
681.528609506116	1374
682.265049705331	1377.59997558594
683.001398432759	1377.40002441406
683.737655696349	1368.80004882813
684.47382150404	1382.40002441406
685.20989586378	1373
685.945878783503	1378.80004882813
686.68177027116	1381.59997558594
687.417570334688	1380.80004882813
688.153278982032	1370.19995117188
688.888896221129	1369.80004882813
689.624422059921	1370.59997558594
690.359856506349	1377.19995117188
691.095199568354	1377
691.830451253874	1384.19995117188
692.565611570844	1380.80004882813
693.300680527212	1401.80004882813
694.03565813091	1391.40002441406
694.770544389877	1391.80004882813
695.505339312053	1389.59997558594
696.240042905372	1385.19995117188
696.974655177772	1377.80004882813
697.70917613719	1396.40002441406
698.443605791561	1405.59997558594
699.177944148826	1395.59997558594
699.912191216909	1393.19995117188
700.646347003755	1395
701.380411517295	1391.80004882813
702.114384765465	1402.59997558594
702.848266756195	1401.19995117188
703.582057497421	1398
704.315756997074	1390.19995117188
705.049365263089	1382.59997558594
705.782882303399	1394.19995117188
706.516308125936	1382.80004882813
707.249642738626	1384
707.982886149403	1381.80004882813
708.716038366204	1386.19995117188
709.449099396949	1386
710.182069249577	1380.80004882813
710.914947932009	1364.19995117188
711.647735452181	1366.40002441406
712.380431818022	1368.80004882813
713.113037037454	1361.59997558594
713.845551118411	1374
714.577974068818	1372.80004882813
715.310305896604	1377
716.042546609694	1383.80004882813
716.774696216013	1385
717.506754723493	1390
718.238722140053	1403
718.970598473624	1384.19995117188
719.702383732127	1390.19995117188
720.43407792349	1390.59997558594
721.165681055634	1393.59997558594
721.897193136486	1405.19995117188
722.628614173966	1397.59997558594
723.359944175997	1398.80004882813
724.091183150505	1403.19995117188
724.822331105412	1399.40002441406
725.553388048638	1391.19995117188
726.284353988106	1395.40002441406
727.015228931734	1393.19995117188
727.746012887449	1398.80004882813
728.476705863162	1388.59997558594
729.207307866803	1397.40002441406
729.937818906289	1389.59997558594
730.668238989535	1389.80004882813
731.398568124459	1387.19995117188
732.128806318986	1379.19995117188
732.858953581034	1374.59997558594
733.589009918514	1380.40002441406
734.318975339348	1375
735.048849851452	1377.59997558594
735.778633462744	1374.80004882813
736.508326181137	1376.40002441406
737.237928014549	1385
737.967438970897	1391.59997558594
738.696859058095	1393.19995117188
739.426188284054	1379.80004882813
740.155426656692	1380.59997558594
740.884574183922	1387
741.613630873659	1377.19995117188
742.342596733815	1385.59997558594
743.071471772302	1382.19995117188
743.800255997034	1401.40002441406
744.528949415921	1392.40002441406
745.257552036877	1381.19995117188
745.986063867811	1385.80004882813
746.714484916638	1386.80004882813
747.442815191261	1385.59997558594
748.171054699597	1393.59997558594
748.899203449554	1389.80004882813
749.627261449039	1384.19995117188
750.355228705966	1385
751.083105228239	1387.19995117188
751.810891023765	1392.40002441406
752.538586100459	1399.19995117188
753.266190466218	1408.59997558594
753.99370412896	1408.19995117188
754.721127096582	1413
755.448459377	1420.80004882813
756.175700978114	1414
756.902851907828	1407.40002441406
757.629912174055	1407.40002441406
758.356881784688	1394
759.083760747639	1400.59997558594
759.810549070817	1396.40002441406
760.537246762113	1402.40002441406
761.263853829442	1397
761.990370280698	1391.80004882813
762.716796123791	1390.40002441406
763.443131366618	1398.40002441406
764.169376017082	1394.80004882813
764.895530083085	1410.80004882813
765.621593572527	1409.80004882813
766.347566493312	1423.19995117188
767.073448853336	1429
767.799240660502	1418.40002441406
768.524941922707	1432.80004882813
769.250552647854	1433.80004882813
769.976072843836	1438.19995117188
770.701502518551	1443.59997558594
771.426841679905	1432
772.152090335793	1417
772.877248494107	1445.80004882813
773.602316162747	1460.80004882813
774.327293349609	1456.19995117188
775.052180062592	1447.19995117188
775.776976309589	1449.19995117188
776.501682098496	1451.80004882813
777.226297437206	1436.80004882813
777.950822333616	1433.80004882813
778.675256795621	1438.59997558594
779.399600831111	1429.80004882813
780.123854447983	1448.40002441406
780.84801765413	1442.80004882813
781.572090457441	1431.40002441406
782.296072865811	1425.80004882813
783.019964887131	1427.59997558594
783.743766529297	1422.19995117188
784.467477800194	1422.59997558594
785.191098707719	1414.19995117188
785.914629259756	1412.59997558594
786.638069464194	1416.40002441406
787.361419328932	1416.40002441406
788.084678861852	1400.80004882813
788.807848070845	1402.80004882813
789.530926963798	1396.19995117188
790.253915548602	1400.59997558594
790.976813833144	1395.19995117188
791.699621825307	1401.59997558594
792.422339532986	1394.80004882813
793.144966964061	1379.80004882813
793.86750412642	1386.80004882813
794.589951027946	1400.40002441406
795.312307676536	1391.19995117188
796.03457408006	1406.80004882813
796.756750246417	1406
797.478836183477	1398.59997558594
798.200831899137	1393
798.92273740127	1399
799.644552697769	1399.19995117188
800.36627779651	1402.80004882813
801.087912705374	1408
801.809457432251	1409.40002441406
802.530911985017	1413.19995117188
803.252276371558	1398.19995117188
803.973550599748	1400.19995117188
804.694734677472	1393.19995117188
805.415828612611	1402.40002441406
806.136832413045	1397.80004882813
806.857746086646	1409
807.578569641305	1415.19995117188
808.299303084892	1417.80004882813
809.019946425289	1409.59997558594
809.740499670372	1410.19995117188
810.460962828022	1411.59997558594
811.181335906114	1394.59997558594
811.901618912524	1395.80004882813
812.621811855131	1403.40002441406
813.341914741809	1399.40002441406
814.061927580433	1400.40002441406
814.781850378881	1401
815.501683145025	1400.40002441406
816.221425886743	1405.80004882813
816.941078611903	1387
817.660641328387	1395.40002441406
818.380114044065	1389.59997558594
819.099496766808	1385.19995117188
819.818789504492	1394.59997558594
820.53799226499	1373.59997558594
821.257105056168	1378.40002441406
821.976127885904	1383.80004882813
822.695060762064	1381.40002441406
823.413903692525	1394.40002441406
824.132656685151	1400.80004882813
824.851319747817	1409.80004882813
825.569892888388	1408.59997558594
826.288376114739	1417.19995117188
827.006769434737	1406.59997558594
827.725072856249	1405
828.443286387142	1403.80004882813
829.161410035285	1400.19995117188
829.87944380855	1396.59997558594
830.597387714798	1388.40002441406
831.315241761898	1400.19995117188
832.033005957715	1400.40002441406
832.750680310119	1402.40002441406
833.468264826969	1406
834.18575951614	1401.80004882813
834.903164385486	1407.19995117188
835.620479442878	1400.19995117188
836.337704696181	1408
837.054840153255	1410
837.771885821962	1411.40002441406
838.488841710172	1412.19995117188
839.20570782574	1401
839.922484176531	1411.80004882813
840.639170770409	1401.59997558594
841.355767615231	1386.40002441406
842.072274718864	1385.80004882813
842.788692089164	1392.40002441406
843.505019733993	1401.59997558594
844.221257661209	1403.59997558594
844.937405878676	1402.19995117188
845.65346439425	1410.40002441406
846.369433215789	1399
847.085312351156	1403.19995117188
847.801101808205	1391.19995117188
848.516801594793	1383.19995117188
849.232411718781	1371.19995117188
849.947932188021	1361.40002441406
850.663363010376	1372.19995117188
851.378704193698	1396.19995117188
852.093955745842	1395.19995117188
852.809117674669	1405
853.524189988028	1408
854.239172693778	1406.19995117188
854.954065799768	1415
855.668869313857	1400
856.383583243899	1381.59997558594
857.098207597743	1381.80004882813
857.812742383246	1387
858.527187608255	1393.80004882813
859.241543280628	1398.19995117188
859.955809408218	1413
860.669985998868	1401
861.384073060437	1402.80004882813
862.098070600772	1416.40002441406
862.811978627724	1410.19995117188
863.52579714914	1409.19995117188
864.239526172873	1398.59997558594
864.953165706776	1401.19995117188
865.666715758687	1394.80004882813
866.380176336464	1393
867.093547447951	1390
867.806829100996	1380.80004882813
868.520021303444	1378
869.233124063149	1377.40002441406
869.94613738795	1370.19995117188
870.659061285693	1367.80004882813
871.37189576423	1381.80004882813
872.084640831403	1400
872.797296495057	1401.40002441406
873.509862763039	1400.19995117188
874.22233964319	1393
874.934727143353	1399.40002441406
875.647025271374	1398.19995117188
876.359234035097	1399.19995117188
877.071353442361	1386
877.783383501015	1398.59997558594
878.495324218895	1384.40002441406
879.207175603844	1394.80004882813
879.918937663705	1390.80004882813
880.630610406318	1411.19995117188
881.342193839524	1397.80004882813
882.053687971161	1406.40002441406
882.765092809069	1396.40002441406
883.476408361091	1395.59997558594
884.187634635066	1386.80004882813
884.898771638828	1384.40002441406
885.609819380221	1387.40002441406
886.320777867076	1393.40002441406
887.031647107236	1395.40002441406
887.742427108536	1389.40002441406
888.453117878816	1397.80004882813
889.16371942591	1399.19995117188
889.874231757652	1394.59997558594
890.584654881883	1394.40002441406
891.294988806434	1389.80004882813
892.005233539141	1392.59997558594
892.715389087837	1394.80004882813
893.42545546036	1403.40002441406
894.135432664543	1403
894.845320708216	1404.40002441406
895.555119599216	1405.59997558594
896.264829345375	1400.40002441406
896.974449954526	1403.80004882813
897.683981434496	1405.80004882813
898.393423793125	1428.80004882813
899.102777038235	1425.40002441406
899.812041177664	1419
900.521216219239	1418.80004882813
901.230302170793	1409
901.939299040155	1411.19995117188
902.64820683515	1412.59997558594
903.357025563612	1402.80004882813
904.065755233368	1388
904.774395852247	1400.59997558594
905.482947428076	1404.40002441406
906.191409968682	1408
906.899783481897	1406.40002441406
907.608067975538	1395
908.316263457443	1408.40002441406
909.02436993543	1398.40002441406
909.732387417327	1392.19995117188
910.440315910959	1405.59997558594
911.148155424154	1401.80004882813
911.855905964731	1387.59997558594
912.563567540521	1388.80004882813
913.271140159339	1391
913.978623829017	1394.80004882813
914.686018557374	1389.40002441406
915.393324352237	1386.19995117188
916.100541221421	1398.80004882813
916.807669172752	1384.59997558594
917.514708214054	1384.59997558594
918.221658353142	1381.40002441406
918.928519597843	1372.80004882813
919.635291955976	1368
920.341975435358	1376.19995117188
921.048570043813	1378.40002441406
921.75507578916	1397
922.461492679212	1397.40002441406
923.167820721795	1408.19995117188
923.874059924726	1409.80004882813
924.58021029582	1399.80004882813
925.286271842893	1403.40002441406
925.992244573769	1401.19995117188
926.698128496262	1399.19995117188
927.403923618184	1402
928.109629947355	1389
928.815247491593	1387.80004882813
929.520776258708	1398.59997558594
930.226216256519	1397.40002441406
930.931567492841	1390.40002441406
931.636829975482	1378.19995117188
932.342003712263	1385.40002441406
933.047088710995	1399.59997558594
933.752084979491	1393.19995117188
934.456992525564	1393.80004882813
935.161811357024	1396.19995117188
935.866541481688	1388.40002441406
936.571182907363	1396.59997558594
937.275735641861	1400.80004882813
937.980199692995	1393.59997558594
938.684575068572	1389
939.388861776411	1381.40002441406
940.093059824311	1387.19995117188
940.797169220085	1385.40002441406
941.501189971544	1380.40002441406
942.205122086495	1396.19995117188
942.908965572751	1380
943.612720438111	1376.40002441406
944.316386690391	1372
945.019964337391	1372.40002441406
945.723453386924	1379.80004882813
946.426853846795	1380.59997558594
947.130165724808	1388.19995117188
947.83338902877	1377
948.536523766488	1383.19995117188
949.239569945764	1382
949.942527574402	1382.80004882813
950.64539666021	1385.80004882813
951.348177210993	1374.59997558594
952.050869234548	1365.40002441406
952.753472738683	1359.80004882813
953.455987731199	1354.80004882813
954.158414219898	1365.40002441406
954.860752212587	1367
955.563001717061	1371.19995117188
956.265162741124	1373.19995117188
956.967235292576	1364.19995117188
957.669219379224	1354.80004882813
958.371115008857	1373.19995117188
959.072922189283	1357.80004882813
959.774640928301	1379
960.476271233708	1371.59997558594
961.177813113301	1365.80004882813
961.879266574882	1358.59997558594
962.580631626248	1370.40002441406
963.281908275194	1369.19995117188
963.98309652952	1374.80004882813
964.684196397022	1366
965.3852078855	1374.59997558594
966.086131002745	1377
966.786965756555	1373.40002441406
967.487712154726	1369.19995117188
968.188370205055	1372.59997558594
968.888939915331	1374.80004882813
969.589421293352	1380
970.289814346909	1377.40002441406
970.990119083801	1379.80004882813
971.690335511819	1393.40002441406
972.39046363875	1383
973.090503472398	1384.19995117188
973.790455020545	1379.40002441406
974.490318290987	1370.19995117188
975.190093291516	1359
975.889780029923	1360.19995117188
976.589378513998	1359
977.288888751527	1369.80004882813
977.988310750308	1365
978.687644518122	1380.40002441406
979.386890062767	1369.80004882813
980.086047392025	1377.19995117188
980.785116513689	1369.59997558594
981.484097435542	1361
982.182990165377	1372.80004882813
982.88179471098	1375.19995117188
983.580511080137	1368.80004882813
984.279139280632	1348.80004882813
984.977679320253	1350.59997558594
985.67613120679	1348
986.374494948027	1346.19995117188
987.072770551745	1357.19995117188
987.770958025731	1363.19995117188
988.469057377772	1369
989.167068615649	1378.59997558594
989.864991747145	1364.59997558594
990.562826780047	1366.19995117188
991.260573722134	1368.19995117188
991.958232581195	1378.40002441406
992.655803365003	1374.40002441406
993.353286081346	1377.19995117188
994.050680738006	1375.19995117188
994.74798734276	1389.19995117188
995.44520590339	1376.59997558594
996.142336427681	1380.40002441406
996.839378923407	1378.19995117188
997.536333398348	1375.19995117188
998.233199860289	1372.19995117188
998.929978317004	1360
999.626668776274	1357.59997558594
1000.32327124587	1363
1001.01978573359	1353.19995117188
1001.71621224718	1361.19995117188
1002.41255079445	1364.40002441406
1003.10880138315	1366.80004882813
1003.80496402107	1361
1004.50103871599	1357.40002441406
1005.19702547567	1361.59997558594
1005.8929243079	1379.80004882813
1006.58873522045	1375.19995117188
1007.2844582211	1385.59997558594
1007.98009331761	1387.40002441406
1008.67564051776	1390
1009.37109982933	1388.40002441406
1010.06647126009	1379.40002441406
1010.7617548178	1376.19995117188
1011.45695051026	1377.80004882813
1012.15205834522	1375
1012.84707833045	1362.19995117188
1013.54201047373	1358.80004882813
1014.23685478284	1371.40002441406
1014.93161126553	1376.59997558594
1015.62627992959	1369.19995117188
1016.32086078277	1381.19995117188
1017.01535383285	1361.80004882813
1017.70975908761	1376.40002441406
1018.40407655479	1364.19995117188
1019.09830624219	1373
1019.79244815755	1382
1020.48650230866	1386.19995117188
1021.18046870328	1378.80004882813
1021.87434734917	1384.59997558594
1022.56813825411	1380
1023.26184142584	1384.59997558594
1023.95545687216	1397.19995117188
1024.64898460082	1394.19995117188
1025.34242461957	1378
1026.0357769362	1372
1026.72904155846	1379.80004882813
1027.42221849412	1381.40002441406
1028.11530775094	1382
1028.80830933668	1383
1029.50122325911	1390.80004882813
1030.19404952599	1394.40002441406
1030.88678814508	1379.59997558594
1031.57943912414	1373
1032.27200247093	1371.80004882813
1032.96447819323	1355.40002441406
1033.65686629878	1348.59997558594
1034.34916679534	1358.80004882813
1035.04137969068	1353
1035.73350499256	1361.40002441406
1036.42554270874	1359.59997558594
1037.11749284697	1358.40002441406
1037.80935541501	1355.80004882813
1038.50113042062	1349.59997558594
1039.19281787156	1357.40002441406
1039.88441777559	1364.80004882813
1040.57593014046	1364.40002441406
1041.26735497393	1354.59997558594
1041.95869228376	1360.40002441406
1042.6499420777	1360.59997558594
1043.3411043635	1365.19995117188
1044.03217914893	1370.19995117188
1044.72316644174	1370.19995117188
1045.41406624968	1376
1046.1048785805	1380.19995117188
1046.79560344197	1369.19995117188
1047.48624084182	1371.80004882813
1048.17679078783	1374.59997558594
1048.86725328774	1369.59997558594
1049.55762834929	1365.59997558594
1050.24791598025	1361.40002441406
1050.93811618837	1346
1051.62822898139	1346.59997558594
1052.31825436707	1361
1053.00819235315	1353.19995117188
1053.6980429474	1349.59997558594
1054.38780615755	1373.40002441406
1055.07748199136	1356.59997558594
1055.76707045658	1361.59997558594
1056.45657156095	1340.19995117188
1057.14598531222	1350.19995117188
1057.83531171814	1348.80004882813
1058.52455078646	1344.40002441406
1059.21370252494	1336.59997558594
1059.90276694129	1343.40002441406
1060.5917440433	1343.59997558594
1061.28063383868	1365.40002441406
1061.9694363352	1353.80004882813
1062.65815154059	1361
1063.34677946261	1375.19995117188
1064.03532010899	1365.59997558594
1064.72377348748	1365.59997558594
1065.41213960583	1349.59997558594
1066.10041847177	1362.80004882813
1066.78861009306	1354
1067.47671447743	1361.80004882813
1068.16473163263	1355.59997558594
1068.85266156639	1354
1069.54050428647	1370.59997558594
1070.2282598006	1359.19995117188
1070.91592811652	1361.80004882813
1071.60350924198	1364.59997558594
1072.29100318471	1356.80004882813
1072.97840995245	1357.40002441406
1073.66572955295	1373.80004882813
1074.35296199394	1362.80004882813
1075.04010728316	1358.19995117188
1075.72716542836	1358.80004882813
1076.41413643726	1363.40002441406
1077.10102031761	1367
1077.78781707715	1353.59997558594
1078.4745267236	1341.40002441406
1079.16114926471	1337.19995117188
1079.84768470822	1347
1080.53413306185	1345.40002441406
1081.22049433336	1349.19995117188
1081.90676853046	1355.80004882813
1082.5929556609	1352.59997558594
1083.27905573241	1365.59997558594
1083.96506875272	1375.19995117188
1084.65099472957	1349.80004882813
1085.3368336707	1358.59997558594
1086.02258558383	1356
1086.70825047669	1341.80004882813
1087.39382835703	1359.80004882813
1088.07931923257	1355.40002441406
1088.76472311104	1361.19995117188
1089.45004000018	1350.80004882813
1090.13526990771	1353.40002441406
1090.82041284137	1345.59997558594
1091.50546880889	1342.40002441406
1092.19043781799	1341.40002441406
1092.87531987642	1331.40002441406
1093.56011499188	1333.59997558594
1094.24482317212	1332.19995117188
1094.92944442486	1335.80004882813
1095.61397875783	1335.80004882813
1096.29842617876	1340.80004882813
1096.98278669537	1342.80004882813
1097.6670603154	1338.19995117188
1098.35124704656	1338.19995117188
1099.03534689659	1335
1099.71935987322	1338
1100.40328598416	1340
1101.08712523713	1362.80004882813
1101.77087763988	1349.40002441406
1102.45454320012	1348.80004882813
1103.13812192557	1342.40002441406
1103.82161382396	1333
1104.50501890301	1347.80004882813
1105.18833717045	1340.80004882813
1105.87156863399	1354
1106.55471330137	1347
1107.2377711803	1358.59997558594
1107.9207422785	1350.19995117188
1108.60362660369	1359.40002441406
1109.2864241636	1363.80004882813
1109.96913496594	1359.80004882813
1110.65175901844	1362.19995117188
1111.33429632882	1361.59997558594
1112.01674690479	1355.80004882813
1112.69911075408	1345.19995117188
1113.38138788439	1349
1114.06357830346	1347.80004882813
1114.745682019	1347.59997558594
1115.42769903872	1361.80004882813
1116.10962937035	1366.59997558594
1116.7914730216	1360.59997558594
1117.47323000018	1359.59997558594
1118.15490031382	1349.59997558594
1118.83648397022	1350
1119.51798097712	1337.59997558594
1120.1993913422	1334.40002441406
1120.88071507321	1337.19995117188
1121.56195217784	1338.80004882813
1122.24310266381	1330.40002441406
1122.92416653884	1338.80004882813
1123.60514381064	1344.80004882813
1124.28603448692	1344
1124.9668385754	1354.80004882813
1125.64755608378	1356
1126.32818701978	1355
1127.00873139111	1358.40002441406
1127.68918920548	1362.40002441406
1128.3695604706	1369.59997558594
1129.04984519419	1364.59997558594
1129.73004338394	1359.59997558594
1130.41015504758	1361.80004882813
1131.09018019281	1361
1131.77011882734	1369
1132.44997095888	1361.19995117188
1133.12973659514	1362.40002441406
1133.80941574381	1355.59997558594
1134.48900841263	1339.40002441406
1135.16851460927	1348.40002441406
1135.84793434147	1339.40002441406
1136.52726761692	1334.80004882813
1137.20651444333	1331
1137.8856748284	1325.19995117188
1138.56474877984	1342.40002441406
1139.24373630536	1329.59997558594
1139.92263741265	1329.19995117188
1140.60145210943	1340.19995117188
1141.28018040339	1351.40002441406
1141.95882230225	1347.80004882813
1142.6373778137	1341.19995117188
1143.31584694545	1348.40002441406
1143.99422970519	1348.19995117188
1144.67252610064	1353.40002441406
1145.35073613949	1357.40002441406
1146.02885982944	1343
1146.7068971782	1336.59997558594
1147.38484819347	1339
1148.06271288294	1341
1148.74049125432	1339.80004882813
1149.41818331531	1349.59997558594
1150.0957890736	1356
1150.77330853689	1345.80004882813
1151.45074171289	1350.40002441406
1152.12808860928	1331.19995117188
1152.80534923378	1329.59997558594
1153.48252359407	1326.59997558594
1154.15961169786	1319.19995117188
1154.83661355283	1325.80004882813
1155.51352916669	1324.19995117188
1156.19035854713	1334.80004882813
1156.86710170185	1325.80004882813
1157.54375863855	1329.19995117188
1158.22032936491	1330.40002441406
1158.89681388863	1324.40002441406
1159.57321221741	1319.80004882813
1160.24952435894	1339.19995117188
1160.92575032092	1334
1161.60189011103	1336
1162.27794373697	1343.59997558594
1162.95391120644	1353.59997558594
1163.62979252712	1346.19995117188
1164.3055877067	1350.19995117188
1164.98129675288	1347.19995117188
1165.65691967336	1347.59997558594
1166.33245647581	1336.80004882813
1167.00790716792	1336.19995117188
1167.6832717574	1325.59997558594
1168.35855025193	1338.19995117188
1169.0337426592	1326.59997558594
1169.70884898689	1320
1170.3838692427	1321.80004882813
1171.05880343431	1330.59997558594
1171.73365156941	1330.19995117188
1172.40841365569	1339.59997558594
1173.08308970083	1338.40002441406
1173.75767971253	1334.19995117188
1174.43218369847	1331.80004882813
1175.10660166633	1329.19995117188
1175.7809336238	1329.80004882813
1176.45517957857	1314
1177.12933953832	1326.59997558594
1177.80341351073	1318.59997558594
1178.47740150349	1328
1179.15130352429	1333
1179.8251195808	1350.40002441406
1180.49884968071	1353.19995117188
1181.1724938317	1365.40002441406
1181.84605204145	1349.59997558594
1182.51952431766	1339
1183.19291066799	1338.40002441406
1183.86621110013	1351
1184.53942562176	1345
1185.21255424057	1354.80004882813
1185.88559696422	1351.80004882813
1186.55855380041	1348.19995117188
1187.2314247568	1335.80004882813
1187.90420984109	1333.80004882813
1188.57690906095	1328
1189.24952242405	1337
1189.92204993808	1346.40002441406
1190.59449161071	1342.59997558594
1191.26684744962	1347.19995117188
1191.93911746249	1345
1192.61130165699	1338.80004882813
1193.28340004081	1343.80004882813
1193.95541262161	1355.19995117188
1194.62733940707	1338.80004882813
1195.29918040487	1363.19995117188
1195.97093562269	1351.80004882813
1196.64260506819	1362
1197.31418874905	1356.59997558594
1197.98568667295	1346.59997558594
1198.65709884755	1347.59997558594
1199.32842528053	1346.40002441406
1199.99966597957	1341.80004882813
1200.67082095234	1331
1201.3418902065	1327
1202.01287374974	1339
1202.68377158971	1347.40002441406
1203.3545837341	1330.40002441406
1204.02531019057	1340.59997558594
1204.6959509668	1329.40002441406
1205.36650607045	1331.40002441406
1206.03697550919	1338
1206.70735929069	1337.80004882813
1207.37765742263	1340
1208.04786991266	1342
1208.71799676846	1346
1209.38803799769	1335.40002441406
1210.05799360803	1321.80004882813
1210.72786360714	1324.80004882813
1211.39764800268	1338
1212.06734680233	1322
1212.73696001375	1336.19995117188
1213.4064876446	1337.40002441406
1214.07592970255	1328.80004882813
1214.74528619526	1336
1215.4145571304	1320.19995117188
1216.08374251564	1320
1216.75284235863	1324.40002441406
1217.42185666704	1322.40002441406
1218.09078544854	1323.40002441406
1218.75962871078	1319.80004882813
1219.42838646143	1323.19995117188
1220.09705870816	1320.80004882813
1220.76564545861	1316.59997558594
1221.43414672046	1327.59997558594
1222.10256250136	1326.59997558594
1222.77089280898	1325.59997558594
1223.43913765098	1322.19995117188
1224.107297035	1318.80004882813
1224.77537096873	1312.59997558594
1225.44335945981	1324.40002441406
1226.1112625159	1323.19995117188
1226.77908014467	1328.19995117188
1227.44681235376	1322.80004882813
1228.11445915085	1329.80004882813
1228.78202054357	1328.40002441406
1229.44949653961	1329.80004882813
1230.11688714659	1317
1230.7841923722	1320.40002441406
1231.45141222407	1325
1232.11854670988	1323.80004882813
1232.78559583726	1318.80004882813
1233.45255961388	1321.80004882813
1234.1194380474	1316
1234.78623114546	1335.80004882813
1235.45293891572	1320.59997558594
1236.11956136583	1322.19995117188
1236.78609850345	1345.80004882813
1237.45255033623	1329.59997558594
1238.11891687182	1342.40002441406
1238.78519811788	1334.59997558594
1239.45139408205	1328.19995117188
1240.11750477198	1324.19995117188
1240.78353019534	1328.80004882813
1241.44947035976	1321.80004882813
1242.11532527291	1319.19995117188
1242.78109494242	1318.40002441406
1243.44677937595	1319.80004882813
1244.11237858115	1312.19995117188
1244.77789256567	1310.59997558594
1245.44332133715	1331.19995117188
1246.10866490325	1322.19995117188
1246.7739232716	1328.80004882813
1247.43909644987	1329.59997558594
1248.10418444569	1332.80004882813
1248.76918726671	1329.40002441406
1249.43410492059	1320
1250.09893741496	1317.40002441406
1250.76368475747	1315.80004882813
1251.42834695576	1310.40002441406
1252.09292401749	1321.80004882813
1252.75741595029	1319.19995117188
1253.42182276182	1325.40002441406
1254.08614445971	1331.80004882813
1254.75038105161	1321.19995117188
1255.41453254515	1332.80004882813
1256.07859894799	1320.19995117188
1256.74258026777	1306.40002441406
1257.40647651213	1316.40002441406
1258.0702876887	1311
1258.73401380514	1302.59997558594
1259.39765486908	1309.59997558594
1260.06121088817	1305.80004882813
1260.72468187004	1322.19995117188
1261.38806782233	1319
1262.05136875269	1325.40002441406
1262.71458466875	1320.19995117188
1263.37771557815	1306.59997558594
1264.04076148854	1314.19995117188
1264.70372240753	1300.40002441406
1265.3665983428	1306
1266.02938930195	1305.59997558594
1266.69209529263	1304.19995117188
1267.35471632249	1311.19995117188
1268.01725239914	1306.80004882813
1268.67970353024	1301.40002441406
1269.34206972342	1306.59997558594
1270.00435098631	1304.19995117188
1270.66654732655	1297
1271.32865875177	1312.59997558594
1271.9906852696	1310.19995117188
1272.65262688768	1323.80004882813
1273.31448361365	1322.80004882813
1273.97625545514	1332.40002441406
1274.63794241978	1324.59997558594
1275.2995445152	1317.40002441406
1275.96106174903	1325
1276.62249412892	1319
1277.28384166248	1326.19995117188
1277.94510435735	1309.40002441406
1278.60628222116	1309.59997558594
1279.26737526155	1311
1279.92838348613	1302.80004882813
1280.58930690255	1311.80004882813
1281.25014551842	1305.40002441406
1281.91089934139	1311.40002441406
1282.57156837907	1319.59997558594
1283.2321526391	1326.80004882813
1283.89265212911	1326
1284.55306685671	1312.40002441406
1285.21339682955	1302.59997558594
1285.87364205525	1285.59997558594
1286.53380254142	1285.80004882813
1287.19387829571	1283.80004882813
1287.85386932573	1289.80004882813
1288.51377563911	1287.59997558594
1289.17359724348	1294
1289.83333414646	1303.80004882813
1290.49298635567	1296.40002441406
1291.15255387874	1309.40002441406
1291.8120367233	1307.40002441406
1292.47143489696	1304.19995117188
1293.13074840736	1304.59997558594
1293.7899772621	1303.40002441406
1294.44912146882	1310.19995117188
1295.10818103513	1312.19995117188
1295.76715596866	1313.40002441406
1296.42604627704	1289.80004882813
1297.08485196787	1292.19995117188
1297.74357304878	1287.19995117188
1298.4022095274	1309.59997558594
1299.06076141134	1313.59997558594
1299.71922870821	1304.80004882813
1300.37761142565	1303.80004882813
1301.03590957126	1308
1301.69412315268	1312.59997558594
1302.3522521775	1309.19995117188
1303.01029665336	1298
1303.66825658787	1307.19995117188
1304.32613198865	1312.40002441406
1304.98392286332	1306.80004882813
1305.64162921948	1307.59997558594
1306.29925106476	1303.40002441406
1306.95678840677	1305
1307.61424125312	1304.19995117188
1308.27160961145	1304.40002441406
1308.92889348934	1309.40002441406
1309.58609289443	1300
1310.24320783432	1305
1310.90023831664	1299.19995117188
1311.55718434898	1283.59997558594
1312.21404593897	1284.19995117188
1312.87082309421	1290.40002441406
1313.52751582233	1291.40002441406
1314.18412413092	1291
1314.84064802761	1294.19995117188
1315.49708752	1297.80004882813
1316.1534426157	1311.19995117188
1316.80971332233	1318
1317.46589964749	1317.19995117188
1318.1220015988	1311.59997558594
1318.77801918386	1313.19995117188
1319.43395241028	1312
1320.08980128567	1314.19995117188
1320.74556581764	1314.19995117188
1321.4012460138	1319
1322.05684188176	1307
1322.71235342911	1321.19995117188
1323.36778066347	1318.59997558594
1324.02312359245	1326.59997558594
1324.67838222365	1328
1325.33355656468	1332.80004882813
1325.98864662314	1324.40002441406
1326.64365240663	1317.40002441406
1327.29857392277	1315.19995117188
1327.95341117915	1311.80004882813
1328.60816418339	1300
1329.26283294308	1311.19995117188
1329.91741746582	1307.40002441406
1330.57191775923	1299.59997558594
1331.2263338309	1307.59997558594
1331.88066568843	1305.40002441406
1332.53491333943	1314.59997558594
1333.1890767915	1303.59997558594
1333.84315605224	1315.59997558594
1334.49715112925	1314.80004882813
1335.15106203013	1324.19995117188
1335.80488876249	1326.19995117188
1336.45863133391	1319.40002441406
1337.112289752	1308.59997558594
1337.76586402437	1306.19995117188
1338.4193541586	1317.80004882813
1339.0727601623	1319.59997558594
1339.72608204306	1335
1340.37931980849	1326.59997558594
1341.03247346617	1331.40002441406
1341.68554302372	1334.40002441406
1342.33852848871	1324.80004882813
1342.99142986876	1318.40002441406
1343.64424717145	1323.19995117188
1344.29698040438	1330.19995117188
1344.94962957515	1327.19995117188
1345.60219469135	1337.80004882813
1346.25467576058	1333.19995117188
1346.90707279042	1331.19995117188
1347.55938578848	1334.40002441406
1348.21161476235	1324.80004882813
1348.86375971962	1320
1349.51582066787	1310.59997558594
1350.16779761472	1315.80004882813
1350.81969056774	1310
1351.47149953453	1322.40002441406
1352.12322452269	1314.80004882813
1352.77486553979	1321.59997558594
1353.42642259344	1305.59997558594
1354.07789569122	1315.40002441406
1354.72928484072	1315.59997558594
1355.38059004953	1332.40002441406
1356.03181132525	1345
1356.68294867545	1349.19995117188
1357.33400210773	1353.19995117188
1357.98497162968	1341
1358.63585724889	1332.40002441406
1359.28665897294	1333.80004882813
1359.93737680942	1332.80004882813
1360.58801076591	1333.59997558594
1361.23856085001	1335.59997558594
1361.88902706929	1347.80004882813
1362.53940943135	1354
1363.18970794377	1347.40002441406
1363.83992261413	1352.40002441406
1364.49005345003	1346.80004882813
1365.14010045904	1355.59997558594
1365.79006364874	1359
1366.43994302673	1358.80004882813
1367.08973860058	1354.40002441406
1367.73945037788	1337.19995117188
1368.38907836621	1337.80004882813
1369.03862257315	1337.19995117188
1369.68808300629	1335.40002441406
1370.3374596732	1344.40002441406
1370.98675258148	1342.80004882813
1371.63596173868	1352
1372.28508715241	1349
1372.93412883024	1329.59997558594
1373.58308677974	1325
1374.2319610085	1309.40002441406
1374.8807515241	1319.40002441406
1375.52945833412	1315.80004882813
1376.17808144612	1307.80004882813
1376.82662086771	1303.40002441406
1377.47507660644	1304.19995117188
1378.12344866989	1304
1378.77173706565	1291
1379.41994180129	1301.19995117188
1380.06806288439	1313
1380.71610032252	1307.59997558594
1381.36405412326	1314.19995117188
1382.01192429419	1319
1382.65971084287	1310.80004882813
1383.30741377688	1309.59997558594
1383.95503310381	1308.19995117188
1384.60256883121	1313.40002441406
1385.25002096667	1311.80004882813
1385.89738951775	1305.19995117188
1386.54467449204	1298.59997558594
1387.19187589709	1286.80004882813
1387.8389937405	1295.59997558594
1388.48602802982	1284.40002441406
1389.13297877262	1283.59997558594
1389.77984597649	1284.40002441406
1390.42662964899	1291.80004882813
1391.07332979768	1291
1391.71994643015	1297.59997558594
1392.36647955395	1292
1393.01292917667	1291.59997558594
1393.65929530586	1297.59997558594
1394.3055779491	1290.80004882813
1394.95177711395	1290.59997558594
1395.59789280799	1286.59997558594
1396.24392503877	1291.80004882813
1396.88987381387	1291.40002441406
1397.53573914086	1295.59997558594
1398.1815210273	1285.59997558594
1398.82721948075	1298.80004882813
1399.47283450878	1308.80004882813
1400.11836611897	1296.19995117188
1400.76381431886	1289.19995117188
1401.40917911603	1268
1402.05446051805	1269.19995117188
1402.69965853247	1269.40002441406
1403.34477316686	1269.59997558594
1403.98980442878	1276.19995117188
1404.6347523258	1267
1405.27961686548	1270.59997558594
1405.92439805538	1268.40002441406
1406.56909590306	1259.19995117188
1407.21371041608	1271.40002441406
1407.85824160202	1277.19995117188
1408.50268946841	1278.40002441406
1409.14705402284	1288.19995117188
1409.79133527285	1283
1410.43553322601	1283.59997558594
1411.07964788987	1282.40002441406
1411.723679272	1293
1412.36762737996	1272.59997558594
1413.01149222129	1287.40002441406
1413.65527380357	1286.80004882813
1414.29897213435	1280.19995117188
1414.94258722118	1270.59997558594
1415.58611907163	1272.59997558594
1416.22956769325	1260
1416.87293309359	1263.59997558594
1417.51621528021	1264.40002441406
1418.15941426067	1267.59997558594
1418.80253004253	1274.59997558594
1419.44556263333	1281.40002441406
1420.08851204063	1298.80004882813
1420.731378272	1298
1421.37416133497	1303.40002441406
1422.0168612371	1305.19995117188
1422.65947798596	1297
1423.30201158908	1295
1423.94446205403	1303
1424.58682938835	1293
1425.2291135996	1291.40002441406
1425.87131469532	1299.40002441406
1426.51343268308	1292.80004882813
1427.15546757042	1292.19995117188
1427.79741936488	1298.19995117188
1428.43928807403	1290
1429.0810737054	1290
1429.72277626656	1286.80004882813
1430.36439576504	1264.59997558594
1431.00593220841	1269.80004882813
1431.64738560419	1263.80004882813
1432.28875595995	1272.19995117188
1432.93004328324	1274.59997558594
1433.57124758159	1278
1434.21236886255	1281.59997558594
1434.85340713368	1287.59997558594
1435.49436240252	1287
1436.13523467661	1290.80004882813
1436.77602396349	1291.19995117188
1437.41673027073	1291.40002441406
1438.05735360585	1273.80004882813
1438.69789397641	1274.40002441406
1439.33835138994	1273.19995117188
1439.978725854	1266
1440.61901737612	1280
1441.25922596385	1286.19995117188
1441.89935162473	1274.80004882813
1442.53939436631	1274.80004882813
1443.17935419612	1274.19995117188
1443.81923112171	1270.59997558594
1444.45902515061	1270.80004882813
1445.09873629038	1272.40002441406
1445.73836454854	1280.19995117188
1446.37790993265	1274.59997558594
1447.01737245024	1289
1447.65675210885	1277.59997558594
1448.29604891602	1285.80004882813
1448.93526287928	1278.40002441406
1449.57439400618	1273.40002441406
1450.21344230426	1275.40002441406
1450.85240778105	1267.40002441406
1451.49129044409	1268.80004882813
1452.13009030092	1269
1452.76880735907	1277.59997558594
1453.40744162608	1277.19995117188
1454.04599310949	1274.40002441406
1454.68446181683	1282
1455.32284775564	1281.80004882813
1455.96115093345	1295.19995117188
1456.5993713578	1277.80004882813
1457.23750903623	1281
1457.87556397626	1266
1458.51353618543	1255.19995117188
1459.15142567127	1259.59997558594
1459.78923244132	1272.40002441406
1460.42695650311	1274.19995117188
1461.06459786417	1282.19995117188
1461.70215653203	1266
1462.33963251423	1268.80004882813
1462.97702581829	1275.59997558594
1463.61433645175	1269.59997558594
1464.25156442214	1277
1464.88870973699	1284
1465.52577240382	1280
1466.16275243017	1273
1466.79964982356	1268.59997558594
1467.43646459154	1264.19995117188
1468.07319674161	1254
1468.70984628132	1256
1469.34641321818	1255.19995117188
1469.98289755974	1260.19995117188
1470.6192993135	1266
1471.25561848701	1268
1471.89185508779	1267.40002441406
1472.52800912336	1273.80004882813
1473.16408060124	1263.19995117188
1473.80006952897	1273.19995117188
1474.43597591407	1277.40002441406
1475.07179976406	1273.40002441406
1475.70754108647	1264.19995117188
1476.34319988883	1268.80004882813
1476.97877617865	1267.80004882813
1477.61426996345	1276.19995117188
1478.24968125077	1281.80004882813
1478.88501004812	1287.19995117188
1479.52025636303	1293.40002441406
1480.15542020302	1280.19995117188
1480.79050157561	1282.80004882813
1481.42550048832	1289.59997558594
1482.06041694867	1276.40002441406
1482.69525096418	1284
1483.33000254237	1285
1483.96467169077	1285.40002441406
1484.59925841689	1263.40002441406
1485.23376272825	1276.40002441406
1485.86818463237	1276
1486.50252413677	1278.40002441406
1487.13678124896	1269
1487.77095597646	1266.19995117188
1488.4050483268	1263
1489.03905830749	1266.80004882813
1489.67298592604	1256.19995117188
1490.30683118996	1270
1490.9405941068	1265.80004882813
1491.57427468403	1268.40002441406
1492.2078729292	1265.80004882813
1492.84138884981	1278
1493.47482245338	1272.59997558594
1494.10817374742	1277.80004882813
1494.74144273944	1278.59997558594
1495.37462943696	1283.40002441406
1496.0077338475	1276
1496.64075597856	1283
1497.27369583765	1271.40002441406
1497.9065534323	1264.19995117188
1498.53932877001	1261.59997558594
1499.17202185829	1263
1499.80463270465	1254.59997558594
1500.43716131661	1258.40002441406
1501.06960770167	1264.19995117188
1501.70197186735	1263
1502.33425382116	1263.80004882813
1502.96645357059	1275
1503.59857112317	1267.40002441406
1504.23060648641	1272.40002441406
1504.8625596678	1267.40002441406
1505.49443067486	1276.40002441406
1506.1262195151	1276
1506.75792619602	1277.40002441406
1507.38955072513	1286.80004882813
1508.02109310993	1278.19995117188
1508.65255335794	1282.59997558594
1509.28393147666	1287
1509.91522747359	1290.80004882813
1510.54644135624	1283
1511.17757313212	1278.19995117188
1511.80862280872	1291.59997558594
1512.43959039356	1287.59997558594
1513.07047589413	1281.40002441406
1513.70127931795	1284
1514.33200067251	1270.59997558594
1514.96263996531	1275.40002441406
1515.59319720386	1272.19995117188
1516.22367239567	1261.19995117188
1516.85406554822	1263.40002441406
1517.48437666903	1263.40002441406
1518.1146057656	1265
1518.74475284542	1262.40002441406
1519.374817916	1264.40002441406
1520.00480098483	1263.80004882813
1520.63470205942	1261.40002441406
1521.26452114726	1265.40002441406
1521.89425825586	1265.80004882813
1522.52391339271	1260.80004882813
1523.15348656531	1269.40002441406
1523.78297778116	1270
1524.41238704775	1281.40002441406
1525.04171437259	1266.19995117188
1525.67095976317	1267
1526.30012322699	1256.19995117188
1526.92920477154	1266.40002441406
1527.55820440432	1257.59997558594
1528.18712213283	1248.19995117188
1528.81595796455	1252.80004882813
1529.44471190699	1254.59997558594
1530.07338396764	1239
1530.70197415399	1242.40002441406
1531.33048247353	1244.40002441406
1531.95890893377	1236.59997558594
1532.58725354219	1255.40002441406
1533.21551630629	1258.59997558594
1533.84369723356	1256.59997558594
1534.47179633148	1265.19995117188
1535.09981360757	1269.80004882813
1535.72774906929	1267.40002441406
1536.35560272415	1272.40002441406
1536.98337457963	1274.40002441406
1537.61106464323	1286
1538.23867292243	1270.40002441406
1538.86619942473	1265.59997558594
1539.49364415762	1266
1540.12100712857	1275
1540.74828834509	1273.59997558594
1541.37548781466	1262.40002441406
1542.00260554478	1264.40002441406
1542.62964154291	1251.80004882813
1543.25659581655	1261.19995117188
1543.8834683732	1264
1544.51025922034	1256.80004882813
1545.13696836544	1271.59997558594
1545.76359581601	1256.80004882813
1546.39014157952	1248.59997558594
1547.01660566345	1244.80004882813
1547.64298807531	1244.40002441406
1548.26928882255	1243
1548.89550791269	1254.59997558594
1549.52164535318	1254.59997558594
1550.14770115153	1261.80004882813
1550.77367531521	1257
1551.39956785171	1256.40002441406
1552.0253787685	1252.80004882813
1552.65110807307	1256
1553.2767557729	1255.80004882813
1553.90232187548	1261.59997558594
1554.52780638828	1255.59997558594
1555.15320931879	1263.59997558594
1555.77853067447	1249.80004882813
1556.40377046282	1239.40002441406
1557.02892869132	1231
1557.65400536744	1228.40002441406
1558.27900049866	1229.19995117188
1558.90391409247	1238.59997558594
1559.52874615633	1248.19995117188
1560.15349669773	1245.19995117188
1560.77816572414	1244.59997558594
1561.40275324305	1265
1562.02725926192	1252.19995117188
1562.65168378824	1243
1563.27602682948	1246.19995117188
1563.90028839311	1249
1564.52446848662	1247
1565.14856711748	1259.19995117188
1565.77258429316	1262.59997558594
1566.39652002113	1253
1567.02037430887	1247
1567.64414716387	1240.80004882813
1568.26783859357	1250.40002441406
1568.89144860547	1252.80004882813
1569.51497720703	1240.80004882813
1570.13842440573	1244
1570.76179020904	1247
1571.38507462442	1246.19995117188
1572.00827765936	1254.80004882813
1572.63139932132	1251.80004882813
1573.25443961777	1242
1573.87739855618	1245.19995117188
1574.50027614402	1252.19995117188
1575.12307238877	1248.19995117188
1575.74578729789	1246.59997558594
1576.36842087885	1247
1576.99097313912	1249.40002441406
1577.61344408616	1251.80004882813
1578.23583372745	1250.80004882813
1578.85814207046	1235.80004882813
1579.48036912264	1240.80004882813
1580.10251489147	1230
1580.72457938441	1241.59997558594
1581.34656260893	1243.59997558594
1581.9684645725	1246.40002441406
1582.59028528258	1245
1583.21202474663	1248.80004882813
1583.83368297212	1250.19995117188
1584.45525996652	1247.19995117188
1585.07675573728	1239
1585.69817029188	1245.40002441406
1586.31950363778	1246
1586.94075578243	1238.19995117188
1587.5619267333	1246.19995117188
1588.18301649786	1230.19995117188
1588.80402508357	1237.59997558594
1589.42495249788	1221.40002441406
1590.04579874826	1225.40002441406
1590.66656384217	1220.19995117188
1591.28724778707	1228.59997558594
1591.90785059042	1220
1592.52837225968	1212
1593.14881280232	1218.40002441406
1593.76917222578	1219
1594.38945053753	1219.40002441406
1595.00964774502	1216.40002441406
1595.62976385573	1214.19995117188
1596.24979887709	1213.80004882813
1596.86975281657	1213.59997558594
1597.48962568164	1215.19995117188
1598.10941747974	1216
1598.72912821832	1218
1599.34875790486	1223.40002441406
1599.9683065468	1228.19995117188
1600.58777415159	1223.19995117188
1601.2071607267	1224.40002441406
1601.82646627958	1223.59997558594
1602.44569081769	1210.80004882813
1603.06483434846	1211.80004882813
1603.68389687937	1203.40002441406
1604.30287841786	1196.40002441406
1604.92177897139	1197.19995117188
1605.54059854741	1188.80004882813
1606.15933715337	1199.40002441406
1606.77799479672	1187
1607.39657148492	1191.80004882813
1608.01506722542	1203.59997558594
1608.63348202566	1198.80004882813
1609.2518158931	1199.19995117188
1609.87006883519	1200.40002441406
1610.48824085939	1197
1611.10633197312	1193.59997558594
1611.72434218386	1190.40002441406
1612.34227149904	1198
1612.96011992612	1187.80004882813
1613.57788747254	1190
1614.19557414575	1191.59997558594
1614.8131799532	1195
1615.43070490234	1190.80004882813
1616.04814900061	1186.19995117188
1616.66551225545	1190
1617.28279467433	1190.19995117188
1617.89999626467	1181.19995117188
1618.51711703393	1180.40002441406
1619.13415698955	1182.19995117188
1619.75111613898	1177
1620.36799448966	1177.59997558594
1620.98479204903	1179.80004882813
1621.60150882455	1185
1622.21814482364	1181.59997558594
1622.83470005376	1193.80004882813
1623.45117452235	1191.59997558594
1624.06756823685	1190.40002441406
1624.6838812047	1183.80004882813
1625.30011343335	1182
1625.91626493022	1190.19995117188
1626.53233570278	1185.40002441406
1627.14832575845	1190.80004882813
1627.76423510468	1194
1628.38006374891	1189
1628.99581169857	1190.19995117188
1629.61147896111	1190.80004882813
1630.22706554397	1196.40002441406
1630.84257145457	1200.19995117188
1631.45799670038	1193.40002441406
1632.07334128881	1197.59997558594
1632.6886052273	1193
1633.3037885233	1185.59997558594
1633.91889118425	1186.80004882813
1634.53391321757	1183.59997558594
1635.1488546307	1188.80004882813
1635.76371543108	1187
1636.37849562616	1184.19995117188
1636.99319522335	1182.80004882813
1637.60781423009	1178.19995117188
1638.22235265383	1186.19995117188
1638.83681050198	1185.19995117188
1639.451187782	1186.40002441406
1640.0654845013	1183
1640.67970066734	1190
1641.29383628752	1193.19995117188
1641.9078913693	1188.59997558594
1642.5218659201	1183.59997558594
1643.13575994735	1185.40002441406
1643.74957345849	1183.80004882813
1644.36330646094	1190.40002441406
1644.97695896213	1191.40002441406
1645.59053096951	1187.19995117188
1646.20402249049	1190.59997558594
1646.8174335325	1195.59997558594
1647.43076410298	1199.59997558594
1648.04401420935	1209.40002441406
1648.65718385905	1209.19995117188
1649.2702730595	1201.19995117188
1649.88328181812	1225.19995117188
1650.49621014236	1212.80004882813
1651.10905803963	1206.59997558594
1651.72182551735	1205.40002441406
1652.33451258297	1198.40002441406
1652.9471192439	1199.19995117188
1653.55964550757	1205.19995117188
1654.1720913814	1200.40002441406
1654.78445687283	1205
1655.39674198926	1194.19995117188
1656.00894673814	1185.40002441406
1656.62107112688	1180.19995117188
1657.23311516291	1179.19995117188
1657.84507885365	1175
1658.45696220652	1172.19995117188
1659.06876522895	1169
1659.68048792835	1165.19995117188
1660.29213031217	1165.59997558594
1660.90369238779	1165.59997558594
1661.51517416267	1146.40002441406
1662.12657564421	1160.40002441406
1662.73789683984	1156.80004882813
1663.34913775697	1155.59997558594
1663.96029840303	1152.80004882813
1664.57137878544	1144
1665.18237891161	1144.19995117188
1665.79329878897	1143.59997558594
1666.40413842493	1146.19995117188
1667.01489782691	1137
1667.62557700233	1136.80004882813
1668.2361759586	1139
1668.84669470315	1139.40002441406
1669.4571332434	1147.59997558594
1670.06749158675	1132.40002441406
1670.67776974062	1123
1671.28796771243	1139.59997558594
1671.8980855096	1137.40002441406
1672.50812313954	1144.19995117188
1673.11808060967	1138.80004882813
1673.72795792739	1144.80004882813
1674.33775510013	1148.40002441406
1674.9474721353	1149.59997558594
1675.55710904031	1147.59997558594
1676.16666582257	1138.80004882813
1676.7761424895	1148.59997558594
1677.38553904851	1146
1677.99485550702	1143.59997558594
1678.60409187243	1145.19995117188
1679.21324815215	1139
1679.8223243536	1131.19995117188
1680.43132048419	1130.19995117188
1681.04023655132	1131.59997558594
1681.64907256241	1122.80004882813
1682.25782852487	1114.80004882813
1682.86650444611	1125
1683.47510033353	1124.80004882813
1684.08361619455	1128.59997558594
1684.69205203657	1118.40002441406
1685.300407867	1122.40002441406
1685.90868369325	1128
1686.51687952272	1127.59997558594
1687.12499536283	1135.19995117188
1687.73303122098	1134
1688.34098710457	1121.59997558594
1688.94886302101	1124.80004882813
1689.55665897772	1127.80004882813
1690.16437498208	1122.59997558594
1690.77201104152	1131.40002441406
1691.37956716342	1124.40002441406
1691.9870433552	1127
1692.59443962426	1130.59997558594
1693.20175597801	1131.40002441406
1693.80899242384	1133
1694.41614896916	1136
1695.02322562138	1123.80004882813
1695.63022238789	1120.19995117188
1696.23713927609	1127.59997558594
1696.8439762934	1126.80004882813
1697.4507334472	1130.59997558594
1698.05741074491	1129.80004882813
1698.66400819391	1126.40002441406
1699.27052580161	1128.80004882813
1699.87696357542	1127.19995117188
1700.48332152272	1126.40002441406
1701.08959965092	1117.19995117188
1701.69579796742	1117.40002441406
1702.30191647962	1110.40002441406
1702.90795519491	1109.19995117188
1703.51391412069	1102.80004882813
1704.11979326437	1108
1704.72559263332	1105.80004882813
1705.33131223496	1101.40002441406
1705.93695207668	1106.40002441406
1706.54251216588	1097.40002441406
1707.14799250994	1104.59997558594
1707.75339311628	1103.59997558594
1708.35871399227	1103.80004882813
1708.96395514532	1099.40002441406
1709.56911658282	1097
