634.948122577771	1526
635.690341530823	1527.80004882813
636.43246851086	1533
637.174503525845	1531.59997558594
637.916446583745	1544
638.658297692538	1522.80004882813
639.400056860179	1517.40002441406
640.141724094637	1502.19995117188
640.883299403885	1499.59997558594
641.62478279588	1515
642.366174278594	1524.59997558594
643.107473859989	1529.40002441406
643.848681548029	1530
644.589797350679	1525.59997558594
645.330821275901	1537.59997558594
646.071753331665	1527.59997558594
646.812593525922	1526
647.553341866646	1528.19995117188
648.293998361798	1511.80004882813
649.03456301933	1524.59997558594
649.775035847216	1521.80004882813
650.515416853409	1506
651.255706045874	1507.19995117188
651.995903432568	1503.40002441406
652.736009021453	1506.19995117188
653.476022820486	1519.59997558594
654.215944837629	1517.80004882813
654.955775080842	1504.19995117188
655.695513558081	1534.40002441406
656.435160277301	1550.40002441406
657.174715246465	1549.59997558594
657.914178473527	1552.40002441406
658.653549966449	1542.40002441406
659.392829733176	1533
660.132017781678	1519.80004882813
660.871114119901	1512.59997558594
661.610118755803	1508.59997558594
662.349031697343	1526.19995117188
663.087852952468	1545.19995117188
663.826582529139	1538
664.565220435305	1520
665.30376667892	1531.80004882813
666.04222126794	1516.80004882813
666.780584210316	1532.80004882813
667.518855514	1523.40002441406
668.25703518694	1529.59997558594
668.995123237096	1536.80004882813
669.733119672413	1536.19995117188
670.471024500842	1535
671.208837730333	1545.40002441406
671.946559368839	1540.19995117188
672.684189424308	1536.59997558594
673.421727904689	1539
674.159174817929	1538.40002441406
674.896530171977	1536
675.633793974786	1547
676.370966234295	1545
677.108046958461	1541
677.845036155219	1541.59997558594
678.581933832528	1548.59997558594
679.318739998323	1552.80004882813
680.055454660558	1541.40002441406
680.792077827172	1544
681.528609506116	1554.19995117188
682.265049705331	1535
683.001398432759	1542.59997558594
683.737655696349	1526.19995117188
684.47382150404	1531.80004882813
685.20989586378	1528.40002441406
685.945878783503	1547.80004882813
686.68177027116	1540
687.417570334688	1536.80004882813
688.153278982032	1540.40002441406
688.888896221129	1522.40002441406
689.624422059921	1536.59997558594
690.359856506349	1523.59997558594
691.095199568354	1545.80004882813
691.830451253874	1542
692.565611570844	1561.19995117188
693.300680527212	1566.59997558594
694.03565813091	1568
694.770544389877	1577.59997558594
695.505339312053	1556
696.240042905372	1544.40002441406
696.974655177772	1543
697.70917613719	1561.19995117188
698.443605791561	1576.19995117188
699.177944148826	1557
699.912191216909	1565
700.646347003755	1566.19995117188
701.380411517295	1567.40002441406
702.114384765465	1565.19995117188
702.848266756195	1565.19995117188
703.582057497421	1551
704.315756997074	1546.40002441406
705.049365263089	1548.19995117188
705.782882303399	1552.80004882813
706.516308125936	1555.80004882813
707.249642738626	1560.40002441406
707.982886149403	1567.19995117188
708.716038366204	1557.19995117188
709.449099396949	1554.19995117188
710.182069249577	1533.80004882813
710.914947932009	1551
711.647735452181	1531
712.380431818022	1531.19995117188
713.113037037454	1530
713.845551118411	1544.40002441406
714.577974068818	1541.59997558594
715.310305896604	1541.19995117188
716.042546609694	1554.80004882813
716.774696216013	1560.80004882813
717.506754723493	1564.40002441406
718.238722140053	1551.40002441406
718.970598473624	1551.80004882813
719.702383732127	1551.19995117188
720.43407792349	1558.80004882813
721.165681055634	1556.19995117188
721.897193136486	1565.59997558594
722.628614173966	1559.19995117188
723.359944175997	1572.80004882813
724.091183150505	1574.19995117188
724.822331105412	1552.80004882813
725.553388048638	1555.40002441406
726.284353988106	1555.80004882813
727.015228931734	1537
727.746012887449	1555
728.476705863162	1559.80004882813
729.207307866803	1556.40002441406
729.937818906289	1562.59997558594
730.668238989535	1554.80004882813
731.398568124459	1544.80004882813
732.128806318986	1541.19995117188
732.858953581034	1543.59997558594
733.589009918514	1552.59997558594
734.318975339348	1558.59997558594
735.048849851452	1548
735.778633462744	1553.40002441406
736.508326181137	1544.19995117188
737.237928014549	1558
737.967438970897	1564.40002441406
738.696859058095	1561.19995117188
739.426188284054	1567.40002441406
740.155426656692	1544
740.884574183922	1547.80004882813
741.613630873659	1557.59997558594
742.342596733815	1547.40002441406
743.071471772302	1568.59997558594
743.800255997034	1571
744.528949415921	1558.59997558594
745.257552036877	1550.40002441406
745.986063867811	1546
746.714484916638	1555
747.442815191261	1544.40002441406
748.171054699597	1557.40002441406
748.899203449554	1548
749.627261449039	1547
750.355228705966	1546.59997558594
751.083105228239	1553.19995117188
751.810891023765	1556
752.538586100459	1571.40002441406
753.266190466218	1574.59997558594
753.99370412896	1575.40002441406
754.721127096582	1599.40002441406
755.448459377	1587.59997558594
756.175700978114	1576.80004882813
756.902851907828	1585.59997558594
757.629912174055	1572.59997558594
758.356881784688	1566
759.083760747639	1563.19995117188
759.810549070817	1562.80004882813
760.537246762113	1556
761.263853829442	1549.80004882813
761.990370280698	1555.59997558594
762.716796123791	1560.80004882813
763.443131366618	1556.80004882813
764.169376017082	1558.80004882813
764.895530083085	1588.59997558594
765.621593572527	1584.59997558594
766.347566493312	1594
767.073448853336	1599.80004882813
767.799240660502	1597
768.524941922707	1604.19995117188
769.250552647854	1611.80004882813
769.976072843836	1607.80004882813
770.701502518551	1609.59997558594
771.426841679905	1611.40002441406
772.152090335793	1612.80004882813
772.877248494107	1612
773.602316162747	1621.59997558594
774.327293349609	1623.19995117188
775.052180062592	1640.80004882813
775.776976309589	1638
776.501682098496	1630
777.226297437206	1611.40002441406
777.950822333616	1615.59997558594
778.675256795621	1604.19995117188
779.399600831111	1611
780.123854447983	1602.80004882813
780.84801765413	1599.80004882813
781.572090457441	1601.40002441406
782.296072865811	1602.40002441406
783.019964887131	1587.59997558594
783.743766529297	1601.40002441406
784.467477800194	1591.19995117188
785.191098707719	1591
785.914629259756	1580.59997558594
786.638069464194	1582.80004882813
787.361419328932	1576.80004882813
788.084678861852	1564
788.807848070845	1550
789.530926963798	1553.80004882813
790.253915548602	1560.80004882813
790.976813833144	1569.40002441406
791.699621825307	1551.80004882813
792.422339532986	1545.19995117188
793.144966964061	1544.59997558594
793.86750412642	1554.59997558594
794.589951027946	1557.40002441406
795.312307676536	1560.40002441406
796.03457408006	1563.80004882813
796.756750246417	1572.80004882813
797.478836183477	1566.40002441406
798.200831899137	1563.19995117188
798.92273740127	1563.19995117188
799.644552697769	1569.19995117188
800.36627779651	1569.59997558594
801.087912705374	1584.80004882813
801.809457432251	1591.59997558594
802.530911985017	1577.19995117188
803.252276371558	1580.59997558594
803.973550599748	1554.80004882813
804.694734677472	1571
805.415828612611	1567.59997558594
806.136832413045	1594.40002441406
806.857746086646	1580.40002441406
807.578569641305	1574.19995117188
808.299303084892	1583.40002441406
809.019946425289	1571.40002441406
809.740499670372	1579.19995117188
810.460962828022	1571.59997558594
811.181335906114	1569.40002441406
811.901618912524	1565.40002441406
812.621811855131	1560.80004882813
813.341914741809	1565.19995117188
814.061927580433	1571.19995117188
814.781850378881	1572.19995117188
815.501683145025	1574.80004882813
816.221425886743	1575.19995117188
816.941078611903	1582.59997558594
817.660641328387	1557.80004882813
818.380114044065	1535.19995117188
819.099496766808	1543.80004882813
819.818789504492	1546.80004882813
820.53799226499	1525.59997558594
821.257105056168	1530.80004882813
821.976127885904	1533
822.695060762064	1547.80004882813
823.413903692525	1573.19995117188
824.132656685151	1572.40002441406
824.851319747817	1570.59997558594
825.569892888388	1579.19995117188
826.288376114739	1581.40002441406
827.006769434737	1584.59997558594
827.725072856249	1582.40002441406
828.443286387142	1583
829.161410035285	1570.59997558594
829.87944380855	1558.80004882813
830.597387714798	1570.59997558594
831.315241761898	1565.19995117188
832.033005957715	1575
832.750680310119	1578.59997558594
833.468264826969	1574.80004882813
834.18575951614	1575
834.903164385486	1572.40002441406
835.620479442878	1578
836.337704696181	1581.40002441406
837.054840153255	1586.19995117188
837.771885821962	1564.59997558594
838.488841710172	1569.19995117188
839.20570782574	1558.80004882813
839.922484176531	1562.80004882813
840.639170770409	1562.19995117188
841.355767615231	1558
842.072274718864	1564.59997558594
842.788692089164	1570.40002441406
843.505019733993	1572.19995117188
844.221257661209	1568
844.937405878676	1577.40002441406
845.65346439425	1554.80004882813
846.369433215789	1570
847.085312351156	1556.59997558594
847.801101808205	1562.19995117188
848.516801594793	1538.40002441406
849.232411718781	1530
849.947932188021	1540.59997558594
850.663363010376	1550
851.378704193698	1555.40002441406
852.093955745842	1562.19995117188
852.809117674669	1576
853.524189988028	1574.80004882813
854.239172693778	1569
854.954065799768	1572.19995117188
855.668869313857	1570.19995117188
856.383583243899	1563.80004882813
857.098207597743	1557.59997558594
857.812742383246	1547
858.527187608255	1547.59997558594
859.241543280628	1558.19995117188
859.955809408218	1567.19995117188
860.669985998868	1580.40002441406
861.384073060437	1581.19995117188
862.098070600772	1587.59997558594
862.811978627724	1590.19995117188
863.52579714914	1587
864.239526172873	1561.40002441406
864.953165706776	1561.59997558594
865.666715758687	1560.19995117188
866.380176336464	1558.40002441406
867.093547447951	1561
867.806829100996	1561.80004882813
868.520021303444	1543
869.233124063149	1553
869.94613738795	1526.40002441406
870.659061285693	1529
871.37189576423	1541
872.084640831403	1545
872.797296495057	1573
873.509862763039	1568
874.22233964319	1568
874.934727143353	1560.59997558594
875.647025271374	1565.40002441406
876.359234035097	1561.80004882813
877.071353442361	1556.19995117188
877.783383501015	1560.59997558594
878.495324218895	1562.59997558594
879.207175603844	1556.19995117188
879.918937663705	1562.40002441406
880.630610406318	1553.80004882813
881.342193839524	1579.80004882813
882.053687971161	1573.19995117188
882.765092809069	1567.19995117188
883.476408361091	1552.40002441406
884.187634635066	1560.19995117188
884.898771638828	1568.80004882813
885.609819380221	1560.40002441406
886.320777867076	1564.19995117188
887.031647107236	1544.80004882813
887.742427108536	1553
888.453117878816	1551
889.16371942591	1558
889.874231757652	1558.40002441406
890.584654881883	1575
891.294988806434	1557
892.005233539141	1573.40002441406
892.715389087837	1557.40002441406
893.42545546036	1567
894.135432664543	1562.40002441406
894.845320708216	1562.40002441406
895.555119599216	1573.59997558594
896.264829345375	1576.80004882813
896.974449954526	1587.59997558594
897.683981434496	1586.80004882813
898.393423793125	1587
899.102777038235	1583.59997558594
899.812041177664	1580.80004882813
900.521216219239	1587.59997558594
901.230302170793	1582.80004882813
901.939299040155	1571.80004882813
902.64820683515	1584.59997558594
903.357025563612	1562.59997558594
904.065755233368	1580.59997558594
904.774395852247	1571
905.482947428076	1581
906.191409968682	1570.59997558594
906.899783481897	1567.80004882813
907.608067975538	1575.40002441406
908.316263457443	1563.80004882813
909.02436993543	1554.59997558594
909.732387417327	1564.80004882813
910.440315910959	1566.80004882813
911.148155424154	1565.59997558594
911.855905964731	1568.59997558594
912.563567540521	1567.40002441406
913.271140159339	1558.80004882813
913.978623829017	1556.19995117188
914.686018557374	1555.59997558594
915.393324352237	1561.19995117188
916.100541221421	1553.80004882813
916.807669172752	1538
917.514708214054	1557.40002441406
918.221658353142	1535.59997558594
918.928519597843	1538
919.635291955976	1525.19995117188
920.341975435358	1530.80004882813
921.048570043813	1553.59997558594
921.75507578916	1569.40002441406
922.461492679212	1569.40002441406
923.167820721795	1579.80004882813
923.874059924726	1575.40002441406
924.58021029582	1570
925.286271842893	1574
925.992244573769	1572.80004882813
926.698128496262	1558
927.403923618184	1549.19995117188
928.109629947355	1555.19995117188
928.815247491593	1548.19995117188
929.520776258708	1551.19995117188
930.226216256519	1544.59997558594
930.931567492841	1567.80004882813
931.636829975482	1548.40002441406
932.342003712263	1545.80004882813
933.047088710995	1549.40002441406
933.752084979491	1558.59997558594
934.456992525564	1564.59997558594
935.161811357024	1552.59997558594
935.866541481688	1567.19995117188
936.571182907363	1554.59997558594
937.275735641861	1554.19995117188
937.980199692995	1552
938.684575068572	1544
939.388861776411	1549.40002441406
940.093059824311	1549.80004882813
940.797169220085	1550
941.501189971544	1541.19995117188
942.205122086495	1546.80004882813
942.908965572751	1530.80004882813
943.612720438111	1526.59997558594
944.316386690391	1529.59997558594
945.019964337391	1509.59997558594
945.723453386924	1525.40002441406
946.426853846795	1538.59997558594
947.130165724808	1531.80004882813
947.83338902877	1532.80004882813
948.536523766488	1532.40002441406
949.239569945764	1547.59997558594
949.942527574402	1533.80004882813
950.64539666021	1526.80004882813
951.348177210993	1535.59997558594
952.050869234548	1528.40002441406
952.753472738683	1525
953.455987731199	1519.19995117188
954.158414219898	1514.59997558594
954.860752212587	1531.80004882813
955.563001717061	1527.59997558594
956.265162741124	1527.40002441406
956.967235292576	1514.19995117188
957.669219379224	1520.19995117188
958.371115008857	1536
959.072922189283	1532.19995117188
959.774640928301	1536
960.476271233708	1535.19995117188
961.177813113301	1516.40002441406
961.879266574882	1509.19995117188
962.580631626248	1511
963.281908275194	1524
963.98309652952	1524.59997558594
964.684196397022	1524.59997558594
965.3852078855	1533.59997558594
966.086131002745	1522.80004882813
966.786965756555	1540
967.487712154726	1522.40002441406
968.188370205055	1534.19995117188
968.888939915331	1531.80004882813
969.589421293352	1529.59997558594
970.289814346909	1539.40002441406
970.990119083801	1543.40002441406
971.690335511819	1548.59997558594
972.39046363875	1546.19995117188
973.090503472398	1548
973.790455020545	1536.40002441406
974.490318290987	1528.59997558594
975.190093291516	1513.59997558594
975.889780029923	1518.59997558594
976.589378513998	1507.40002441406
977.288888751527	1517.59997558594
977.988310750308	1521.19995117188
978.687644518122	1532.80004882813
979.386890062767	1527.59997558594
980.086047392025	1525
980.785116513689	1528.59997558594
981.484097435542	1514.80004882813
982.182990165377	1526.40002441406
982.88179471098	1528.59997558594
983.580511080137	1528.59997558594
984.279139280632	1504
984.977679320253	1503.80004882813
985.67613120679	1498.19995117188
986.374494948027	1512.19995117188
987.072770551745	1520.40002441406
987.770958025731	1527.40002441406
988.469057377772	1512.80004882813
989.167068615649	1523.19995117188
989.864991747145	1513.40002441406
990.562826780047	1515.40002441406
991.260573722134	1529.40002441406
991.958232581195	1537.80004882813
992.655803365003	1540.19995117188
993.353286081346	1537.19995117188
994.050680738006	1543
994.74798734276	1542
995.44520590339	1542
996.142336427681	1539.19995117188
996.839378923407	1539.40002441406
997.536333398348	1525.19995117188
998.233199860289	1531.80004882813
998.929978317004	1517.80004882813
999.626668776274	1507.19995117188
1000.32327124587	1511.59997558594
1001.01978573359	1502
1001.71621224718	1505.59997558594
1002.41255079445	1507.59997558594
1003.10880138315	1506
1003.80496402107	1516.19995117188
1004.50103871599	1532.80004882813
1005.19702547567	1521.80004882813
1005.8929243079	1530.59997558594
1006.58873522045	1541.80004882813
1007.2844582211	1547.19995117188
1007.98009331761	1567.40002441406
1008.67564051776	1549.80004882813
1009.37109982933	1555.40002441406
1010.06647126009	1540.59997558594
1010.7617548178	1532
1011.45695051026	1532.80004882813
1012.15205834522	1526.40002441406
1012.84707833045	1542.40002441406
1013.54201047373	1526.40002441406
1014.23685478284	1525.80004882813
1014.93161126553	1525.59997558594
1015.62627992959	1540.59997558594
1016.32086078277	1535.80004882813
1017.01535383285	1536.40002441406
1017.70975908761	1527
1018.40407655479	1531.59997558594
1019.09830624219	1531.40002441406
1019.79244815755	1539
1020.48650230866	1532.59997558594
1021.18046870328	1525.80004882813
1021.87434734917	1528.40002441406
1022.56813825411	1539
1023.26184142584	1542.19995117188
1023.95545687216	1538.40002441406
1024.64898460082	1546
1025.34242461957	1536
1026.0357769362	1549.19995117188
1026.72904155846	1533.40002441406
1027.42221849412	1550.19995117188
1028.11530775094	1528.80004882813
1028.80830933668	1549.19995117188
1029.50122325911	1552.19995117188
1030.19404952599	1557.40002441406
1030.88678814508	1556.59997558594
1031.57943912414	1517.80004882813
1032.27200247093	1520.19995117188
1032.96447819323	1505.80004882813
1033.65686629878	1493.59997558594
1034.34916679534	1515.80004882813
1035.04137969068	1506.59997558594
1035.73350499256	1511
1036.42554270874	1503.59997558594
1037.11749284697	1501.59997558594
1037.80935541501	1495
1038.50113042062	1509.19995117188
1039.19281787156	1501.40002441406
1039.88441777559	1512.40002441406
1040.57593014046	1505.80004882813
1041.26735497393	1523.80004882813
1041.95869228376	1527.19995117188
1042.6499420777	1519.40002441406
1043.3411043635	1528.40002441406
1044.03217914893	1524.59997558594
1044.72316644174	1520.40002441406
1045.41406624968	1539
1046.1048785805	1544.59997558594
1046.79560344197	1532
1047.48624084182	1527
1048.17679078783	1532
1048.86725328774	1532
1049.55762834929	1521.80004882813
1050.24791598025	1509
1050.93811618837	1515.59997558594
1051.62822898139	1497.40002441406
1052.31825436707	1494.40002441406
1053.00819235315	1511
1053.6980429474	1532
1054.38780615755	1532
1055.07748199136	1519.80004882813
1055.76707045658	1515
1056.45657156095	1505.40002441406
1057.14598531222	1507.80004882813
1057.83531171814	1491.40002441406
1058.52455078646	1481
1059.21370252494	1480
1059.90276694129	1494.80004882813
1060.5917440433	1495.59997558594
1061.28063383868	1500
1061.9694363352	1511.40002441406
1062.65815154059	1520.19995117188
1063.34677946261	1528.59997558594
1064.03532010899	1527.80004882813
1064.72377348748	1522.80004882813
1065.41213960583	1518.59997558594
1066.10041847177	1508.80004882813
1066.78861009306	1498.80004882813
1067.47671447743	1495.59997558594
1068.16473163263	1501.19995117188
1068.85266156639	1505.19995117188
1069.54050428647	1498.59997558594
1070.2282598006	1512
1070.91592811652	1519.40002441406
1071.60350924198	1513.80004882813
1072.29100318471	1511.80004882813
1072.97840995245	1510.19995117188
1073.66572955295	1518.19995117188
1074.35296199394	1520.59997558594
1075.04010728316	1518.59997558594
1075.72716542836	1514.19995117188
1076.41413643726	1515.59997558594
1077.10102031761	1509
1077.78781707715	1499
1078.4745267236	1488.59997558594
1079.16114926471	1482
1079.84768470822	1480.80004882813
1080.53413306185	1478
1081.22049433336	1501.59997558594
1081.90676853046	1499.80004882813
1082.5929556609	1509.80004882813
1083.27905573241	1506.19995117188
1083.96506875272	1520.59997558594
1084.65099472957	1520
1085.3368336707	1517.19995117188
1086.02258558383	1500.40002441406
1086.70825047669	1502.59997558594
1087.39382835703	1495
1088.07931923257	1505
1088.76472311104	1507.19995117188
1089.45004000018	1499.19995117188
1090.13526990771	1499.40002441406
1090.82041284137	1507.80004882813
1091.50546880889	1502.59997558594
1092.19043781799	1482.80004882813
1092.87531987642	1492.80004882813
1093.56011499188	1479.59997558594
1094.24482317212	1482.19995117188
1094.92944442486	1482.19995117188
1095.61397875783	1473.19995117188
1096.29842617876	1482.80004882813
1096.98278669537	1488.80004882813
1097.6670603154	1491
1098.35124704656	1486
1099.03534689659	1487.59997558594
1099.71935987322	1477.80004882813
1100.40328598416	1503.19995117188
1101.08712523713	1492.40002441406
1101.77087763988	1496.59997558594
1102.45454320012	1510
1103.13812192557	1492.19995117188
1103.82161382396	1486.19995117188
1104.50501890301	1490.40002441406
1105.18833717045	1492.19995117188
1105.87156863399	1496.80004882813
1106.55471330137	1509.59997558594
1107.2377711803	1510
1107.9207422785	1524
1108.60362660369	1517
1109.2864241636	1522.40002441406
1109.96913496594	1527.19995117188
1110.65175901844	1509
1111.33429632882	1505.80004882813
1112.01674690479	1505.19995117188
1112.69911075408	1506.59997558594
1113.38138788439	1502
1114.06357830346	1500.40002441406
1114.745682019	1496.19995117188
1115.42769903872	1504.19995117188
1116.10962937035	1520
1116.7914730216	1527.59997558594
1117.47323000018	1519.59997558594
1118.15490031382	1498.40002441406
1118.83648397022	1501.40002441406
1119.51798097712	1494.59997558594
1120.1993913422	1480.59997558594
1120.88071507321	1479.59997558594
1121.56195217784	1492.19995117188
1122.24310266381	1476.19995117188
1122.92416653884	1483.40002441406
1123.60514381064	1494.19995117188
1124.28603448692	1495.59997558594
1124.9668385754	1510.59997558594
1125.64755608378	1523.59997558594
1126.32818701978	1511
1127.00873139111	1511.19995117188
1127.68918920548	1510.59997558594
1128.3695604706	1522.59997558594
1129.04984519419	1515
1129.73004338394	1517.40002441406
1130.41015504758	1511.40002441406
1131.09018019281	1514.80004882813
1131.77011882734	1507.19995117188
1132.44997095888	1510.19995117188
1133.12973659514	1509.59997558594
1133.80941574381	1510.40002441406
1134.48900841263	1497.40002441406
1135.16851460927	1492.40002441406
1135.84793434147	1483.40002441406
1136.52726761692	1481.40002441406
1137.20651444333	1482.19995117188
1137.8856748284	1490.40002441406
1138.56474877984	1470.19995117188
1139.24373630536	1478.19995117188
1139.92263741265	1486.59997558594
1140.60145210943	1503.59997558594
1141.28018040339	1501.59997558594
1141.95882230225	1497.80004882813
1142.6373778137	1495
1143.31584694545	1505
1143.99422970519	1497.59997558594
1144.67252610064	1496.80004882813
1145.35073613949	1487.59997558594
1146.02885982944	1486.80004882813
1146.7068971782	1483.40002441406
1147.38484819347	1487.59997558594
1148.06271288294	1480
1148.74049125432	1490.40002441406
1149.41818331531	1505.80004882813
1150.0957890736	1495.59997558594
1150.77330853689	1489.19995117188
1151.45074171289	1485.19995117188
1152.12808860928	1473.80004882813
1152.80534923378	1468
1153.48252359407	1468.40002441406
1154.15961169786	1459.59997558594
1154.83661355283	1458.80004882813
1155.51352916669	1459.59997558594
1156.19035854713	1464.59997558594
1156.86710170185	1467.19995117188
1157.54375863855	1468
1158.22032936491	1475.80004882813
1158.89681388863	1453.59997558594
1159.57321221741	1458.19995117188
1160.24952435894	1493.19995117188
1160.92575032092	1493.19995117188
1161.60189011103	1500.19995117188
1162.27794373697	1505.59997558594
1162.95391120644	1492
1163.62979252712	1502.19995117188
1164.3055877067	1492.80004882813
1164.98129675288	1485.19995117188
1165.65691967336	1491.59997558594
1166.33245647581	1494.19995117188
1167.00790716792	1480.19995117188
1167.6832717574	1471.80004882813
1168.35855025193	1483.59997558594
1169.0337426592	1483.40002441406
1169.70884898689	1467
1170.3838692427	1447.19995117188
1171.05880343431	1479.80004882813
1171.73365156941	1475.80004882813
1172.40841365569	1474
1173.08308970083	1475
1173.75767971253	1484.59997558594
1174.43218369847	1464.40002441406
1175.10660166633	1473.19995117188
1175.7809336238	1455.19995117188
1176.45517957857	1453.80004882813
1177.12933953832	1463.59997558594
1177.80341351073	1456.59997558594
1178.47740150349	1479.59997558594
1179.15130352429	1479
1179.8251195808	1491.80004882813
1180.49884968071	1500.80004882813
1181.1724938317	1487.19995117188
1181.84605204145	1498.40002441406
1182.51952431766	1482.59997558594
1183.19291066799	1491.80004882813
1183.86621110013	1498.40002441406
1184.53942562176	1513.80004882813
1185.21255424057	1506
1185.88559696422	1514.59997558594
1186.55855380041	1497.40002441406
1187.2314247568	1483.40002441406
1187.90420984109	1492.19995117188
1188.57690906095	1491
1189.24952242405	1497.19995117188
1189.92204993808	1489.19995117188
1190.59449161071	1493.40002441406
1191.26684744962	1504.59997558594
1191.93911746249	1498.59997558594
1192.61130165699	1491.59997558594
1193.28340004081	1499.59997558594
1193.95541262161	1492.80004882813
1194.62733940707	1499.59997558594
1195.29918040487	1510.59997558594
1195.97093562269	1509.19995117188
1196.64260506819	1504
1197.31418874905	1497.19995117188
1197.98568667295	1492
1198.65709884755	1484.40002441406
1199.32842528053	1489.80004882813
1199.99966597957	1482
1200.67082095234	1485.40002441406
1201.3418902065	1473.59997558594
1202.01287374974	1476.59997558594
1202.68377158971	1489
1203.3545837341	1481.19995117188
1204.02531019057	1492
1204.6959509668	1480.19995117188
1205.36650607045	1480.80004882813
1206.03697550919	1486.40002441406
1206.70735929069	1475.59997558594
1207.37765742263	1487.40002441406
1208.04786991266	1489.19995117188
1208.71799676846	1493
1209.38803799769	1476.59997558594
1210.05799360803	1468
1210.72786360714	1484.80004882813
1211.39764800268	1480.80004882813
1212.06734680233	1490.80004882813
1212.73696001375	1489.59997558594
1213.4064876446	1469.19995117188
1214.07592970255	1491.19995117188
1214.74528619526	1467
1215.4145571304	1454.40002441406
1216.08374251564	1467.40002441406
1216.75284235863	1463.19995117188
1217.42185666704	1473.80004882813
1218.09078544854	1466
1218.75962871078	1464.40002441406
1219.42838646143	1462
1220.09705870816	1475.19995117188
1220.76564545861	1477.80004882813
1221.43414672046	1474.40002441406
1222.10256250136	1477.19995117188
1222.77089280898	1474.19995117188
1223.43913765098	1469.19995117188
1224.107297035	1465.19995117188
1224.77537096873	1469.80004882813
1225.44335945981	1472.40002441406
1226.1112625159	1465.40002441406
1226.77908014467	1469.80004882813
1227.44681235376	1463.59997558594
1228.11445915085	1482.59997558594
1228.78202054357	1472.80004882813
1229.44949653961	1478.80004882813
1230.11688714659	1465.59997558594
1230.7841923722	1460.19995117188
1231.45141222407	1448.59997558594
1232.11854670988	1460.19995117188
1232.78559583726	1444.80004882813
1233.45255961388	1442.59997558594
1234.1194380474	1449.19995117188
1234.78623114546	1459.19995117188
1235.45293891572	1466.80004882813
1236.11956136583	1475
1236.78609850345	1469.19995117188
1237.45255033623	1482.59997558594
1238.11891687182	1490.80004882813
1238.78519811788	1474.59997558594
1239.45139408205	1464.59997558594
1240.11750477198	1473.40002441406
1240.78353019534	1474.19995117188
1241.44947035976	1465.80004882813
1242.11532527291	1459.80004882813
1242.78109494242	1472
1243.44677937595	1462.19995117188
1244.11237858115	1464.80004882813
1244.77789256567	1472
1245.44332133715	1476.19995117188
1246.10866490325	1491.40002441406
1246.7739232716	1484.59997558594
1247.43909644987	1485.59997558594
1248.10418444569	1480.59997558594
1248.76918726671	1481.19995117188
1249.43410492059	1475
1250.09893741496	1466.59997558594
1250.76368475747	1459.19995117188
1251.42834695576	1455.80004882813
1252.09292401749	1450.59997558594
1252.75741595029	1454
1253.42182276182	1475.19995117188
1254.08614445971	1466.40002441406
1254.75038105161	1476.59997558594
1255.41453254515	1483.59997558594
1256.07859894799	1474.80004882813
1256.74258026777	1459.19995117188
1257.40647651213	1443.19995117188
1258.0702876887	1438
1258.73401380514	1426.19995117188
1259.39765486908	1442.80004882813
1260.06121088817	1453
1260.72468187004	1461.59997558594
1261.38806782233	1456.80004882813
1262.05136875269	1458.40002441406
1262.71458466875	1455
1263.37771557815	1454.59997558594
1264.04076148854	1452
1264.70372240753	1454
1265.3665983428	1453.80004882813
1266.02938930195	1443.59997558594
1266.69209529263	1448
1267.35471632249	1461
1268.01725239914	1452.19995117188
1268.67970353024	1452.40002441406
1269.34206972342	1442.40002441406
1270.00435098631	1441.80004882813
1270.66654732655	1446
1271.32865875177	1451.40002441406
1271.9906852696	1457.59997558594
1272.65262688768	1461.59997558594
1273.31448361365	1468.40002441406
1273.97625545514	1458.19995117188
1274.63794241978	1456.19995117188
1275.2995445152	1455
1275.96106174903	1463.80004882813
1276.62249412892	1465.59997558594
1277.28384166248	1465.19995117188
1277.94510435735	1458.59997558594
1278.60628222116	1456
1279.26737526155	1457.80004882813
1279.92838348613	1454.59997558594
1280.58930690255	1455.59997558594
1281.25014551842	1448.40002441406
1281.91089934139	1462.59997558594
1282.57156837907	1445.59997558594
1283.2321526391	1449
1283.89265212911	1457.40002441406
1284.55306685671	1450.80004882813
1285.21339682955	1434.80004882813
1285.87364205525	1422
1286.53380254142	1409.19995117188
1287.19387829571	1410.59997558594
1287.85386932573	1417.59997558594
1288.51377563911	1429.80004882813
1289.17359724348	1435.80004882813
1289.83333414646	1442.59997558594
1290.49298635567	1444.59997558594
1291.15255387874	1441.59997558594
1291.8120367233	1438.80004882813
1292.47143489696	1440.59997558594
1293.13074840736	1442.19995117188
1293.7899772621	1433.80004882813
1294.44912146882	1433.19995117188
1295.10818103513	1441.19995117188
1295.76715596866	1435.59997558594
1296.42604627704	1447.80004882813
1297.08485196787	1445.19995117188
1297.74357304878	1424.59997558594
1298.4022095274	1444.19995117188
1299.06076141134	1448.59997558594
1299.71922870821	1448.19995117188
1300.37761142565	1443.80004882813
1301.03590957126	1437.80004882813
1301.69412315268	1445.59997558594
1302.3522521775	1447.40002441406
1303.01029665336	1449.59997558594
1303.66825658787	1433.80004882813
1304.32613198865	1437.40002441406
1304.98392286332	1442.59997558594
1305.64162921948	1442.40002441406
1306.29925106476	1431.59997558594
1306.95678840677	1442.59997558594
1307.61424125312	1452.80004882813
1308.27160961145	1448.80004882813
1308.92889348934	1445.80004882813
1309.58609289443	1445
1310.24320783432	1444.59997558594
1310.90023831664	1436.40002441406
1311.55718434898	1423
1312.21404593897	1419.59997558594
1312.87082309421	1413
1313.52751582233	1410.40002441406
1314.18412413092	1425
1314.84064802761	1413.40002441406
1315.49708752	1438.19995117188
1316.1534426157	1434
1316.80971332233	1445
1317.46589964749	1444
1318.1220015988	1447.80004882813
1318.77801918386	1450.19995117188
1319.43395241028	1447.19995117188
1320.08980128567	1447.40002441406
1320.74556581764	1455.80004882813
1321.4012460138	1448.80004882813
1322.05684188176	1452.40002441406
1322.71235342911	1440.19995117188
1323.36778066347	1452.40002441406
1324.02312359245	1456.40002441406
1324.67838222365	1457.80004882813
1325.33355656468	1463.80004882813
1325.98864662314	1451.80004882813
1326.64365240663	1444.80004882813
1327.29857392277	1449.40002441406
1327.95341117915	1449.40002441406
1328.60816418339	1462.40002441406
1329.26283294308	1455.19995117188
1329.91741746582	1448.59997558594
1330.57191775923	1442.80004882813
1331.2263338309	1445.80004882813
1331.88066568843	1449.80004882813
1332.53491333943	1452.40002441406
1333.1890767915	1450.40002441406
1333.84315605224	1459
1334.49715112925	1456.80004882813
1335.15106203013	1456.40002441406
1335.80488876249	1455.80004882813
1336.45863133391	1443.19995117188
1337.112289752	1440
1337.76586402437	1449.59997558594
1338.4193541586	1457.19995117188
1339.0727601623	1474
1339.72608204306	1477.59997558594
1340.37931980849	1483.40002441406
1341.03247346617	1467.40002441406
1341.68554302372	1461.19995117188
1342.33852848871	1455.40002441406
1342.99142986876	1465
1343.64424717145	1471.59997558594
1344.29698040438	1458.40002441406
1344.94962957515	1457.19995117188
1345.60219469135	1467.19995117188
1346.25467576058	1469.40002441406
1346.90707279042	1469.59997558594
1347.55938578848	1459.19995117188
1348.21161476235	1463.59997558594
1348.86375971962	1452.40002441406
1349.51582066787	1457.59997558594
1350.16779761472	1465.40002441406
1350.81969056774	1446.59997558594
1351.47149953453	1451.19995117188
1352.12322452269	1452.19995117188
1352.77486553979	1441.59997558594
1353.42642259344	1451.19995117188
1354.07789569122	1458.40002441406
1354.72928484072	1458
1355.38059004953	1475.59997558594
1356.03181132525	1486.40002441406
1356.68294867545	1491.19995117188
1357.33400210773	1497
1357.98497162968	1483.40002441406
1358.63585724889	1476.59997558594
1359.28665897294	1474.59997558594
1359.93737680942	1471.80004882813
1360.58801076591	1478.59997558594
1361.23856085001	1496.59997558594
1361.88902706929	1494
1362.53940943135	1507.19995117188
1363.18970794377	1485.80004882813
1363.83992261413	1482.80004882813
1364.49005345003	1494.40002441406
1365.14010045904	1496.59997558594
1365.79006364874	1499.40002441406
1366.43994302673	1500.80004882813
1367.08973860058	1499
1367.73945037788	1502.80004882813
1368.38907836621	1499.40002441406
1369.03862257315	1507.80004882813
1369.68808300629	1485
1370.3374596732	1494.59997558594
1370.98675258148	1500
1371.63596173868	1484.19995117188
1372.28508715241	1488
1372.93412883024	1483.40002441406
1373.58308677974	1462.59997558594
1374.2319610085	1462
1374.8807515241	1448
1375.52945833412	1449
1376.17808144612	1435.40002441406
1376.82662086771	1452.40002441406
1377.47507660644	1427.40002441406
1378.12344866989	1428
1378.77173706565	1441
1379.41994180129	1443.19995117188
1380.06806288439	1444.59997558594
1380.71610032252	1459.40002441406
1381.36405412326	1449.19995117188
1382.01192429419	1450.59997558594
1382.65971084287	1455.80004882813
1383.30741377688	1451.40002441406
1383.95503310381	1446.19995117188
1384.60256883121	1457
1385.25002096667	1436.40002441406
1385.89738951775	1433.80004882813
1386.54467449204	1418
1387.19187589709	1434.40002441406
1387.8389937405	1418.59997558594
1388.48602802982	1422.59997558594
1389.13297877262	1416.19995117188
1389.77984597649	1424.80004882813
1390.42662964899	1414
1391.07332979768	1428.80004882813
1391.71994643015	1444.19995117188
1392.36647955395	1425.80004882813
1393.01292917667	1430.59997558594
1393.65929530586	1428.40002441406
1394.3055779491	1434.59997558594
1394.95177711395	1425.19995117188
1395.59789280799	1426.80004882813
1396.24392503877	1424
1396.88987381387	1423.59997558594
1397.53573914086	1424.80004882813
1398.1815210273	1430.19995117188
1398.82721948075	1430
1399.47283450878	1430.59997558594
1400.11836611897	1429.19995117188
1400.76381431886	1428.80004882813
1401.40917911603	1407.80004882813
1402.05446051805	1383.19995117188
1402.69965853247	1388
1403.34477316686	1384.80004882813
1403.98980442878	1381.59997558594
1404.6347523258	1393
1405.27961686548	1401.80004882813
1405.92439805538	1402.59997558594
1406.56909590306	1395.40002441406
1407.21371041608	1392.59997558594
1407.85824160202	1401.19995117188
1408.50268946841	1404.80004882813
1409.14705402284	1408.19995117188
1409.79133527285	1405.59997558594
1410.43553322601	1401.19995117188
1411.07964788987	1412.59997558594
1411.723679272	1427.19995117188
1412.36762737996	1420.19995117188
1413.01149222129	1415.59997558594
1413.65527380357	1409.40002441406
1414.29897213435	1410.19995117188
1414.94258722118	1389.80004882813
1415.58611907163	1396.80004882813
1416.22956769325	1384
1416.87293309359	1386.19995117188
1417.51621528021	1387.80004882813
1418.15941426067	1384.19995117188
1418.80253004253	1392.59997558594
1419.44556263333	1405.59997558594
1420.08851204063	1416.80004882813
1420.731378272	1415.80004882813
1421.37416133497	1426.80004882813
1422.0168612371	1423.19995117188
1422.65947798596	1426.59997558594
1423.30201158908	1422.59997558594
1423.94446205403	1421.59997558594
1424.58682938835	1414.80004882813
1425.2291135996	1415.40002441406
1425.87131469532	1410.80004882813
1426.51343268308	1419.19995117188
1427.15546757042	1407.19995117188
1427.79741936488	1420.19995117188
1428.43928807403	1402.80004882813
1429.0810737054	1414.59997558594
1429.72277626656	1399.40002441406
1430.36439576504	1404.80004882813
1431.00593220841	1397
1431.64738560419	1403.40002441406
1432.28875595995	1394.59997558594
1432.93004328324	1398.40002441406
1433.57124758159	1398
1434.21236886255	1393
1434.85340713368	1419.59997558594
1435.49436240252	1408.80004882813
1436.13523467661	1411.59997558594
1436.77602396349	1415.19995117188
1437.41673027073	1400.19995117188
1438.05735360585	1412.59997558594
1438.69789397641	1410.40002441406
1439.33835138994	1409.80004882813
1439.978725854	1390.59997558594
1440.61901737612	1396.80004882813
1441.25922596385	1405.80004882813
1441.89935162473	1404.80004882813
1442.53939436631	1405.40002441406
1443.17935419612	1403.59997558594
1443.81923112171	1390.59997558594
1444.45902515061	1395.80004882813
1445.09873629038	1397.80004882813
1445.73836454854	1408.40002441406
1446.37790993265	1405.59997558594
1447.01737245024	1412.19995117188
1447.65675210885	1422.80004882813
1448.29604891602	1419.40002441406
1448.93526287928	1405
1449.57439400618	1408
1450.21344230426	1406
1450.85240778105	1403.19995117188
1451.49129044409	1394.80004882813
1452.13009030092	1401.40002441406
1452.76880735907	1401.80004882813
1453.40744162608	1391.59997558594
1454.04599310949	1401.59997558594
1454.68446181683	1398.40002441406
1455.32284775564	1409.19995117188
1455.96115093345	1407.59997558594
1456.5993713578	1404.59997558594
1457.23750903623	1402
1457.87556397626	1393.80004882813
1458.51353618543	1392.80004882813
1459.15142567127	1385
1459.78923244132	1384.19995117188
1460.42695650311	1394.80004882813
1461.06459786417	1394.40002441406
1461.70215653203	1404.59997558594
1462.33963251423	1390.80004882813
1462.97702581829	1394.40002441406
1463.61433645175	1396.19995117188
1464.25156442214	1397
1464.88870973699	1398.19995117188
1465.52577240382	1390.19995117188
1466.16275243017	1386.80004882813
1466.79964982356	1390
1467.43646459154	1380.80004882813
1468.07319674161	1380.19995117188
1468.70984628132	1376.40002441406
1469.34641321818	1380.59997558594
1469.98289755974	1386
1470.6192993135	1382.59997558594
1471.25561848701	1395.19995117188
1471.89185508779	1387.80004882813
1472.52800912336	1394.19995117188
1473.16408060124	1384.59997558594
1473.80006952897	1387.40002441406
1474.43597591407	1392.19995117188
1475.07179976406	1398
1475.70754108647	1392.80004882813
1476.34319988883	1390.59997558594
1476.97877617865	1387.80004882813
1477.61426996345	1400.59997558594
1478.24968125077	1412
1478.88501004812	1404.19995117188
1479.52025636303	1415.19995117188
1480.15542020302	1405.19995117188
1480.79050157561	1409
1481.42550048832	1412.19995117188
1482.06041694867	1417.59997558594
1482.69525096418	1412.59997558594
1483.33000254237	1401
1483.96467169077	1408.80004882813
1484.59925841689	1401.40002441406
1485.23376272825	1408.80004882813
1485.86818463237	1400.80004882813
1486.50252413677	1389
1487.13678124896	1395.80004882813
1487.77095597646	1396
1488.4050483268	1380
1489.03905830749	1376.40002441406
1489.67298592604	1378.19995117188
1490.30683118996	1379.59997558594
1490.9405941068	1385.40002441406
1491.57427468403	1396.19995117188
1492.2078729292	1403.40002441406
1492.84138884981	1393.19995117188
1493.47482245338	1401.40002441406
1494.10817374742	1401.19995117188
1494.74144273944	1409.40002441406
1495.37462943696	1399.40002441406
1496.0077338475	1413.40002441406
1496.64075597856	1393.59997558594
1497.27369583765	1395
1497.9065534323	1375.19995117188
1498.53932877001	1381.40002441406
1499.17202185829	1374
1499.80463270465	1373.40002441406
1500.43716131661	1372.59997558594
1501.06960770167	1377.40002441406
1501.70197186735	1379
1502.33425382116	1389.59997558594
1502.96645357059	1393.59997558594
1503.59857112317	1386.59997558594
1504.23060648641	1378
1504.8625596678	1383
1505.49443067486	1395.19995117188
1506.1262195151	1406
1506.75792619602	1386.40002441406
1507.38955072513	1400.40002441406
1508.02109310993	1405.80004882813
1508.65255335794	1396.80004882813
1509.28393147666	1387
1509.91522747359	1404.59997558594
1510.54644135624	1388.19995117188
1511.17757313212	1401.40002441406
1511.80862280872	1408.59997558594
1512.43959039356	1400.19995117188
1513.07047589413	1403.59997558594
1513.70127931795	1406.19995117188
1514.33200067251	1391
1514.96263996531	1381
1515.59319720386	1382.80004882813
1516.22367239567	1381.59997558594
1516.85406554822	1381.19995117188
1517.48437666903	1382
1518.1146057656	1385.19995117188
1518.74475284542	1373.59997558594
1519.374817916	1370.59997558594
1520.00480098483	1366.40002441406
1520.63470205942	1388
1521.26452114726	1375
1521.89425825586	1373.59997558594
1522.52391339271	1372.80004882813
1523.15348656531	1377.59997558594
1523.78297778116	1394
1524.41238704775	1386.59997558594
1525.04171437259	1382.59997558594
1525.67095976317	1378.80004882813
1526.30012322699	1372.19995117188
1526.92920477154	1389.19995117188
1527.55820440432	1367.59997558594
1528.18712213283	1361.80004882813
1528.81595796455	1353.59997558594
1529.44471190699	1347.80004882813
1530.07338396764	1339.80004882813
1530.70197415399	1349.80004882813
1531.33048247353	1347
1531.95890893377	1348
1532.58725354219	1349
1533.21551630629	1374
1533.84369723356	1377.80004882813
1534.47179633148	1375.59997558594
1535.09981360757	1381.40002441406
1535.72774906929	1388
1536.35560272415	1399.59997558594
1536.98337457963	1382.40002441406
1537.61106464323	1388.59997558594
1538.23867292243	1392.40002441406
1538.86619942473	1382.40002441406
1539.49364415762	1377.80004882813
1540.12100712857	1391
1540.74828834509	1389.59997558594
1541.37548781466	1379.59997558594
1542.00260554478	1369.80004882813
1542.62964154291	1368.40002441406
1543.25659581655	1378.80004882813
1543.8834683732	1374.59997558594
1544.51025922034	1384.19995117188
1545.13696836544	1379.80004882813
1545.76359581601	1367.19995117188
1546.39014157952	1375
1547.01660566345	1364.19995117188
1547.64298807531	1342.59997558594
1548.26928882255	1348
1548.89550791269	1357.40002441406
1549.52164535318	1359.59997558594
1550.14770115153	1366.59997558594
1550.77367531521	1369.40002441406
1551.39956785171	1358.59997558594
1552.0253787685	1358.19995117188
1552.65110807307	1362
1553.2767557729	1365.19995117188
1553.90232187548	1372.40002441406
1554.52780638828	1362
1555.15320931879	1364.59997558594
1555.77853067447	1355
1556.40377046282	1361.40002441406
1557.02892869132	1347.59997558594
1557.65400536744	1347.40002441406
1558.27900049866	1351.59997558594
1558.90391409247	1355.80004882813
1559.52874615633	1355
1560.15349669773	1357.59997558594
1560.77816572414	1370.59997558594
1561.40275324305	1362.80004882813
1562.02725926192	1353.40002441406
1562.65168378824	1364.80004882813
1563.27602682948	1372.19995117188
1563.90028839311	1369
1564.52446848662	1368
1565.14856711748	1361.40002441406
1565.77258429316	1365
1566.39652002113	1362.40002441406
1567.02037430887	1366.40002441406
1567.64414716387	1364.80004882813
1568.26783859357	1367.19995117188
1568.89144860547	1363
1569.51497720703	1355.40002441406
1570.13842440573	1350.40002441406
1570.76179020904	1359.80004882813
1571.38507462442	1361
1572.00827765936	1363.19995117188
1572.63139932132	1354.19995117188
1573.25443961777	1346.19995117188
1573.87739855618	1341.59997558594
1574.50027614402	1350.19995117188
1575.12307238877	1358.80004882813
1575.74578729789	1355
1576.36842087885	1360.80004882813
1576.99097313912	1368
1577.61344408616	1344.59997558594
1578.23583372745	1346.80004882813
1578.85814207046	1347.40002441406
1579.48036912264	1352.40002441406
1580.10251489147	1337
1580.72457938441	1344.19995117188
1581.34656260893	1346.80004882813
1581.9684645725	1350.40002441406
1582.59028528258	1357
1583.21202474663	1359.40002441406
1583.83368297212	1354.19995117188
1584.45525996652	1352.59997558594
1585.07675573728	1348.40002441406
1585.69817029188	1346.19995117188
1586.31950363778	1348.80004882813
1586.94075578243	1340.19995117188
1587.5619267333	1350.19995117188
1588.18301649786	1335.59997558594
1588.80402508357	1333.40002441406
1589.42495249788	1325.19995117188
1590.04579874826	1324.80004882813
1590.66656384217	1323.40002441406
1591.28724778707	1326.59997558594
1591.90785059042	1322.19995117188
1592.52837225968	1309.80004882813
1593.14881280232	1305.19995117188
1593.76917222578	1318.19995117188
1594.38945053753	1322.40002441406
1595.00964774502	1310.19995117188
1595.62976385573	1307.59997558594
1596.24979887709	1311.59997558594
1596.86975281657	1309.59997558594
1597.48962568164	1311.80004882813
1598.10941747974	1319.19995117188
1598.72912821832	1320.80004882813
1599.34875790486	1322.59997558594
1599.9683065468	1333.19995117188
1600.58777415159	1324.19995117188
1601.2071607267	1324
1601.82646627958	1317
1602.44569081769	1312.19995117188
1603.06483434846	1309.59997558594
1603.68389687937	1299
1604.30287841786	1302.80004882813
1604.92177897139	1297.40002441406
1605.54059854741	1293.59997558594
1606.15933715337	1293.19995117188
1606.77799479672	1282.59997558594
1607.39657148492	1298
1608.01506722542	1293
1608.63348202566	1298.59997558594
1609.2518158931	1298
1609.87006883519	1305.40002441406
1610.48824085939	1295.40002441406
1611.10633197312	1294.19995117188
1611.72434218386	1303
1612.34227149904	1295.80004882813
1612.96011992612	1292.80004882813
1613.57788747254	1282.19995117188
1614.19557414575	1286.80004882813
1614.8131799532	1284.19995117188
1615.43070490234	1278.80004882813
1616.04814900061	1274.59997558594
1616.66551225545	1287.59997558594
1617.28279467433	1285.59997558594
1617.89999626467	1289.19995117188
1618.51711703393	1281.80004882813
1619.13415698955	1273.59997558594
1619.75111613898	1281.59997558594
1620.36799448966	1272.40002441406
1620.98479204903	1280
1621.60150882455	1284.19995117188
1622.21814482364	1284.40002441406
1622.83470005376	1285
1623.45117452235	1292
1624.06756823685	1287
1624.6838812047	1296.40002441406
1625.30011343335	1292.40002441406
1625.91626493022	1294.40002441406
1626.53233570278	1287.59997558594
1627.14832575845	1281.80004882813
1627.76423510468	1285.59997558594
1628.38006374891	1291.59997558594
1628.99581169857	1296.80004882813
1629.61147896111	1293
1630.22706554397	1293
1630.84257145457	1288.40002441406
1631.45799670038	1287.80004882813
1632.07334128881	1278.80004882813
1632.6886052273	1285.40002441406
1633.3037885233	1275.40002441406
1633.91889118425	1274.59997558594
1634.53391321757	1285.19995117188
1635.1488546307	1283.40002441406
1635.76371543108	1268.40002441406
1636.37849562616	1274.59997558594
1636.99319522335	1266.40002441406
1637.60781423009	1270
1638.22235265383	1285.19995117188
1638.83681050198	1272.40002441406
1639.451187782	1272
1640.0654845013	1277.19995117188
1640.67970066734	1273.80004882813
1641.29383628752	1279
1641.9078913693	1281.59997558594
1642.5218659201	1279.59997558594
1643.13575994735	1265.19995117188
1643.74957345849	1273.59997558594
1644.36330646094	1273.80004882813
1644.97695896213	1281.80004882813
1645.59053096951	1274.80004882813
1646.20402249049	1273.59997558594
1646.8174335325	1288
1647.43076410298	1292.80004882813
1648.04401420935	1315.40002441406
1648.65718385905	1312.40002441406
1649.2702730595	1317.80004882813
1649.88328181812	1328.19995117188
1650.49621014236	1317.80004882813
1651.10905803963	1309.19995117188
1651.72182551735	1298.40002441406
1652.33451258297	1300.19995117188
1652.9471192439	1298.80004882813
1653.55964550757	1309
1654.1720913814	1303.80004882813
1654.78445687283	1285.59997558594
1655.39674198926	1283.19995117188
1656.00894673814	1274
1656.62107112688	1264.59997558594
1657.23311516291	1263
1657.84507885365	1263
1658.45696220652	1253.19995117188
1659.06876522895	1248.59997558594
1659.68048792835	1254.59997558594
1660.29213031217	1253.19995117188
1660.90369238779	1243.80004882813
1661.51517416267	1255
1662.12657564421	1244
1662.73789683984	1237.40002441406
1663.34913775697	1244.80004882813
1663.96029840303	1241.59997558594
1664.57137878544	1229.59997558594
1665.18237891161	1220.59997558594
1665.79329878897	1234
1666.40413842493	1224.59997558594
1667.01489782691	1229.19995117188
1667.62557700233	1229
1668.2361759586	1229
1668.84669470315	1220.19995117188
1669.4571332434	1211.59997558594
1670.06749158675	1209.80004882813
1670.67776974062	1217.59997558594
1671.28796771243	1215.19995117188
1671.8980855096	1212.19995117188
1672.50812313954	1212
1673.11808060967	1218
1673.72795792739	1218.19995117188
1674.33775510013	1230.19995117188
1674.9474721353	1228.19995117188
1675.55710904031	1226.80004882813
1676.16666582257	1224.40002441406
1676.7761424895	1218
1677.38553904851	1234
1677.99485550702	1225.19995117188
1678.60409187243	1219
1679.21324815215	1218.19995117188
1679.8223243536	1205
1680.43132048419	1209.59997558594
1681.04023655132	1208
1681.64907256241	1208
1682.25782852487	1201.80004882813
1682.86650444611	1201.59997558594
1683.47510033353	1210.19995117188
1684.08361619455	1200.80004882813
1684.69205203657	1195.40002441406
1685.300407867	1206.80004882813
1685.90868369325	1208.40002441406
1686.51687952272	1207.59997558594
1687.12499536283	1204.40002441406
1687.73303122098	1203.19995117188
1688.34098710457	1203.80004882813
1688.94886302101	1207.19995117188
1689.55665897772	1203.40002441406
1690.16437498208	1207.40002441406
1690.77201104152	1204.59997558594
1691.37956716342	1204.80004882813
1691.9870433552	1209.40002441406
1692.59443962426	1214.40002441406
1693.20175597801	1228
1693.80899242384	1210.59997558594
1694.41614896916	1212.59997558594
1695.02322562138	1198.19995117188
1695.63022238789	1203.80004882813
1696.23713927609	1208.80004882813
1696.8439762934	1202.59997558594
1697.4507334472	1205.80004882813
1698.05741074491	1213.80004882813
1698.66400819391	1205.59997558594
1699.27052580161	1205.19995117188
1699.87696357542	1202.59997558594
1700.48332152272	1202.19995117188
1701.08959965092	1189.19995117188
1701.69579796742	1183.80004882813
1702.30191647962	1175
1702.90795519491	1181
1703.51391412069	1171
1704.11979326437	1170
1704.72559263332	1174.59997558594
1705.33131223496	1178.80004882813
1705.93695207668	1182.59997558594
1706.54251216588	1174.19995117188
1707.14799250994	1168.80004882813
1707.75339311628	1167.19995117188
1708.35871399227	1171.59997558594
1708.96395514532	1165.19995117188
1709.56911658282	1167
