634.948122577771	1344.40002441406
635.690341530823	1351.40002441406
636.43246851086	1354.59997558594
637.174503525845	1353.59997558594
637.916446583745	1356.80004882813
638.658297692538	1357.59997558594
639.400056860179	1342.80004882813
640.141724094637	1344.80004882813
640.883299403885	1339.59997558594
641.62478279588	1342.80004882813
642.366174278594	1344.59997558594
643.107473859989	1348
643.848681548029	1357.19995117188
644.589797350679	1354.59997558594
645.330821275901	1363
646.071753331665	1355
646.812593525922	1351.19995117188
647.553341866646	1348
648.293998361798	1346.19995117188
649.03456301933	1350.59997558594
649.775035847216	1352
650.515416853409	1345.80004882813
651.255706045874	1341.19995117188
651.995903432568	1347.19995117188
652.736009021453	1351.80004882813
653.476022820486	1354
654.215944837629	1353.80004882813
654.955775080842	1351.19995117188
655.695513558081	1356.19995117188
656.435160277301	1371
657.174715246465	1366
657.914178473527	1363.80004882813
658.653549966449	1366.80004882813
659.392829733176	1364
660.132017781678	1361.19995117188
660.871114119901	1348.40002441406
661.610118755803	1358.80004882813
662.349031697343	1359.80004882813
663.087852952468	1377.59997558594
663.826582529139	1360.59997558594
664.565220435305	1353
665.30376667892	1359.80004882813
666.04222126794	1365.59997558594
666.780584210316	1374.59997558594
667.518855514	1364.40002441406
668.25703518694	1372
668.995123237096	1375.19995117188
669.733119672413	1366.40002441406
670.471024500842	1386.19995117188
671.208837730333	1383.59997558594
671.946559368839	1385.19995117188
672.684189424308	1364.80004882813
673.421727904689	1365.19995117188
674.159174817929	1376.59997558594
674.896530171977	1358
675.633793974786	1369.80004882813
676.370966234295	1371.59997558594
677.108046958461	1374.59997558594
677.845036155219	1370.59997558594
678.581933832528	1376.59997558594
679.318739998323	1376.19995117188
680.055454660558	1387.40002441406
680.792077827172	1389.40002441406
681.528609506116	1391
682.265049705331	1390.59997558594
683.001398432759	1380
683.737655696349	1374.59997558594
684.47382150404	1378.40002441406
685.20989586378	1374.80004882813
685.945878783503	1375
686.68177027116	1381.59997558594
687.417570334688	1364
688.153278982032	1369
688.888896221129	1366.59997558594
689.624422059921	1366.40002441406
690.359856506349	1384.80004882813
691.095199568354	1376.59997558594
691.830451253874	1376
692.565611570844	1379.80004882813
693.300680527212	1383
694.03565813091	1388.59997558594
694.770544389877	1380.80004882813
695.505339312053	1375.59997558594
696.240042905372	1371.80004882813
696.974655177772	1388.19995117188
697.70917613719	1384.80004882813
698.443605791561	1374.59997558594
699.177944148826	1393.80004882813
699.912191216909	1399.40002441406
700.646347003755	1402.40002441406
701.380411517295	1397.80004882813
702.114384765465	1394.80004882813
702.848266756195	1398.59997558594
703.582057497421	1398.19995117188
704.315756997074	1396.40002441406
705.049365263089	1397.40002441406
705.782882303399	1401
706.516308125936	1393.19995117188
707.249642738626	1389.59997558594
707.982886149403	1396.80004882813
708.716038366204	1396
709.449099396949	1394.40002441406
710.182069249577	1382.59997558594
710.914947932009	1377.40002441406
711.647735452181	1370
712.380431818022	1380.80004882813
713.113037037454	1372
713.845551118411	1380.59997558594
714.577974068818	1376.59997558594
715.310305896604	1385
716.042546609694	1395.59997558594
716.774696216013	1390.19995117188
717.506754723493	1396.19995117188
718.238722140053	1395.80004882813
718.970598473624	1394.40002441406
719.702383732127	1389.59997558594
720.43407792349	1382.80004882813
721.165681055634	1384.40002441406
721.897193136486	1399.59997558594
722.628614173966	1403.59997558594
723.359944175997	1391.19995117188
724.091183150505	1407.80004882813
724.822331105412	1396.80004882813
725.553388048638	1396
726.284353988106	1384
727.015228931734	1387.59997558594
727.746012887449	1391
728.476705863162	1410.40002441406
729.207307866803	1412.19995117188
729.937818906289	1412
730.668238989535	1412.80004882813
731.398568124459	1406
732.128806318986	1395.59997558594
732.858953581034	1387.80004882813
733.589009918514	1392.19995117188
734.318975339348	1406.40002441406
735.048849851452	1377.40002441406
735.778633462744	1384
736.508326181137	1386.40002441406
737.237928014549	1393
737.967438970897	1372.80004882813
738.696859058095	1377.59997558594
739.426188284054	1367.19995117188
740.155426656692	1378.59997558594
740.884574183922	1385
741.613630873659	1370.19995117188
742.342596733815	1379.59997558594
743.071471772302	1375.80004882813
743.800255997034	1391.19995117188
744.528949415921	1395.80004882813
745.257552036877	1392
745.986063867811	1386.19995117188
746.714484916638	1401.40002441406
747.442815191261	1401.40002441406
748.171054699597	1400.19995117188
748.899203449554	1400.40002441406
749.627261449039	1392.40002441406
750.355228705966	1393.59997558594
751.083105228239	1394.40002441406
751.810891023765	1396.40002441406
752.538586100459	1412
753.266190466218	1413.40002441406
753.99370412896	1411.80004882813
754.721127096582	1415.59997558594
755.448459377	1407.40002441406
756.175700978114	1414.59997558594
756.902851907828	1409
757.629912174055	1402.19995117188
758.356881784688	1394.40002441406
759.083760747639	1400.40002441406
759.810549070817	1389.80004882813
760.537246762113	1398.40002441406
761.263853829442	1399.40002441406
761.990370280698	1400.40002441406
762.716796123791	1403
763.443131366618	1404.59997558594
764.169376017082	1413.40002441406
764.895530083085	1413.40002441406
765.621593572527	1416.80004882813
766.347566493312	1424.40002441406
767.073448853336	1429.19995117188
767.799240660502	1422.80004882813
768.524941922707	1425.80004882813
769.250552647854	1430.40002441406
769.976072843836	1423.40002441406
770.701502518551	1452.80004882813
771.426841679905	1454
772.152090335793	1449.19995117188
772.877248494107	1465.40002441406
773.602316162747	1471.19995117188
774.327293349609	1474.40002441406
775.052180062592	1486.40002441406
775.776976309589	1488
776.501682098496	1474
777.226297437206	1456.40002441406
777.950822333616	1454.40002441406
778.675256795621	1444.40002441406
779.399600831111	1435.19995117188
780.123854447983	1452.19995117188
780.84801765413	1442.40002441406
781.572090457441	1434.80004882813
782.296072865811	1422.59997558594
783.019964887131	1417.40002441406
783.743766529297	1426.19995117188
784.467477800194	1408.19995117188
785.191098707719	1407.80004882813
785.914629259756	1412.59997558594
786.638069464194	1412.80004882813
787.361419328932	1420
788.084678861852	1406.59997558594
788.807848070845	1400.59997558594
789.530926963798	1403.19995117188
790.253915548602	1403.59997558594
790.976813833144	1401.80004882813
791.699621825307	1402
792.422339532986	1407.40002441406
793.144966964061	1395
793.86750412642	1410.40002441406
794.589951027946	1402
795.312307676536	1414
796.03457408006	1408.59997558594
796.756750246417	1409.40002441406
797.478836183477	1415
798.200831899137	1407.80004882813
798.92273740127	1398.59997558594
799.644552697769	1397.19995117188
800.36627779651	1393.19995117188
801.087912705374	1410.40002441406
801.809457432251	1420.80004882813
802.530911985017	1412.19995117188
803.252276371558	1410
803.973550599748	1421
804.694734677472	1416.19995117188
805.415828612611	1422.40002441406
806.136832413045	1417.59997558594
806.857746086646	1419.59997558594
807.578569641305	1415.80004882813
808.299303084892	1429.40002441406
809.019946425289	1428.80004882813
809.740499670372	1434.59997558594
810.460962828022	1438.19995117188
811.181335906114	1434.40002441406
811.901618912524	1431.40002441406
812.621811855131	1428.59997558594
813.341914741809	1426.80004882813
814.061927580433	1414.19995117188
814.781850378881	1412
815.501683145025	1415.40002441406
816.221425886743	1417.59997558594
816.941078611903	1419.80004882813
817.660641328387	1413
818.380114044065	1409
819.099496766808	1404.80004882813
819.818789504492	1398.80004882813
820.53799226499	1390.80004882813
821.257105056168	1380.19995117188
821.976127885904	1399.40002441406
822.695060762064	1399.80004882813
823.413903692525	1419.19995117188
824.132656685151	1429.59997558594
824.851319747817	1422.80004882813
825.569892888388	1414.40002441406
826.288376114739	1426.80004882813
827.006769434737	1425.80004882813
827.725072856249	1424.59997558594
828.443286387142	1420
829.161410035285	1420.59997558594
829.87944380855	1413
830.597387714798	1418
831.315241761898	1428.40002441406
832.033005957715	1433
832.750680310119	1430.80004882813
833.468264826969	1434.19995117188
834.18575951614	1424
834.903164385486	1448.80004882813
835.620479442878	1429.59997558594
836.337704696181	1413.59997558594
837.054840153255	1409.80004882813
837.771885821962	1402.80004882813
838.488841710172	1414.59997558594
839.20570782574	1407.59997558594
839.922484176531	1418
840.639170770409	1410
841.355767615231	1411.40002441406
842.072274718864	1428.19995117188
842.788692089164	1405.59997558594
843.505019733993	1401.19995117188
844.221257661209	1410.19995117188
844.937405878676	1412.40002441406
845.65346439425	1411
846.369433215789	1414.19995117188
847.085312351156	1414
847.801101808205	1412.80004882813
848.516801594793	1388.19995117188
849.232411718781	1387.59997558594
849.947932188021	1390.59997558594
850.663363010376	1387
851.378704193698	1392
852.093955745842	1412.40002441406
852.809117674669	1423.80004882813
853.524189988028	1416.40002441406
854.239172693778	1422.80004882813
854.954065799768	1420.80004882813
855.668869313857	1408.59997558594
856.383583243899	1407.19995117188
857.098207597743	1388
857.812742383246	1391.80004882813
858.527187608255	1395.59997558594
859.241543280628	1392.19995117188
859.955809408218	1392.40002441406
860.669985998868	1411
861.384073060437	1405.40002441406
862.098070600772	1410.59997558594
862.811978627724	1424.19995117188
863.52579714914	1407.80004882813
864.239526172873	1420.40002441406
864.953165706776	1415
865.666715758687	1418
866.380176336464	1412.59997558594
867.093547447951	1404.59997558594
867.806829100996	1393.40002441406
868.520021303444	1394
869.233124063149	1397.40002441406
869.94613738795	1386.19995117188
870.659061285693	1387
871.37189576423	1390.80004882813
872.084640831403	1398.40002441406
872.797296495057	1414.19995117188
873.509862763039	1417.59997558594
874.22233964319	1410.80004882813
874.934727143353	1397
875.647025271374	1409.59997558594
876.359234035097	1410.19995117188
877.071353442361	1401.40002441406
877.783383501015	1388.40002441406
878.495324218895	1392.59997558594
879.207175603844	1417.40002441406
879.918937663705	1394.40002441406
880.630610406318	1412.80004882813
881.342193839524	1411
882.053687971161	1418.40002441406
882.765092809069	1398.40002441406
883.476408361091	1406.40002441406
884.187634635066	1412.19995117188
884.898771638828	1407.80004882813
885.609819380221	1408.59997558594
886.320777867076	1402
887.031647107236	1394.80004882813
887.742427108536	1395.59997558594
888.453117878816	1401.59997558594
889.16371942591	1400.40002441406
889.874231757652	1411.59997558594
890.584654881883	1385.19995117188
891.294988806434	1398.19995117188
892.005233539141	1398
892.715389087837	1397.19995117188
893.42545546036	1414.80004882813
894.135432664543	1412
894.845320708216	1415.40002441406
895.555119599216	1430.40002441406
896.264829345375	1416.19995117188
896.974449954526	1418.80004882813
897.683981434496	1417.59997558594
898.393423793125	1426.19995117188
899.102777038235	1421
899.812041177664	1419
900.521216219239	1416.80004882813
901.230302170793	1415.59997558594
901.939299040155	1413.80004882813
902.64820683515	1423.19995117188
903.357025563612	1418.80004882813
904.065755233368	1415.80004882813
904.774395852247	1408.59997558594
905.482947428076	1417.59997558594
906.191409968682	1422.59997558594
906.899783481897	1409.40002441406
907.608067975538	1412.80004882813
908.316263457443	1412.19995117188
909.02436993543	1425.19995117188
909.732387417327	1420.59997558594
910.440315910959	1411
911.148155424154	1415.40002441406
911.855905964731	1424.19995117188
912.563567540521	1425
913.271140159339	1429.40002441406
913.978623829017	1415.59997558594
914.686018557374	1412.40002441406
915.393324352237	1401.59997558594
916.100541221421	1408.59997558594
916.807669172752	1400
917.514708214054	1406.80004882813
918.221658353142	1395.80004882813
918.928519597843	1381
919.635291955976	1387.40002441406
920.341975435358	1377.19995117188
921.048570043813	1393.59997558594
921.75507578916	1416.19995117188
922.461492679212	1428.59997558594
923.167820721795	1426
923.874059924726	1429.19995117188
924.58021029582	1424.59997558594
925.286271842893	1440
925.992244573769	1429.80004882813
926.698128496262	1424
927.403923618184	1420.40002441406
928.109629947355	1413.59997558594
928.815247491593	1420.59997558594
929.520776258708	1420.59997558594
930.226216256519	1416.19995117188
930.931567492841	1417
931.636829975482	1413
932.342003712263	1412.40002441406
933.047088710995	1412.19995117188
933.752084979491	1419.80004882813
934.456992525564	1416.80004882813
935.161811357024	1407.40002441406
935.866541481688	1405.40002441406
936.571182907363	1391
937.275735641861	1389
937.980199692995	1383.19995117188
938.684575068572	1382
939.388861776411	1387.59997558594
940.093059824311	1387
940.797169220085	1382.40002441406
941.501189971544	1387
942.205122086495	1389.40002441406
942.908965572751	1383.59997558594
943.612720438111	1385
944.316386690391	1376.59997558594
945.019964337391	1390.40002441406
945.723453386924	1392.80004882813
946.426853846795	1395
947.130165724808	1408.19995117188
947.83338902877	1402
948.536523766488	1395.59997558594
949.239569945764	1387.40002441406
949.942527574402	1408
950.64539666021	1400.59997558594
951.348177210993	1385.59997558594
952.050869234548	1385.40002441406
952.753472738683	1363.80004882813
953.455987731199	1382.59997558594
954.158414219898	1378.19995117188
954.860752212587	1382.19995117188
955.563001717061	1382.40002441406
956.265162741124	1377
956.967235292576	1376.19995117188
957.669219379224	1380.59997558594
958.371115008857	1373.80004882813
959.072922189283	1369
959.774640928301	1375.59997558594
960.476271233708	1365.40002441406
961.177813113301	1370.40002441406
961.879266574882	1372.40002441406
962.580631626248	1372.80004882813
963.281908275194	1382
963.98309652952	1387.40002441406
964.684196397022	1395
965.3852078855	1389.19995117188
966.086131002745	1387.19995117188
966.786965756555	1390.40002441406
967.487712154726	1401.80004882813
968.188370205055	1387
968.888939915331	1386.80004882813
969.589421293352	1374.19995117188
970.289814346909	1392.59997558594
970.990119083801	1399.80004882813
971.690335511819	1420.19995117188
972.39046363875	1420.19995117188
973.090503472398	1400.59997558594
973.790455020545	1399.19995117188
974.490318290987	1401.59997558594
975.190093291516	1387.19995117188
975.889780029923	1386
976.589378513998	1377.19995117188
977.288888751527	1384.40002441406
977.988310750308	1386
978.687644518122	1381
979.386890062767	1386
980.086047392025	1382
980.785116513689	1390
981.484097435542	1382.40002441406
982.182990165377	1385.19995117188
982.88179471098	1384
983.580511080137	1390.40002441406
984.279139280632	1382.40002441406
984.977679320253	1383.59997558594
985.67613120679	1378.19995117188
986.374494948027	1388.80004882813
987.072770551745	1376
987.770958025731	1389.59997558594
988.469057377772	1383.80004882813
989.167068615649	1389.19995117188
989.864991747145	1391.40002441406
990.562826780047	1374.80004882813
991.260573722134	1383
991.958232581195	1383.80004882813
992.655803365003	1388.59997558594
993.353286081346	1389.59997558594
994.050680738006	1391.40002441406
994.74798734276	1394.59997558594
995.44520590339	1391.40002441406
996.142336427681	1399.59997558594
996.839378923407	1394.40002441406
997.536333398348	1389.80004882813
998.233199860289	1384
998.929978317004	1372.19995117188
999.626668776274	1382.19995117188
1000.32327124587	1374.80004882813
1001.01978573359	1367.19995117188
1001.71621224718	1353.40002441406
1002.41255079445	1363.40002441406
1003.10880138315	1367.80004882813
1003.80496402107	1368.40002441406
1004.50103871599	1374.19995117188
1005.19702547567	1398.80004882813
1005.8929243079	1395.19995117188
1006.58873522045	1409.80004882813
1007.2844582211	1406
1007.98009331761	1401
1008.67564051776	1396.59997558594
1009.37109982933	1399.40002441406
1010.06647126009	1402
1010.7617548178	1392.19995117188
1011.45695051026	1406
1012.15205834522	1395.80004882813
1012.84707833045	1391
1013.54201047373	1397.19995117188
1014.23685478284	1402
1014.93161126553	1399.59997558594
1015.62627992959	1407.59997558594
1016.32086078277	1395
1017.01535383285	1403.19995117188
1017.70975908761	1392.59997558594
1018.40407655479	1388.19995117188
1019.09830624219	1392.19995117188
1019.79244815755	1389.59997558594
1020.48650230866	1397
1021.18046870328	1402.59997558594
1021.87434734917	1411.40002441406
1022.56813825411	1422.40002441406
1023.26184142584	1428.40002441406
1023.95545687216	1421.40002441406
1024.64898460082	1410.40002441406
1025.34242461957	1383.19995117188
1026.0357769362	1388.80004882813
1026.72904155846	1401.80004882813
1027.42221849412	1393
1028.11530775094	1397
1028.80830933668	1396.59997558594
1029.50122325911	1398.80004882813
1030.19404952599	1393.40002441406
1030.88678814508	1388.59997558594
1031.57943912414	1380.19995117188
1032.27200247093	1371.59997558594
1032.96447819323	1370.40002441406
1033.65686629878	1377
1034.34916679534	1383.19995117188
1035.04137969068	1376
1035.73350499256	1383.40002441406
1036.42554270874	1372
1037.11749284697	1374.59997558594
1037.80935541501	1368
1038.50113042062	1362.40002441406
1039.19281787156	1372.40002441406
1039.88441777559	1371.40002441406
1040.57593014046	1374.19995117188
1041.26735497393	1389
1041.95869228376	1401.19995117188
1042.6499420777	1396.59997558594
1043.3411043635	1387.40002441406
1044.03217914893	1388.80004882813
1044.72316644174	1396.19995117188
1045.41406624968	1389.59997558594
1046.1048785805	1406.19995117188
1046.79560344197	1388.80004882813
1047.48624084182	1377.40002441406
1048.17679078783	1378.59997558594
1048.86725328774	1373.40002441406
1049.55762834929	1381
1050.24791598025	1365.40002441406
1050.93811618837	1370.80004882813
1051.62822898139	1365.59997558594
1052.31825436707	1362
1053.00819235315	1373.19995117188
1053.6980429474	1374.40002441406
1054.38780615755	1377.80004882813
1055.07748199136	1374.40002441406
1055.76707045658	1367.19995117188
1056.45657156095	1375.19995117188
1057.14598531222	1362.19995117188
1057.83531171814	1362.80004882813
1058.52455078646	1370
1059.21370252494	1377.59997558594
1059.90276694129	1370.80004882813
1060.5917440433	1381.80004882813
1061.28063383868	1377.19995117188
1061.9694363352	1390.40002441406
1062.65815154059	1391.19995117188
1063.34677946261	1393
1064.03532010899	1389.59997558594
1064.72377348748	1372.40002441406
1065.41213960583	1365.19995117188
1066.10041847177	1364.59997558594
1066.78861009306	1371.80004882813
1067.47671447743	1369
1068.16473163263	1373.59997558594
1068.85266156639	1376.40002441406
1069.54050428647	1376.40002441406
1070.2282598006	1379.59997558594
1070.91592811652	1407.59997558594
1071.60350924198	1375.59997558594
1072.29100318471	1366.80004882813
1072.97840995245	1378
1073.66572955295	1368
1074.35296199394	1378.19995117188
1075.04010728316	1387.59997558594
1075.72716542836	1379.59997558594
1076.41413643726	1376.80004882813
1077.10102031761	1369.59997558594
1077.78781707715	1365.19995117188
1078.4745267236	1363
1079.16114926471	1362.40002441406
1079.84768470822	1358.40002441406
1080.53413306185	1359
1081.22049433336	1371.19995117188
1081.90676853046	1373.40002441406
1082.5929556609	1372.19995117188
1083.27905573241	1394
1083.96506875272	1389.80004882813
1084.65099472957	1390.40002441406
1085.3368336707	1385.40002441406
1086.02258558383	1378.19995117188
1086.70825047669	1368.40002441406
1087.39382835703	1384
1088.07931923257	1380.59997558594
1088.76472311104	1383.80004882813
1089.45004000018	1376.59997558594
1090.13526990771	1381
1090.82041284137	1369.19995117188
1091.50546880889	1363.40002441406
1092.19043781799	1370.59997558594
1092.87531987642	1365.40002441406
1093.56011499188	1354.59997558594
1094.24482317212	1350
1094.92944442486	1344.19995117188
1095.61397875783	1349.59997558594
1096.29842617876	1349.59997558594
1096.98278669537	1346
1097.6670603154	1356.80004882813
1098.35124704656	1360.59997558594
1099.03534689659	1352.80004882813
1099.71935987322	1352.40002441406
1100.40328598416	1365
1101.08712523713	1363
1101.77087763988	1368.80004882813
1102.45454320012	1365.80004882813
1103.13812192557	1365.59997558594
1103.82161382396	1361.80004882813
1104.50501890301	1376.80004882813
1105.18833717045	1373.19995117188
1105.87156863399	1385.59997558594
1106.55471330137	1393
1107.2377711803	1387.59997558594
1107.9207422785	1381
1108.60362660369	1392.80004882813
1109.2864241636	1391.59997558594
1109.96913496594	1382.59997558594
1110.65175901844	1370.59997558594
1111.33429632882	1355.40002441406
1112.01674690479	1357
1112.69911075408	1375.40002441406
1113.38138788439	1366.80004882813
1114.06357830346	1365
1114.745682019	1366.19995117188
1115.42769903872	1371.40002441406
1116.10962937035	1372
1116.7914730216	1378.40002441406
1117.47323000018	1384.80004882813
1118.15490031382	1384.80004882813
1118.83648397022	1375.80004882813
1119.51798097712	1376
1120.1993913422	1370.40002441406
1120.88071507321	1356.40002441406
1121.56195217784	1354.80004882813
1122.24310266381	1351.19995117188
1122.92416653884	1349.40002441406
1123.60514381064	1360.19995117188
1124.28603448692	1370.59997558594
1124.9668385754	1385.80004882813
1125.64755608378	1374
1126.32818701978	1388.59997558594
1127.00873139111	1386.80004882813
1127.68918920548	1381.19995117188
1128.3695604706	1377
1129.04984519419	1378.59997558594
1129.73004338394	1363.59997558594
1130.41015504758	1356.80004882813
1131.09018019281	1363.19995117188
1131.77011882734	1362.59997558594
1132.44997095888	1370.80004882813
1133.12973659514	1378.59997558594
1133.80941574381	1369.80004882813
1134.48900841263	1372.40002441406
1135.16851460927	1368.40002441406
1135.84793434147	1377.40002441406
1136.52726761692	1364.59997558594
1137.20651444333	1360.19995117188
1137.8856748284	1361.59997558594
1138.56474877984	1359.40002441406
1139.24373630536	1369
1139.92263741265	1354.19995117188
1140.60145210943	1374.19995117188
1141.28018040339	1363.80004882813
1141.95882230225	1366.59997558594
1142.6373778137	1368.40002441406
1143.31584694545	1352.19995117188
1143.99422970519	1365.19995117188
1144.67252610064	1364
1145.35073613949	1372.19995117188
1146.02885982944	1349
1146.7068971782	1353.19995117188
1147.38484819347	1341
1148.06271288294	1345.80004882813
1148.74049125432	1360
1149.41818331531	1374.19995117188
1150.0957890736	1365
1150.77330853689	1371.40002441406
1151.45074171289	1365
1152.12808860928	1355.40002441406
1152.80534923378	1355.40002441406
1153.48252359407	1350.59997558594
1154.15961169786	1349.59997558594
1154.83661355283	1342.40002441406
1155.51352916669	1350.19995117188
1156.19035854713	1346.80004882813
1156.86710170185	1357.80004882813
1157.54375863855	1337.80004882813
1158.22032936491	1345.40002441406
1158.89681388863	1342
1159.57321221741	1341.59997558594
1160.24952435894	1353.59997558594
1160.92575032092	1361.19995117188
1161.60189011103	1348
1162.27794373697	1355.40002441406
1162.95391120644	1353
1163.62979252712	1362.80004882813
1164.3055877067	1361
1164.98129675288	1345.59997558594
1165.65691967336	1353
1166.33245647581	1360.40002441406
1167.00790716792	1376.40002441406
1167.6832717574	1374.40002441406
1168.35855025193	1371.40002441406
1169.0337426592	1359.80004882813
1169.70884898689	1357
1170.3838692427	1347.80004882813
1171.05880343431	1348.19995117188
1171.73365156941	1357.40002441406
1172.40841365569	1353.80004882813
1173.08308970083	1359.80004882813
1173.75767971253	1362.80004882813
1174.43218369847	1357
1175.10660166633	1354
1175.7809336238	1350.40002441406
1176.45517957857	1336.59997558594
1177.12933953832	1353.80004882813
1177.80341351073	1338.80004882813
1178.47740150349	1351.40002441406
1179.15130352429	1366.59997558594
1179.8251195808	1372
1180.49884968071	1381
1181.1724938317	1372.59997558594
1181.84605204145	1376.19995117188
1182.51952431766	1365
1183.19291066799	1372.40002441406
1183.86621110013	1378.19995117188
1184.53942562176	1386.19995117188
1185.21255424057	1395.80004882813
1185.88559696422	1388.19995117188
1186.55855380041	1383.80004882813
1187.2314247568	1378.59997558594
1187.90420984109	1373.59997558594
1188.57690906095	1370.59997558594
1189.24952242405	1371
1189.92204993808	1372
1190.59449161071	1377.19995117188
1191.26684744962	1381.80004882813
1191.93911746249	1375.40002441406
1192.61130165699	1372.59997558594
1193.28340004081	1363.40002441406
1193.95541262161	1367
1194.62733940707	1364.40002441406
1195.29918040487	1368.59997558594
1195.97093562269	1380.80004882813
1196.64260506819	1371.40002441406
1197.31418874905	1371.40002441406
1197.98568667295	1367.40002441406
1198.65709884755	1366.80004882813
1199.32842528053	1358.80004882813
1199.99966597957	1355
1200.67082095234	1346
1201.3418902065	1350
1202.01287374974	1342
1202.68377158971	1351.80004882813
1203.3545837341	1345.19995117188
1204.02531019057	1347
1204.6959509668	1346.19995117188
1205.36650607045	1349
1206.03697550919	1354
1206.70735929069	1351
1207.37765742263	1354.40002441406
1208.04786991266	1364.40002441406
1208.71799676846	1362.19995117188
1209.38803799769	1359.80004882813
1210.05799360803	1358.59997558594
1210.72786360714	1365.40002441406
1211.39764800268	1360.19995117188
1212.06734680233	1337.19995117188
1212.73696001375	1339
1213.4064876446	1339.19995117188
1214.07592970255	1348
1214.74528619526	1350
1215.4145571304	1337.19995117188
1216.08374251564	1341.80004882813
1216.75284235863	1340.40002441406
1217.42185666704	1337.40002441406
1218.09078544854	1334
1218.75962871078	1330.59997558594
1219.42838646143	1320.59997558594
1220.09705870816	1334
1220.76564545861	1342.80004882813
1221.43414672046	1347.40002441406
1222.10256250136	1353.40002441406
1222.77089280898	1341
1223.43913765098	1343
1224.107297035	1345
1224.77537096873	1342
1225.44335945981	1351.40002441406
1226.1112625159	1360
1226.77908014467	1357.59997558594
1227.44681235376	1354
1228.11445915085	1354.80004882813
1228.78202054357	1349.80004882813
1229.44949653961	1356.40002441406
1230.11688714659	1342.80004882813
1230.7841923722	1339.80004882813
1231.45141222407	1346
1232.11854670988	1340
1232.78559583726	1331
1233.45255961388	1326.80004882813
1234.1194380474	1329.40002441406
1234.78623114546	1332.19995117188
1235.45293891572	1349
1236.11956136583	1340.80004882813
1236.78609850345	1343.40002441406
1237.45255033623	1335.40002441406
1238.11891687182	1347.40002441406
1238.78519811788	1351
1239.45139408205	1342
1240.11750477198	1345.80004882813
1240.78353019534	1338.59997558594
1241.44947035976	1341.59997558594
1242.11532527291	1322.19995117188
1242.78109494242	1320.59997558594
1243.44677937595	1317.80004882813
1244.11237858115	1324.19995117188
1244.77789256567	1312
1245.44332133715	1330.80004882813
1246.10866490325	1328.80004882813
1246.7739232716	1339.59997558594
1247.43909644987	1332.40002441406
1248.10418444569	1338.80004882813
1248.76918726671	1347.19995117188
1249.43410492059	1349.59997558594
1250.09893741496	1333.80004882813
1250.76368475747	1324.19995117188
1251.42834695576	1336.40002441406
1252.09292401749	1338.40002441406
1252.75741595029	1341.19995117188
1253.42182276182	1346.80004882813
1254.08614445971	1349.40002441406
1254.75038105161	1349.19995117188
1255.41453254515	1354.19995117188
1256.07859894799	1340.40002441406
1256.74258026777	1329
1257.40647651213	1316.19995117188
1258.0702876887	1322.19995117188
1258.73401380514	1316.40002441406
1259.39765486908	1326.80004882813
1260.06121088817	1339.19995117188
1260.72468187004	1345.40002441406
1261.38806782233	1332.59997558594
1262.05136875269	1332.80004882813
1262.71458466875	1340.19995117188
1263.37771557815	1339.59997558594
1264.04076148854	1329.40002441406
1264.70372240753	1332
1265.3665983428	1333.59997558594
1266.02938930195	1324.19995117188
1266.69209529263	1327.19995117188
1267.35471632249	1334.59997558594
1268.01725239914	1342.59997558594
1268.67970353024	1341.19995117188
1269.34206972342	1327.40002441406
1270.00435098631	1336.19995117188
1270.66654732655	1326.59997558594
1271.32865875177	1323.59997558594
1271.9906852696	1328.19995117188
1272.65262688768	1333.59997558594
1273.31448361365	1340.19995117188
1273.97625545514	1344
1274.63794241978	1344.80004882813
1275.2995445152	1346.19995117188
1275.96106174903	1348.59997558594
1276.62249412892	1355.59997558594
1277.28384166248	1344
1277.94510435735	1359.40002441406
1278.60628222116	1342.80004882813
1279.26737526155	1353.40002441406
1279.92838348613	1331
1280.58930690255	1327.80004882813
1281.25014551842	1337.19995117188
1281.91089934139	1335
1282.57156837907	1333
1283.2321526391	1337.40002441406
1283.89265212911	1327.80004882813
1284.55306685671	1326.40002441406
1285.21339682955	1308
1285.87364205525	1311.59997558594
1286.53380254142	1307.59997558594
1287.19387829571	1304.19995117188
1287.85386932573	1300.19995117188
1288.51377563911	1310.80004882813
1289.17359724348	1303.40002441406
1289.83333414646	1309
1290.49298635567	1313.59997558594
1291.15255387874	1320.59997558594
1291.8120367233	1312.59997558594
1292.47143489696	1307.59997558594
1293.13074840736	1307.80004882813
1293.7899772621	1314
1294.44912146882	1323.40002441406
1295.10818103513	1312.19995117188
1295.76715596866	1313.80004882813
1296.42604627704	1314.59997558594
1297.08485196787	1316.80004882813
1297.74357304878	1314.80004882813
1298.4022095274	1314.40002441406
1299.06076141134	1337.80004882813
1299.71922870821	1348.40002441406
1300.37761142565	1338.19995117188
1301.03590957126	1333.40002441406
1301.69412315268	1335.59997558594
1302.3522521775	1326
1303.01029665336	1331.40002441406
1303.66825658787	1321
1304.32613198865	1326.19995117188
1304.98392286332	1335
1305.64162921948	1342.59997558594
1306.29925106476	1343.19995117188
1306.95678840677	1340.59997558594
1307.61424125312	1351.19995117188
1308.27160961145	1332.59997558594
1308.92889348934	1340
1309.58609289443	1328.80004882813
1310.24320783432	1314
1310.90023831664	1322.59997558594
1311.55718434898	1312
1312.21404593897	1315.19995117188
1312.87082309421	1310
1313.52751582233	1327.59997558594
1314.18412413092	1333.59997558594
1314.84064802761	1331.59997558594
1315.49708752	1331
1316.1534426157	1339.19995117188
1316.80971332233	1344.40002441406
1317.46589964749	1335.80004882813
1318.1220015988	1342
1318.77801918386	1342.40002441406
1319.43395241028	1343.80004882813
1320.08980128567	1346.59997558594
1320.74556581764	1339.40002441406
1321.4012460138	1352.19995117188
1322.05684188176	1352
1322.71235342911	1340
1323.36778066347	1341.19995117188
1324.02312359245	1346.40002441406
1324.67838222365	1359.19995117188
1325.33355656468	1349.59997558594
1325.98864662314	1341.19995117188
1326.64365240663	1339.80004882813
1327.29857392277	1328.59997558594
1327.95341117915	1337
1328.60816418339	1338.59997558594
1329.26283294308	1331.80004882813
1329.91741746582	1335.40002441406
1330.57191775923	1325.59997558594
1331.2263338309	1318.40002441406
1331.88066568843	1319
1332.53491333943	1316
1333.1890767915	1311.59997558594
1333.84315605224	1313
1334.49715112925	1325.59997558594
1335.15106203013	1332.59997558594
1335.80488876249	1322.59997558594
1336.45863133391	1319.40002441406
1337.112289752	1309.59997558594
1337.76586402437	1318.59997558594
1338.4193541586	1317
1339.0727601623	1331.19995117188
1339.72608204306	1324.59997558594
1340.37931980849	1324.19995117188
1341.03247346617	1326.19995117188
1341.68554302372	1340.19995117188
1342.33852848871	1328
1342.99142986876	1338.19995117188
1343.64424717145	1353.19995117188
1344.29698040438	1351
1344.94962957515	1335
1345.60219469135	1339.19995117188
1346.25467576058	1348
1346.90707279042	1350.19995117188
1347.55938578848	1352.40002441406
1348.21161476235	1349.59997558594
1348.86375971962	1348.40002441406
1349.51582066787	1345.19995117188
1350.16779761472	1338
1350.81969056774	1345.40002441406
1351.47149953453	1361.19995117188
1352.12322452269	1359.40002441406
1352.77486553979	1351.19995117188
1353.42642259344	1359.19995117188
1354.07789569122	1348.59997558594
1354.72928484072	1351
1355.38059004953	1349.80004882813
1356.03181132525	1361
1356.68294867545	1373.80004882813
1357.33400210773	1361.40002441406
1357.98497162968	1365.19995117188
1358.63585724889	1357
1359.28665897294	1355.40002441406
1359.93737680942	1352.40002441406
1360.58801076591	1360.80004882813
1361.23856085001	1352
1361.88902706929	1375.80004882813
1362.53940943135	1365.80004882813
1363.18970794377	1373.80004882813
1363.83992261413	1378.40002441406
1364.49005345003	1375.19995117188
1365.14010045904	1383.80004882813
1365.79006364874	1395.80004882813
1366.43994302673	1386
1367.08973860058	1374.59997558594
1367.73945037788	1383.80004882813
1368.38907836621	1370
1369.03862257315	1374.40002441406
1369.68808300629	1359.80004882813
1370.3374596732	1357.40002441406
1370.98675258148	1354.19995117188
1371.63596173868	1353.19995117188
1372.28508715241	1359.59997558594
1372.93412883024	1343.80004882813
1373.58308677974	1338.59997558594
1374.2319610085	1332.80004882813
1374.8807515241	1318.59997558594
1375.52945833412	1319.80004882813
1376.17808144612	1324.19995117188
1376.82662086771	1314.59997558594
1377.47507660644	1323
1378.12344866989	1308.59997558594
1378.77173706565	1314.40002441406
1379.41994180129	1303.59997558594
1380.06806288439	1315
1380.71610032252	1318
1381.36405412326	1327.40002441406
1382.01192429419	1319.59997558594
1382.65971084287	1330.59997558594
1383.30741377688	1327.19995117188
1383.95503310381	1317.80004882813
1384.60256883121	1324
1385.25002096667	1314.59997558594
1385.89738951775	1313.40002441406
1386.54467449204	1310.19995117188
1387.19187589709	1306.19995117188
1387.8389937405	1301.59997558594
1388.48602802982	1292
1389.13297877262	1310.40002441406
1389.77984597649	1304.80004882813
1390.42662964899	1305.59997558594
1391.07332979768	1307.59997558594
1391.71994643015	1311.59997558594
1392.36647955395	1320.40002441406
1393.01292917667	1321
1393.65929530586	1309.40002441406
1394.3055779491	1308.80004882813
1394.95177711395	1316.19995117188
1395.59789280799	1305.40002441406
1396.24392503877	1306.80004882813
1396.88987381387	1305
1397.53573914086	1299.80004882813
1398.1815210273	1299
1398.82721948075	1287.59997558594
1399.47283450878	1302.19995117188
1400.11836611897	1303.59997558594
1400.76381431886	1297.40002441406
1401.40917911603	1286.19995117188
1402.05446051805	1277.59997558594
1402.69965853247	1270
1403.34477316686	1268.59997558594
1403.98980442878	1274.59997558594
1404.6347523258	1281.59997558594
1405.27961686548	1273.19995117188
1405.92439805538	1276.40002441406
1406.56909590306	1277.80004882813
1407.21371041608	1289.40002441406
1407.85824160202	1285.40002441406
1408.50268946841	1290.19995117188
1409.14705402284	1299
1409.79133527285	1295.59997558594
1410.43553322601	1295.40002441406
1411.07964788987	1296.19995117188
1411.723679272	1311
1412.36762737996	1312.40002441406
1413.01149222129	1305
1413.65527380357	1314.19995117188
1414.29897213435	1288.80004882813
1414.94258722118	1295
1415.58611907163	1294.19995117188
1416.22956769325	1297.19995117188
1416.87293309359	1292.19995117188
1417.51621528021	1289.59997558594
1418.15941426067	1288.40002441406
1418.80253004253	1284.40002441406
1419.44556263333	1278.80004882813
1420.08851204063	1302
1420.731378272	1299.40002441406
1421.37416133497	1308.59997558594
1422.0168612371	1304
1422.65947798596	1301.59997558594
1423.30201158908	1301.19995117188
1423.94446205403	1308
1424.58682938835	1295.80004882813
1425.2291135996	1299.19995117188
1425.87131469532	1296.40002441406
1426.51343268308	1301
1427.15546757042	1293.19995117188
1427.79741936488	1294.59997558594
1428.43928807403	1308.80004882813
1429.0810737054	1293.80004882813
1429.72277626656	1295
1430.36439576504	1284.59997558594
1431.00593220841	1288.80004882813
1431.64738560419	1279
1432.28875595995	1283.59997558594
1432.93004328324	1284.59997558594
1433.57124758159	1281.80004882813
1434.21236886255	1290.59997558594
1434.85340713368	1283.80004882813
1435.49436240252	1288.59997558594
1436.13523467661	1293.59997558594
1436.77602396349	1298.19995117188
1437.41673027073	1293
1438.05735360585	1289.80004882813
1438.69789397641	1282
1439.33835138994	1279
1439.978725854	1278.59997558594
1440.61901737612	1285.19995117188
1441.25922596385	1301.80004882813
1441.89935162473	1290.80004882813
1442.53939436631	1282.19995117188
1443.17935419612	1286.19995117188
1443.81923112171	1285.80004882813
1444.45902515061	1292
1445.09873629038	1287
1445.73836454854	1295.40002441406
1446.37790993265	1295.40002441406
1447.01737245024	1300.59997558594
1447.65675210885	1289.59997558594
1448.29604891602	1295.59997558594
1448.93526287928	1287.40002441406
1449.57439400618	1287.40002441406
1450.21344230426	1279.80004882813
1450.85240778105	1286.80004882813
1451.49129044409	1271.59997558594
1452.13009030092	1278.59997558594
1452.76880735907	1284.40002441406
1453.40744162608	1297.59997558594
1454.04599310949	1284
1454.68446181683	1289.59997558594
1455.32284775564	1295
1455.96115093345	1289.59997558594
1456.5993713578	1292
1457.23750903623	1303.59997558594
1457.87556397626	1288.80004882813
1458.51353618543	1267.40002441406
1459.15142567127	1266.59997558594
1459.78923244132	1270.59997558594
1460.42695650311	1271
1461.06459786417	1280.59997558594
1461.70215653203	1274.19995117188
1462.33963251423	1265.59997558594
1462.97702581829	1265.19995117188
1463.61433645175	1268
1464.25156442214	1266.80004882813
1464.88870973699	1272.59997558594
1465.52577240382	1275.19995117188
1466.16275243017	1277.59997558594
1466.79964982356	1269.59997558594
1467.43646459154	1268.59997558594
1468.07319674161	1272.59997558594
1468.70984628132	1278.59997558594
1469.34641321818	1284.80004882813
1469.98289755974	1273
1470.6192993135	1279.80004882813
1471.25561848701	1270.80004882813
1471.89185508779	1272.40002441406
1472.52800912336	1266.80004882813
1473.16408060124	1273.19995117188
1473.80006952897	1267.80004882813
1474.43597591407	1263
1475.07179976406	1266.19995117188
1475.70754108647	1262.19995117188
1476.34319988883	1261.40002441406
1476.97877617865	1278.40002441406
1477.61426996345	1282.40002441406
1478.24968125077	1281.19995117188
1478.88501004812	1286.19995117188
1479.52025636303	1297.59997558594
1480.15542020302	1289.19995117188
1480.79050157561	1289.80004882813
1481.42550048832	1299.40002441406
1482.06041694867	1305.59997558594
1482.69525096418	1305.19995117188
1483.33000254237	1300.80004882813
1483.96467169077	1289.19995117188
1484.59925841689	1286.40002441406
1485.23376272825	1281.40002441406
1485.86818463237	1282.19995117188
1486.50252413677	1278.19995117188
1487.13678124896	1270.80004882813
1487.77095597646	1273.59997558594
1488.4050483268	1276
1489.03905830749	1272.19995117188
1489.67298592604	1284.59997558594
1490.30683118996	1284.59997558594
1490.9405941068	1268
1491.57427468403	1275.59997558594
1492.2078729292	1278.40002441406
1492.84138884981	1293.80004882813
1493.47482245338	1300.40002441406
1494.10817374742	1277.19995117188
1494.74144273944	1294.80004882813
1495.37462943696	1296.59997558594
1496.0077338475	1290.80004882813
1496.64075597856	1296.59997558594
1497.27369583765	1286
1497.9065534323	1275.19995117188
1498.53932877001	1280.19995117188
1499.17202185829	1274.59997558594
1499.80463270465	1271.59997558594
1500.43716131661	1263.80004882813
1501.06960770167	1268.59997558594
1501.70197186735	1265.59997558594
1502.33425382116	1264.80004882813
1502.96645357059	1266.19995117188
1503.59857112317	1269.19995117188
1504.23060648641	1269
1504.8625596678	1281
1505.49443067486	1288.40002441406
1506.1262195151	1282.80004882813
1506.75792619602	1282
1507.38955072513	1282.59997558594
1508.02109310993	1290.80004882813
1508.65255335794	1288.59997558594
1509.28393147666	1275
1509.91522747359	1265.80004882813
1510.54644135624	1282.59997558594
1511.17757313212	1287
1511.80862280872	1300.59997558594
1512.43959039356	1298.19995117188
1513.07047589413	1305.40002441406
1513.70127931795	1293.40002441406
1514.33200067251	1291.40002441406
1514.96263996531	1279
1515.59319720386	1283
1516.22367239567	1270.40002441406
1516.85406554822	1262.80004882813
1517.48437666903	1267.80004882813
1518.1146057656	1272.80004882813
1518.74475284542	1286.59997558594
1519.374817916	1282
1520.00480098483	1265
1520.63470205942	1267.19995117188
1521.26452114726	1256.40002441406
1521.89425825586	1257.59997558594
1522.52391339271	1265.59997558594
1523.15348656531	1271
1523.78297778116	1265.80004882813
1524.41238704775	1262
1525.04171437259	1268
1525.67095976317	1258.40002441406
1526.30012322699	1251.19995117188
1526.92920477154	1252.59997558594
1527.55820440432	1252.19995117188
1528.18712213283	1252.80004882813
1528.81595796455	1243.59997558594
1529.44471190699	1242.19995117188
1530.07338396764	1233.59997558594
1530.70197415399	1229.40002441406
1531.33048247353	1247
1531.95890893377	1241.80004882813
1532.58725354219	1238.80004882813
1533.21551630629	1253
1533.84369723356	1255.40002441406
1534.47179633148	1260.80004882813
1535.09981360757	1272.40002441406
1535.72774906929	1276.40002441406
1536.35560272415	1280
1536.98337457963	1286.40002441406
1537.61106464323	1275.40002441406
1538.23867292243	1267
1538.86619942473	1265.19995117188
1539.49364415762	1269.59997558594
1540.12100712857	1271.19995117188
1540.74828834509	1270
1541.37548781466	1271
1542.00260554478	1260.59997558594
1542.62964154291	1256.59997558594
1543.25659581655	1260
1543.8834683732	1254.40002441406
1544.51025922034	1254.80004882813
1545.13696836544	1261.80004882813
1545.76359581601	1252.59997558594
1546.39014157952	1252.40002441406
1547.01660566345	1242.59997558594
1547.64298807531	1244.59997558594
1548.26928882255	1249.80004882813
1548.89550791269	1247.59997558594
1549.52164535318	1244.19995117188
1550.14770115153	1244.19995117188
1550.77367531521	1251.80004882813
1551.39956785171	1240.59997558594
1552.0253787685	1248.59997558594
1552.65110807307	1254.59997558594
1553.2767557729	1256.80004882813
1553.90232187548	1248
1554.52780638828	1250.40002441406
1555.15320931879	1240.40002441406
1555.77853067447	1247.59997558594
1556.40377046282	1245.40002441406
1557.02892869132	1246.19995117188
1557.65400536744	1243
1558.27900049866	1243.40002441406
1558.90391409247	1243
1559.52874615633	1260.19995117188
1560.15349669773	1259.40002441406
1560.77816572414	1259.59997558594
1561.40275324305	1260.80004882813
1562.02725926192	1263.80004882813
1562.65168378824	1261.80004882813
1563.27602682948	1258.59997558594
1563.90028839311	1267.19995117188
1564.52446848662	1269.19995117188
1565.14856711748	1268.40002441406
1565.77258429316	1266.19995117188
1566.39652002113	1264.80004882813
1567.02037430887	1260.40002441406
1567.64414716387	1264.19995117188
1568.26783859357	1265.80004882813
1568.89144860547	1257.80004882813
1569.51497720703	1257.19995117188
1570.13842440573	1270.59997558594
1570.76179020904	1265.40002441406
1571.38507462442	1264.19995117188
1572.00827765936	1267.19995117188
1572.63139932132	1260
1573.25443961777	1265.80004882813
1573.87739855618	1255.59997558594
1574.50027614402	1249.19995117188
1575.12307238877	1249.59997558594
1575.74578729789	1251.59997558594
1576.36842087885	1258.19995117188
1576.99097313912	1269
1577.61344408616	1259.59997558594
1578.23583372745	1266
1578.85814207046	1256
1579.48036912264	1243.19995117188
1580.10251489147	1242.19995117188
1580.72457938441	1246.40002441406
1581.34656260893	1245.80004882813
1581.9684645725	1250.40002441406
1582.59028528258	1257
1583.21202474663	1250.19995117188
1583.83368297212	1258.80004882813
1584.45525996652	1248.19995117188
1585.07675573728	1250.80004882813
1585.69817029188	1239.59997558594
1586.31950363778	1234.80004882813
1586.94075578243	1240.19995117188
1587.5619267333	1224.19995117188
1588.18301649786	1228.19995117188
1588.80402508357	1229
1589.42495249788	1229.40002441406
1590.04579874826	1225.40002441406
1590.66656384217	1235.59997558594
1591.28724778707	1209.19995117188
1591.90785059042	1212.80004882813
1592.52837225968	1214.40002441406
1593.14881280232	1208
1593.76917222578	1221.80004882813
1594.38945053753	1207
1595.00964774502	1222.40002441406
1595.62976385573	1225.19995117188
1596.24979887709	1225.40002441406
1596.86975281657	1224
1597.48962568164	1224.80004882813
1598.10941747974	1222.19995117188
1598.72912821832	1218.80004882813
1599.34875790486	1224.59997558594
1599.9683065468	1233.40002441406
1600.58777415159	1225.19995117188
1601.2071607267	1227
1601.82646627958	1219.40002441406
1602.44569081769	1219.40002441406
1603.06483434846	1199
1603.68389687937	1206
1604.30287841786	1198.59997558594
1604.92177897139	1194.80004882813
1605.54059854741	1191.80004882813
1606.15933715337	1189.40002441406
1606.77799479672	1196.40002441406
1607.39657148492	1200
1608.01506722542	1205.40002441406
1608.63348202566	1201.59997558594
1609.2518158931	1197.59997558594
1609.87006883519	1203
1610.48824085939	1203.40002441406
1611.10633197312	1207.80004882813
1611.72434218386	1202.59997558594
1612.34227149904	1203
1612.96011992612	1217.19995117188
1613.57788747254	1206.19995117188
1614.19557414575	1208.40002441406
1614.8131799532	1194.40002441406
1615.43070490234	1189.80004882813
1616.04814900061	1193.40002441406
1616.66551225545	1196
1617.28279467433	1198.59997558594
1617.89999626467	1193.59997558594
1618.51711703393	1200.40002441406
1619.13415698955	1198
1619.75111613898	1201.40002441406
1620.36799448966	1190.80004882813
1620.98479204903	1199.19995117188
1621.60150882455	1196.19995117188
1622.21814482364	1195.40002441406
1622.83470005376	1202.80004882813
1623.45117452235	1199
1624.06756823685	1197.40002441406
1624.6838812047	1191
1625.30011343335	1197.59997558594
1625.91626493022	1180.19995117188
1626.53233570278	1192.19995117188
1627.14832575845	1194
1627.76423510468	1200
1628.38006374891	1196.40002441406
1628.99581169857	1204.59997558594
1629.61147896111	1205.59997558594
1630.22706554397	1213.40002441406
1630.84257145457	1201.59997558594
1631.45799670038	1194.19995117188
1632.07334128881	1194.19995117188
1632.6886052273	1187
1633.3037885233	1184.80004882813
1633.91889118425	1189
1634.53391321757	1194.59997558594
1635.1488546307	1192.40002441406
1635.76371543108	1188.59997558594
1636.37849562616	1197.59997558594
1636.99319522335	1187.59997558594
1637.60781423009	1187.80004882813
1638.22235265383	1190.59997558594
1638.83681050198	1197
1639.451187782	1191
1640.0654845013	1201.80004882813
1640.67970066734	1196.80004882813
1641.29383628752	1191.19995117188
1641.9078913693	1195.80004882813
1642.5218659201	1189
1643.13575994735	1196.59997558594
1643.74957345849	1204.59997558594
1644.36330646094	1189.80004882813
1644.97695896213	1193
1645.59053096951	1191.40002441406
1646.20402249049	1199.40002441406
1646.8174335325	1195.40002441406
1647.43076410298	1200.59997558594
1648.04401420935	1203.80004882813
1648.65718385905	1209.80004882813
1649.2702730595	1214.40002441406
1649.88328181812	1227.80004882813
1650.49621014236	1232.40002441406
1651.10905803963	1222
1651.72182551735	1210.59997558594
1652.33451258297	1216.40002441406
1652.9471192439	1208.59997558594
1653.55964550757	1210.59997558594
1654.1720913814	1203
1654.78445687283	1207.19995117188
1655.39674198926	1196.59997558594
1656.00894673814	1202.40002441406
1656.62107112688	1185.80004882813
1657.23311516291	1192
1657.84507885365	1181
1658.45696220652	1176.19995117188
1659.06876522895	1176.59997558594
1659.68048792835	1171.80004882813
1660.29213031217	1157.80004882813
1660.90369238779	1156.19995117188
1661.51517416267	1157.59997558594
1662.12657564421	1159.40002441406
1662.73789683984	1163.59997558594
1663.34913775697	1167.80004882813
1663.96029840303	1162.59997558594
1664.57137878544	1155.40002441406
1665.18237891161	1150.40002441406
1665.79329878897	1151.19995117188
1666.40413842493	1147.80004882813
1667.01489782691	1150.19995117188
1667.62557700233	1157.59997558594
1668.2361759586	1151.59997558594
1668.84669470315	1153.40002441406
1669.4571332434	1161.19995117188
1670.06749158675	1150
1670.67776974062	1143.40002441406
1671.28796771243	1138.59997558594
1671.8980855096	1140.59997558594
1672.50812313954	1140.80004882813
1673.11808060967	1141.80004882813
1673.72795792739	1137.80004882813
1674.33775510013	1152.19995117188
1674.9474721353	1153.40002441406
1675.55710904031	1153.40002441406
1676.16666582257	1140.80004882813
1676.7761424895	1148
1677.38553904851	1149.59997558594
1677.99485550702	1146.40002441406
1678.60409187243	1143.80004882813
1679.21324815215	1143
1679.8223243536	1144.19995117188
1680.43132048419	1140.40002441406
1681.04023655132	1137.40002441406
1681.64907256241	1142
1682.25782852487	1142.40002441406
1682.86650444611	1134.80004882813
1683.47510033353	1134
1684.08361619455	1138
1684.69205203657	1133.59997558594
1685.300407867	1142.40002441406
1685.90868369325	1143.59997558594
1686.51687952272	1137.59997558594
1687.12499536283	1143.19995117188
1687.73303122098	1136.19995117188
1688.34098710457	1128.80004882813
1688.94886302101	1131
1689.55665897772	1135.80004882813
1690.16437498208	1129
1690.77201104152	1138.80004882813
1691.37956716342	1140.80004882813
1691.9870433552	1145.80004882813
1692.59443962426	1143
1693.20175597801	1136.59997558594
1693.80899242384	1140
1694.41614896916	1138
1695.02322562138	1143.40002441406
1695.63022238789	1133.19995117188
1696.23713927609	1133.19995117188
1696.8439762934	1125.19995117188
1697.4507334472	1136
1698.05741074491	1128.19995117188
1698.66400819391	1132.59997558594
1699.27052580161	1123.19995117188
1699.87696357542	1129.80004882813
1700.48332152272	1123
1701.08959965092	1124.19995117188
1701.69579796742	1118.19995117188
1702.30191647962	1120.19995117188
1702.90795519491	1104.80004882813
1703.51391412069	1100.40002441406
1704.11979326437	1100
1704.72559263332	1108.19995117188
1705.33131223496	1107
1705.93695207668	1106.19995117188
1706.54251216588	1104.80004882813
1707.14799250994	1101.59997558594
1707.75339311628	1103.40002441406
1708.35871399227	1101
1708.96395514532	1098.80004882813
1709.56911658282	1097.80004882813
