634.948122577771	1290.59997558594
635.690341530823	1287.80004882813
636.43246851086	1294.80004882813
637.174503525845	1288.80004882813
637.916446583745	1302.19995117188
638.658297692538	1292.80004882813
639.400056860179	1292.40002441406
640.141724094637	1279.59997558594
640.883299403885	1286.80004882813
641.62478279588	1284
642.366174278594	1287.80004882813
643.107473859989	1289
643.848681548029	1294.40002441406
644.589797350679	1298.80004882813
645.330821275901	1301.19995117188
646.071753331665	1305.40002441406
646.812593525922	1295.40002441406
647.553341866646	1299.59997558594
648.293998361798	1299
649.03456301933	1299.40002441406
649.775035847216	1279.40002441406
650.515416853409	1278.19995117188
651.255706045874	1292.19995117188
651.995903432568	1288
652.736009021453	1301
653.476022820486	1291.80004882813
654.215944837629	1295.80004882813
654.955775080842	1284.19995117188
655.695513558081	1294.19995117188
656.435160277301	1297.59997558594
657.174715246465	1302.59997558594
657.914178473527	1300
658.653549966449	1292.40002441406
659.392829733176	1295.59997558594
660.132017781678	1285
660.871114119901	1283.19995117188
661.610118755803	1298.59997558594
662.349031697343	1304
663.087852952468	1313.19995117188
663.826582529139	1298.19995117188
664.565220435305	1285
665.30376667892	1301.80004882813
666.04222126794	1294.59997558594
666.780584210316	1306.59997558594
667.518855514	1305
668.25703518694	1296.40002441406
668.995123237096	1291.40002441406
669.733119672413	1295.19995117188
670.471024500842	1302.80004882813
671.208837730333	1313.80004882813
671.946559368839	1303
672.684189424308	1296.80004882813
673.421727904689	1288
674.159174817929	1304.59997558594
674.896530171977	1302
675.633793974786	1303.59997558594
676.370966234295	1309
677.108046958461	1298.19995117188
677.845036155219	1302.40002441406
678.581933832528	1304.59997558594
679.318739998323	1303.80004882813
680.055454660558	1302
680.792077827172	1310
681.528609506116	1319.80004882813
682.265049705331	1320.19995117188
683.001398432759	1316.40002441406
683.737655696349	1304.59997558594
684.47382150404	1318.59997558594
685.20989586378	1307
685.945878783503	1307.19995117188
686.68177027116	1300
687.417570334688	1306
688.153278982032	1302.19995117188
688.888896221129	1300.59997558594
689.624422059921	1303.19995117188
690.359856506349	1301.59997558594
691.095199568354	1309.40002441406
691.830451253874	1308.59997558594
692.565611570844	1311.59997558594
693.300680527212	1320.80004882813
694.03565813091	1310.59997558594
694.770544389877	1312.59997558594
695.505339312053	1310
696.240042905372	1309.40002441406
696.974655177772	1303.59997558594
697.70917613719	1314.40002441406
698.443605791561	1328.19995117188
699.177944148826	1328.40002441406
699.912191216909	1320.19995117188
700.646347003755	1321
701.380411517295	1316.40002441406
702.114384765465	1318.19995117188
702.848266756195	1320.59997558594
703.582057497421	1324.19995117188
704.315756997074	1314.19995117188
705.049365263089	1321.80004882813
705.782882303399	1327
706.516308125936	1317.19995117188
707.249642738626	1319.40002441406
707.982886149403	1320
708.716038366204	1317.19995117188
709.449099396949	1315.19995117188
710.182069249577	1305
710.914947932009	1315.59997558594
711.647735452181	1297.40002441406
712.380431818022	1299.19995117188
713.113037037454	1306.80004882813
713.845551118411	1312
714.577974068818	1305.40002441406
715.310305896604	1302.40002441406
716.042546609694	1316.40002441406
716.774696216013	1317.59997558594
717.506754723493	1328.19995117188
718.238722140053	1316.19995117188
718.970598473624	1323.19995117188
719.702383732127	1309.19995117188
720.43407792349	1307.59997558594
721.165681055634	1310
721.897193136486	1308.19995117188
722.628614173966	1326
723.359944175997	1322
724.091183150505	1318.40002441406
724.822331105412	1330.19995117188
725.553388048638	1314.40002441406
726.284353988106	1299.59997558594
727.015228931734	1312.19995117188
727.746012887449	1318
728.476705863162	1330.19995117188
729.207307866803	1333.80004882813
729.937818906289	1334.59997558594
730.668238989535	1328.19995117188
731.398568124459	1327
732.128806318986	1314.80004882813
732.858953581034	1319.19995117188
733.589009918514	1324.40002441406
734.318975339348	1320.59997558594
735.048849851452	1321.19995117188
735.778633462744	1311.80004882813
736.508326181137	1307
737.237928014549	1317.19995117188
737.967438970897	1306.80004882813
738.696859058095	1310
739.426188284054	1297.40002441406
740.155426656692	1295.80004882813
740.884574183922	1296.80004882813
741.613630873659	1304.19995117188
742.342596733815	1306.80004882813
743.071471772302	1328
743.800255997034	1314.80004882813
744.528949415921	1326.59997558594
745.257552036877	1318.19995117188
745.986063867811	1306.19995117188
746.714484916638	1314.80004882813
747.442815191261	1314.59997558594
748.171054699597	1319.80004882813
748.899203449554	1319.40002441406
749.627261449039	1322.80004882813
750.355228705966	1318.59997558594
751.083105228239	1318.19995117188
751.810891023765	1318.19995117188
752.538586100459	1319.59997558594
753.266190466218	1328.40002441406
753.99370412896	1327.19995117188
754.721127096582	1332
755.448459377	1331
756.175700978114	1328.40002441406
756.902851907828	1322.19995117188
757.629912174055	1317.40002441406
758.356881784688	1316
759.083760747639	1302.59997558594
759.810549070817	1312.80004882813
760.537246762113	1321.80004882813
761.263853829442	1329.40002441406
761.990370280698	1320
762.716796123791	1323
763.443131366618	1318.19995117188
764.169376017082	1319.40002441406
764.895530083085	1328.59997558594
765.621593572527	1336.19995117188
766.347566493312	1343.19995117188
767.073448853336	1340.19995117188
767.799240660502	1336
768.524941922707	1341
769.250552647854	1339
769.976072843836	1341.40002441406
770.701502518551	1342.19995117188
771.426841679905	1341.80004882813
772.152090335793	1357.19995117188
772.877248494107	1355
773.602316162747	1346.19995117188
774.327293349609	1367.59997558594
775.052180062592	1368.40002441406
775.776976309589	1381.40002441406
776.501682098496	1375.40002441406
777.226297437206	1354.19995117188
777.950822333616	1362
778.675256795621	1371.80004882813
779.399600831111	1349.80004882813
780.123854447983	1350.40002441406
780.84801765413	1355.59997558594
781.572090457441	1344.59997558594
782.296072865811	1344.80004882813
783.019964887131	1340.19995117188
783.743766529297	1341
784.467477800194	1321.19995117188
785.191098707719	1325.59997558594
785.914629259756	1329.40002441406
786.638069464194	1321.80004882813
787.361419328932	1324
788.084678861852	1334
788.807848070845	1325.40002441406
789.530926963798	1322.80004882813
790.253915548602	1319.59997558594
790.976813833144	1326.80004882813
791.699621825307	1319.59997558594
792.422339532986	1328
793.144966964061	1315.40002441406
793.86750412642	1327.59997558594
794.589951027946	1330.59997558594
795.312307676536	1318.59997558594
796.03457408006	1322.19995117188
796.756750246417	1321.80004882813
797.478836183477	1335.40002441406
798.200831899137	1331.40002441406
798.92273740127	1315.40002441406
799.644552697769	1328
800.36627779651	1322.80004882813
801.087912705374	1325
801.809457432251	1344.19995117188
802.530911985017	1342.59997558594
803.252276371558	1335.40002441406
803.973550599748	1343
804.694734677472	1327.59997558594
805.415828612611	1334
806.136832413045	1337
806.857746086646	1340.59997558594
807.578569641305	1336.19995117188
808.299303084892	1338.40002441406
809.019946425289	1340.40002441406
809.740499670372	1351.59997558594
810.460962828022	1340
811.181335906114	1326.80004882813
811.901618912524	1324.19995117188
812.621811855131	1333.80004882813
813.341914741809	1327.80004882813
814.061927580433	1330
814.781850378881	1323.80004882813
815.501683145025	1336.40002441406
816.221425886743	1335.19995117188
816.941078611903	1324.19995117188
817.660641328387	1314
818.380114044065	1306.80004882813
819.099496766808	1314.59997558594
819.818789504492	1313.59997558594
820.53799226499	1317.80004882813
821.257105056168	1306.80004882813
821.976127885904	1317.19995117188
822.695060762064	1316.80004882813
823.413903692525	1319.59997558594
824.132656685151	1331.59997558594
824.851319747817	1352
825.569892888388	1342.19995117188
826.288376114739	1344.59997558594
827.006769434737	1340.80004882813
827.725072856249	1341.19995117188
828.443286387142	1333.80004882813
829.161410035285	1331.59997558594
829.87944380855	1324.59997558594
830.597387714798	1324.40002441406
831.315241761898	1329.80004882813
832.033005957715	1338
832.750680310119	1340
833.468264826969	1337.19995117188
834.18575951614	1334
834.903164385486	1341.59997558594
835.620479442878	1328.80004882813
836.337704696181	1320.19995117188
837.054840153255	1329.80004882813
837.771885821962	1320.80004882813
838.488841710172	1327.80004882813
839.20570782574	1313.59997558594
839.922484176531	1315.59997558594
840.639170770409	1314.19995117188
841.355767615231	1312.80004882813
842.072274718864	1319.19995117188
842.788692089164	1315.19995117188
843.505019733993	1317
844.221257661209	1313.40002441406
844.937405878676	1330.80004882813
845.65346439425	1307.59997558594
846.369433215789	1319.19995117188
847.085312351156	1311.59997558594
847.801101808205	1318.59997558594
848.516801594793	1318.40002441406
849.232411718781	1309.40002441406
849.947932188021	1293.80004882813
850.663363010376	1308.40002441406
851.378704193698	1320
852.093955745842	1319.59997558594
852.809117674669	1328.59997558594
853.524189988028	1330.40002441406
854.239172693778	1333.59997558594
854.954065799768	1330.80004882813
855.668869313857	1318.59997558594
856.383583243899	1307.40002441406
857.098207597743	1309.19995117188
857.812742383246	1302.40002441406
858.527187608255	1295.80004882813
859.241543280628	1300
859.955809408218	1313
860.669985998868	1313.40002441406
861.384073060437	1307.59997558594
862.098070600772	1315.19995117188
862.811978627724	1313.19995117188
863.52579714914	1324.59997558594
864.239526172873	1319.40002441406
864.953165706776	1321.59997558594
865.666715758687	1318.40002441406
866.380176336464	1323
867.093547447951	1318.80004882813
867.806829100996	1314.19995117188
868.520021303444	1314
869.233124063149	1302.40002441406
869.94613738795	1300.40002441406
870.659061285693	1309.40002441406
871.37189576423	1300.59997558594
872.084640831403	1318.80004882813
872.797296495057	1329.80004882813
873.509862763039	1320.59997558594
874.22233964319	1313.19995117188
874.934727143353	1307.59997558594
875.647025271374	1313.40002441406
876.359234035097	1317.19995117188
877.071353442361	1316.40002441406
877.783383501015	1310
878.495324218895	1308.80004882813
879.207175603844	1308
879.918937663705	1312
880.630610406318	1316.19995117188
881.342193839524	1319.59997558594
882.053687971161	1326.19995117188
882.765092809069	1332
883.476408361091	1323
884.187634635066	1324.40002441406
884.898771638828	1313.59997558594
885.609819380221	1310.40002441406
886.320777867076	1312.59997558594
887.031647107236	1307.59997558594
887.742427108536	1307
888.453117878816	1305.80004882813
889.16371942591	1305.40002441406
889.874231757652	1313.80004882813
890.584654881883	1307.59997558594
891.294988806434	1301.59997558594
892.005233539141	1298
892.715389087837	1303.59997558594
893.42545546036	1306
894.135432664543	1321.80004882813
894.845320708216	1326.80004882813
895.555119599216	1324.40002441406
896.264829345375	1334.19995117188
896.974449954526	1334.40002441406
897.683981434496	1330
898.393423793125	1335.59997558594
899.102777038235	1335
899.812041177664	1326.59997558594
900.521216219239	1331.40002441406
901.230302170793	1328.80004882813
901.939299040155	1328
902.64820683515	1321.80004882813
903.357025563612	1322.59997558594
904.065755233368	1316
904.774395852247	1323.80004882813
905.482947428076	1328
906.191409968682	1319.40002441406
906.899783481897	1319.19995117188
907.608067975538	1337.19995117188
908.316263457443	1334.80004882813
909.02436993543	1317.19995117188
909.732387417327	1323.19995117188
910.440315910959	1320.40002441406
911.148155424154	1338.59997558594
911.855905964731	1327
912.563567540521	1326.80004882813
913.271140159339	1324.80004882813
913.978623829017	1317.80004882813
914.686018557374	1322.19995117188
915.393324352237	1317
916.100541221421	1321.80004882813
916.807669172752	1306.40002441406
917.514708214054	1309.40002441406
918.221658353142	1306
918.928519597843	1299
919.635291955976	1299.19995117188
920.341975435358	1298.59997558594
921.048570043813	1322.59997558594
921.75507578916	1325
922.461492679212	1329.59997558594
923.167820721795	1342.59997558594
923.874059924726	1325.80004882813
924.58021029582	1321.80004882813
925.286271842893	1325.19995117188
925.992244573769	1325
926.698128496262	1331.80004882813
927.403923618184	1326.19995117188
928.109629947355	1318
928.815247491593	1330.80004882813
929.520776258708	1324.40002441406
930.226216256519	1315.59997558594
930.931567492841	1324
931.636829975482	1322.80004882813
932.342003712263	1321.59997558594
933.047088710995	1322.40002441406
933.752084979491	1314.59997558594
934.456992525564	1321
935.161811357024	1309.19995117188
935.866541481688	1299
936.571182907363	1313
937.275735641861	1295.59997558594
937.980199692995	1307.59997558594
938.684575068572	1303
939.388861776411	1308.40002441406
940.093059824311	1299.40002441406
940.797169220085	1301
941.501189971544	1298.80004882813
942.205122086495	1294
942.908965572751	1298.59997558594
943.612720438111	1298.80004882813
944.316386690391	1296.59997558594
945.019964337391	1305.40002441406
945.723453386924	1302
946.426853846795	1321.59997558594
947.130165724808	1312.40002441406
947.83338902877	1304.80004882813
948.536523766488	1306.40002441406
949.239569945764	1310
949.942527574402	1310.19995117188
950.64539666021	1301.80004882813
951.348177210993	1300
952.050869234548	1290.80004882813
952.753472738683	1289
953.455987731199	1287.80004882813
954.158414219898	1287.40002441406
954.860752212587	1292.59997558594
955.563001717061	1290
956.265162741124	1289.40002441406
956.967235292576	1285.80004882813
957.669219379224	1282
958.371115008857	1290.59997558594
959.072922189283	1290.19995117188
959.774640928301	1282.40002441406
960.476271233708	1284
961.177813113301	1287.40002441406
961.879266574882	1289.40002441406
962.580631626248	1283.80004882813
963.281908275194	1291.59997558594
963.98309652952	1294.40002441406
964.684196397022	1298
965.3852078855	1295
966.086131002745	1288.40002441406
966.786965756555	1295.80004882813
967.487712154726	1302.19995117188
968.188370205055	1294.19995117188
968.888939915331	1304.19995117188
969.589421293352	1299.19995117188
970.289814346909	1309.80004882813
970.990119083801	1320
971.690335511819	1306.59997558594
972.39046363875	1318.40002441406
973.090503472398	1316.19995117188
973.790455020545	1308.19995117188
974.490318290987	1311.80004882813
975.190093291516	1301
975.889780029923	1297.80004882813
976.589378513998	1295.80004882813
977.288888751527	1297.80004882813
977.988310750308	1298.59997558594
978.687644518122	1299.40002441406
979.386890062767	1296
980.086047392025	1299.19995117188
980.785116513689	1291
981.484097435542	1296
982.182990165377	1297.80004882813
982.88179471098	1298.19995117188
983.580511080137	1291.19995117188
984.279139280632	1297.40002441406
984.977679320253	1293
985.67613120679	1293.80004882813
986.374494948027	1289.59997558594
987.072770551745	1289.59997558594
987.770958025731	1291.80004882813
988.469057377772	1290.59997558594
989.167068615649	1300.40002441406
989.864991747145	1281.80004882813
990.562826780047	1295.80004882813
991.260573722134	1296.19995117188
991.958232581195	1291.40002441406
992.655803365003	1299.80004882813
993.353286081346	1293.40002441406
994.050680738006	1299
994.74798734276	1300.19995117188
995.44520590339	1311
996.142336427681	1302.59997558594
996.839378923407	1298.59997558594
997.536333398348	1299.80004882813
998.233199860289	1293
998.929978317004	1299
999.626668776274	1286.59997558594
1000.32327124587	1285.19995117188
1001.01978573359	1275.19995117188
1001.71621224718	1265.19995117188
1002.41255079445	1276
1003.10880138315	1276.40002441406
1003.80496402107	1292.19995117188
1004.50103871599	1291.40002441406
1005.19702547567	1305.59997558594
1005.8929243079	1306
1006.58873522045	1311.40002441406
1007.2844582211	1305.19995117188
1007.98009331761	1314.80004882813
1008.67564051776	1313
1009.37109982933	1307.59997558594
1010.06647126009	1293.19995117188
1010.7617548178	1300.40002441406
1011.45695051026	1296.59997558594
1012.15205834522	1296.19995117188
1012.84707833045	1289.40002441406
1013.54201047373	1298.19995117188
1014.23685478284	1303.80004882813
1014.93161126553	1297.80004882813
1015.62627992959	1297
1016.32086078277	1290.59997558594
1017.01535383285	1293.80004882813
1017.70975908761	1303.40002441406
1018.40407655479	1304.40002441406
1019.09830624219	1301.40002441406
1019.79244815755	1316
1020.48650230866	1312.19995117188
1021.18046870328	1315
1021.87434734917	1319.59997558594
1022.56813825411	1312.40002441406
1023.26184142584	1311.40002441406
1023.95545687216	1315.40002441406
1024.64898460082	1300.80004882813
1025.34242461957	1298
1026.0357769362	1289.80004882813
1026.72904155846	1301.40002441406
1027.42221849412	1301.80004882813
1028.11530775094	1292.40002441406
1028.80830933668	1303.19995117188
1029.50122325911	1296.40002441406
1030.19404952599	1307.19995117188
1030.88678814508	1292.19995117188
1031.57943912414	1282.80004882813
1032.27200247093	1291.19995117188
1032.96447819323	1278.19995117188
1033.65686629878	1267.80004882813
1034.34916679534	1277.59997558594
1035.04137969068	1270.40002441406
1035.73350499256	1272
1036.42554270874	1266.80004882813
1037.11749284697	1273.59997558594
1037.80935541501	1278
1038.50113042062	1275.40002441406
1039.19281787156	1280.80004882813
1039.88441777559	1289.80004882813
1040.57593014046	1285.19995117188
1041.26735497393	1288
1041.95869228376	1287
1042.6499420777	1288.59997558594
1043.3411043635	1290
1044.03217914893	1283
1044.72316644174	1294.59997558594
1045.41406624968	1307.19995117188
1046.1048785805	1291.80004882813
1046.79560344197	1297
1047.48624084182	1289.40002441406
1048.17679078783	1293.59997558594
1048.86725328774	1278.80004882813
1049.55762834929	1280
1050.24791598025	1282.59997558594
1050.93811618837	1273.40002441406
1051.62822898139	1278.80004882813
1052.31825436707	1273.40002441406
1053.00819235315	1273
1053.6980429474	1272.80004882813
1054.38780615755	1282.19995117188
1055.07748199136	1283.40002441406
1055.76707045658	1280.40002441406
1056.45657156095	1274.19995117188
1057.14598531222	1270.19995117188
1057.83531171814	1277.40002441406
1058.52455078646	1277.19995117188
1059.21370252494	1262.19995117188
1059.90276694129	1285.40002441406
1060.5917440433	1281.59997558594
1061.28063383868	1290.19995117188
1061.9694363352	1291.40002441406
1062.65815154059	1287.40002441406
1063.34677946261	1286.19995117188
1064.03532010899	1289.19995117188
1064.72377348748	1286.80004882813
1065.41213960583	1282.59997558594
1066.10041847177	1272.40002441406
1066.78861009306	1273
1067.47671447743	1278.40002441406
1068.16473163263	1274.80004882813
1068.85266156639	1279
1069.54050428647	1291.59997558594
1070.2282598006	1297.59997558594
1070.91592811652	1294
1071.60350924198	1285.19995117188
1072.29100318471	1277
1072.97840995245	1272.59997558594
1073.66572955295	1281.19995117188
1074.35296199394	1279
1075.04010728316	1290
1075.72716542836	1287.40002441406
1076.41413643726	1292
1077.10102031761	1278
1077.78781707715	1273.40002441406
1078.4745267236	1274.59997558594
1079.16114926471	1277.40002441406
1079.84768470822	1271.19995117188
1080.53413306185	1266
1081.22049433336	1276.80004882813
1081.90676853046	1287.40002441406
1082.5929556609	1289.80004882813
1083.27905573241	1286
1083.96506875272	1291.40002441406
1084.65099472957	1279.80004882813
1085.3368336707	1270.80004882813
1086.02258558383	1288.59997558594
1086.70825047669	1280.80004882813
1087.39382835703	1277.59997558594
1088.07931923257	1270
1088.76472311104	1278.40002441406
1089.45004000018	1273.59997558594
1090.13526990771	1289.59997558594
1090.82041284137	1287.40002441406
1091.50546880889	1273
1092.19043781799	1273.80004882813
1092.87531987642	1265
1093.56011499188	1264.80004882813
1094.24482317212	1250.80004882813
1094.92944442486	1266.40002441406
1095.61397875783	1265.59997558594
1096.29842617876	1265.40002441406
1096.98278669537	1265.59997558594
1097.6670603154	1261.40002441406
1098.35124704656	1274.80004882813
1099.03534689659	1271.80004882813
1099.71935987322	1260.19995117188
1100.40328598416	1276.59997558594
1101.08712523713	1268.59997558594
1101.77087763988	1268.80004882813
1102.45454320012	1277.40002441406
1103.13812192557	1275.40002441406
1103.82161382396	1280.40002441406
1104.50501890301	1280.40002441406
1105.18833717045	1270.59997558594
1105.87156863399	1280.59997558594
1106.55471330137	1270.59997558594
1107.2377711803	1279
1107.9207422785	1288.19995117188
1108.60362660369	1290.59997558594
1109.2864241636	1295.80004882813
1109.96913496594	1282.19995117188
1110.65175901844	1280.19995117188
1111.33429632882	1268.59997558594
1112.01674690479	1271.19995117188
1112.69911075408	1260.40002441406
1113.38138788439	1262.80004882813
1114.06357830346	1268.59997558594
1114.745682019	1252.59997558594
1115.42769903872	1276.59997558594
1116.10962937035	1274
1116.7914730216	1286.19995117188
1117.47323000018	1284.80004882813
1118.15490031382	1284.80004882813
1118.83648397022	1288
1119.51798097712	1267.59997558594
1120.1993913422	1278
1120.88071507321	1264.80004882813
1121.56195217784	1255
1122.24310266381	1259
1122.92416653884	1266.19995117188
1123.60514381064	1270.19995117188
1124.28603448692	1273
1124.9668385754	1286.19995117188
1125.64755608378	1280.40002441406
1126.32818701978	1282.19995117188
1127.00873139111	1279.40002441406
1127.68918920548	1285.19995117188
1128.3695604706	1289
1129.04984519419	1270.19995117188
1129.73004338394	1265.80004882813
1130.41015504758	1256.19995117188
1131.09018019281	1268
1131.77011882734	1273
1132.44997095888	1273.40002441406
1133.12973659514	1283.80004882813
1133.80941574381	1269.19995117188
1134.48900841263	1278.59997558594
1135.16851460927	1268.80004882813
1135.84793434147	1270.59997558594
1136.52726761692	1268.80004882813
1137.20651444333	1258
1137.8856748284	1258.19995117188
1138.56474877984	1261.19995117188
1139.24373630536	1254.19995117188
1139.92263741265	1267
1140.60145210943	1275.59997558594
1141.28018040339	1268.59997558594
1141.95882230225	1283.80004882813
1142.6373778137	1265.40002441406
1143.31584694545	1274.80004882813
1143.99422970519	1278.40002441406
1144.67252610064	1270.40002441406
1145.35073613949	1265.40002441406
1146.02885982944	1260
1146.7068971782	1256.80004882813
1147.38484819347	1260.80004882813
1148.06271288294	1262.80004882813
1148.74049125432	1265.19995117188
1149.41818331531	1279.59997558594
1150.0957890736	1280.59997558594
1150.77330853689	1263.80004882813
1151.45074171289	1261.59997558594
1152.12808860928	1261
1152.80534923378	1259.40002441406
1153.48252359407	1243.19995117188
1154.15961169786	1257.59997558594
1154.83661355283	1248.19995117188
1155.51352916669	1254.40002441406
1156.19035854713	1257.19995117188
1156.86710170185	1252.59997558594
1157.54375863855	1267.40002441406
1158.22032936491	1256.40002441406
1158.89681388863	1256.59997558594
1159.57321221741	1272
1160.24952435894	1252
1160.92575032092	1265.80004882813
1161.60189011103	1264.19995117188
1162.27794373697	1274.80004882813
1162.95391120644	1268.59997558594
1163.62979252712	1251.59997558594
1164.3055877067	1259.80004882813
1164.98129675288	1261.19995117188
1165.65691967336	1263.59997558594
1166.33245647581	1267.59997558594
1167.00790716792	1261.80004882813
1167.6832717574	1263.59997558594
1168.35855025193	1265
1169.0337426592	1261
1169.70884898689	1264
1170.3838692427	1257.80004882813
1171.05880343431	1256.40002441406
1171.73365156941	1258.19995117188
1172.40841365569	1262.19995117188
1173.08308970083	1262
1173.75767971253	1259
1174.43218369847	1264.40002441406
1175.10660166633	1255.40002441406
1175.7809336238	1254.19995117188
1176.45517957857	1253.19995117188
1177.12933953832	1258.19995117188
1177.80341351073	1258.19995117188
1178.47740150349	1252.80004882813
1179.15130352429	1263
1179.8251195808	1271
1180.49884968071	1274
1181.1724938317	1265.59997558594
1181.84605204145	1261.59997558594
1182.51952431766	1255.59997558594
1183.19291066799	1262.40002441406
1183.86621110013	1273.40002441406
1184.53942562176	1272.40002441406
1185.21255424057	1273.80004882813
1185.88559696422	1284.80004882813
1186.55855380041	1273
1187.2314247568	1272.80004882813
1187.90420984109	1279.80004882813
1188.57690906095	1275.19995117188
1189.24952242405	1279.19995117188
1189.92204993808	1280.40002441406
1190.59449161071	1267.59997558594
1191.26684744962	1274.59997558594
1191.93911746249	1277.19995117188
1192.61130165699	1259.19995117188
1193.28340004081	1259.40002441406
1193.95541262161	1260
1194.62733940707	1273.59997558594
1195.29918040487	1266
1195.97093562269	1266.80004882813
1196.64260506819	1274.80004882813
1197.31418874905	1273.19995117188
1197.98568667295	1258.40002441406
1198.65709884755	1256.19995117188
1199.32842528053	1267.40002441406
1199.99966597957	1259.40002441406
1200.67082095234	1258
1201.3418902065	1258.59997558594
1202.01287374974	1239.80004882813
1202.68377158971	1253.59997558594
1203.3545837341	1257
1204.02531019057	1255.59997558594
1204.6959509668	1264.80004882813
1205.36650607045	1263.19995117188
1206.03697550919	1271.80004882813
1206.70735929069	1264
1207.37765742263	1263.19995117188
1208.04786991266	1270.40002441406
1208.71799676846	1264.59997558594
1209.38803799769	1274.19995117188
1210.05799360803	1264.80004882813
1210.72786360714	1255.80004882813
1211.39764800268	1255.59997558594
1212.06734680233	1258.59997558594
1212.73696001375	1254.59997558594
1213.4064876446	1249.59997558594
1214.07592970255	1254
1214.74528619526	1246
1215.4145571304	1248.59997558594
1216.08374251564	1250.19995117188
1216.75284235863	1249.80004882813
1217.42185666704	1245
1218.09078544854	1252.59997558594
1218.75962871078	1247.59997558594
1219.42838646143	1246.59997558594
1220.09705870816	1241.19995117188
1220.76564545861	1249
1221.43414672046	1244.59997558594
1222.10256250136	1259.19995117188
1222.77089280898	1256.80004882813
1223.43913765098	1253.19995117188
1224.107297035	1256.19995117188
1224.77537096873	1258.40002441406
1225.44335945981	1250.80004882813
1226.1112625159	1262
1226.77908014467	1258
1227.44681235376	1259
1228.11445915085	1258.19995117188
1228.78202054357	1251.40002441406
1229.44949653961	1253
1230.11688714659	1251
1230.7841923722	1251.59997558594
1231.45141222407	1256.40002441406
1232.11854670988	1245.59997558594
1232.78559583726	1244.80004882813
1233.45255961388	1243.40002441406
1234.1194380474	1243.40002441406
1234.78623114546	1256.19995117188
1235.45293891572	1244.19995117188
1236.11956136583	1255.80004882813
1236.78609850345	1253.59997558594
1237.45255033623	1258
1238.11891687182	1261.19995117188
1238.78519811788	1257.19995117188
1239.45139408205	1256.40002441406
1240.11750477198	1253.40002441406
1240.78353019534	1243
1241.44947035976	1247
1242.11532527291	1235.59997558594
1242.78109494242	1231.19995117188
1243.44677937595	1239.80004882813
1244.11237858115	1246
1244.77789256567	1238
1245.44332133715	1242.40002441406
1246.10866490325	1243.40002441406
1246.7739232716	1253.59997558594
1247.43909644987	1245.40002441406
1248.10418444569	1251.19995117188
1248.76918726671	1249.19995117188
1249.43410492059	1253.40002441406
1250.09893741496	1244.59997558594
1250.76368475747	1239.80004882813
1251.42834695576	1244
1252.09292401749	1248.19995117188
1252.75741595029	1252.59997558594
1253.42182276182	1258.59997558594
1254.08614445971	1255.80004882813
1254.75038105161	1246.40002441406
1255.41453254515	1245.19995117188
1256.07859894799	1246.59997558594
1256.74258026777	1235.80004882813
1257.40647651213	1233.19995117188
1258.0702876887	1236.80004882813
1258.73401380514	1234.80004882813
1259.39765486908	1236.59997558594
1260.06121088817	1245.19995117188
1260.72468187004	1244.19995117188
1261.38806782233	1245
1262.05136875269	1244.80004882813
1262.71458466875	1233
1263.37771557815	1244.19995117188
1264.04076148854	1244.19995117188
1264.70372240753	1235.40002441406
1265.3665983428	1234.19995117188
1266.02938930195	1236.59997558594
1266.69209529263	1235
1267.35471632249	1246.40002441406
1268.01725239914	1235.80004882813
1268.67970353024	1241.19995117188
1269.34206972342	1234.80004882813
1270.00435098631	1230.40002441406
1270.66654732655	1244.40002441406
1271.32865875177	1236.59997558594
1271.9906852696	1237.19995117188
1272.65262688768	1247.40002441406
1273.31448361365	1254.19995117188
1273.97625545514	1251.19995117188
1274.63794241978	1242.59997558594
1275.2995445152	1234.40002441406
1275.96106174903	1240.40002441406
1276.62249412892	1244
1277.28384166248	1245.40002441406
1277.94510435735	1246.59997558594
1278.60628222116	1244.19995117188
1279.26737526155	1240.19995117188
1279.92838348613	1228.59997558594
1280.58930690255	1229.19995117188
1281.25014551842	1228
1281.91089934139	1247.80004882813
1282.57156837907	1238.80004882813
1283.2321526391	1235
1283.89265212911	1238.80004882813
1284.55306685671	1229.19995117188
1285.21339682955	1227.19995117188
1285.87364205525	1211.40002441406
1286.53380254142	1206.59997558594
1287.19387829571	1218
1287.85386932573	1213.59997558594
1288.51377563911	1221.40002441406
1289.17359724348	1224.59997558594
1289.83333414646	1231.19995117188
1290.49298635567	1223.40002441406
1291.15255387874	1225
1291.8120367233	1226.40002441406
1292.47143489696	1233.59997558594
1293.13074840736	1228.80004882813
1293.7899772621	1222
1294.44912146882	1228
1295.10818103513	1230
1295.76715596866	1229
1296.42604627704	1243.19995117188
1297.08485196787	1227.80004882813
1297.74357304878	1232.40002441406
1298.4022095274	1240.40002441406
1299.06076141134	1243
1299.71922870821	1238.40002441406
1300.37761142565	1244.19995117188
1301.03590957126	1240.80004882813
1301.69412315268	1240
1302.3522521775	1245.80004882813
1303.01029665336	1242.80004882813
1303.66825658787	1247.80004882813
1304.32613198865	1250
1304.98392286332	1245.19995117188
1305.64162921948	1254
1306.29925106476	1260.80004882813
1306.95678840677	1251.59997558594
1307.61424125312	1246.19995117188
1308.27160961145	1241.80004882813
1308.92889348934	1239.80004882813
1309.58609289443	1240.80004882813
1310.24320783432	1236.80004882813
1310.90023831664	1231.59997558594
1311.55718434898	1229.80004882813
1312.21404593897	1235.59997558594
1312.87082309421	1227.59997558594
1313.52751582233	1241.40002441406
1314.18412413092	1244.40002441406
1314.84064802761	1251.19995117188
1315.49708752	1246
1316.1534426157	1255.19995117188
1316.80971332233	1259.59997558594
1317.46589964749	1256.19995117188
1318.1220015988	1253.19995117188
1318.77801918386	1247.19995117188
1319.43395241028	1242
1320.08980128567	1241
1320.74556581764	1249
1321.4012460138	1255.40002441406
1322.05684188176	1252.19995117188
1322.71235342911	1235.40002441406
1323.36778066347	1245
1324.02312359245	1248.40002441406
1324.67838222365	1244.59997558594
1325.33355656468	1250
1325.98864662314	1251.80004882813
1326.64365240663	1254
1327.29857392277	1236.40002441406
1327.95341117915	1235
1328.60816418339	1239.80004882813
1329.26283294308	1235.80004882813
1329.91741746582	1235.19995117188
1330.57191775923	1228.80004882813
1331.2263338309	1227.40002441406
1331.88066568843	1230.80004882813
1332.53491333943	1226.40002441406
1333.1890767915	1232.59997558594
1333.84315605224	1231.80004882813
1334.49715112925	1238
1335.15106203013	1223
1335.80488876249	1232.40002441406
1336.45863133391	1236
1337.112289752	1225
1337.76586402437	1230.80004882813
1338.4193541586	1230
1339.0727601623	1224.80004882813
1339.72608204306	1245
1340.37931980849	1238.19995117188
1341.03247346617	1235.80004882813
1341.68554302372	1239.80004882813
1342.33852848871	1235
1342.99142986876	1235.19995117188
1343.64424717145	1235.80004882813
1344.29698040438	1246
1344.94962957515	1250.19995117188
1345.60219469135	1240
1346.25467576058	1232
1346.90707279042	1251.59997558594
1347.55938578848	1240.40002441406
1348.21161476235	1246.59997558594
1348.86375971962	1235.40002441406
1349.51582066787	1241.59997558594
1350.16779761472	1247.19995117188
1350.81969056774	1250.80004882813
1351.47149953453	1250.19995117188
1352.12322452269	1247
1352.77486553979	1248.40002441406
1353.42642259344	1250.59997558594
1354.07789569122	1242
1354.72928484072	1246.40002441406
1355.38059004953	1258
1356.03181132525	1259.19995117188
1356.68294867545	1254.40002441406
1357.33400210773	1260.19995117188
1357.98497162968	1240
1358.63585724889	1248
1359.28665897294	1241.40002441406
1359.93737680942	1238.40002441406
1360.58801076591	1238
1361.23856085001	1253.19995117188
1361.88902706929	1260
1362.53940943135	1253.59997558594
1363.18970794377	1257.40002441406
1363.83992261413	1257
1364.49005345003	1266.19995117188
1365.14010045904	1270.59997558594
1365.79006364874	1274.80004882813
1366.43994302673	1278.40002441406
1367.08973860058	1268.19995117188
1367.73945037788	1259.59997558594
1368.38907836621	1260.40002441406
1369.03862257315	1261.40002441406
1369.68808300629	1261
1370.3374596732	1254.19995117188
1370.98675258148	1261.80004882813
1371.63596173868	1256.80004882813
1372.28508715241	1247
1372.93412883024	1249.40002441406
1373.58308677974	1234.59997558594
1374.2319610085	1229.59997558594
1374.8807515241	1224
1375.52945833412	1230.19995117188
1376.17808144612	1223.59997558594
1376.82662086771	1232.40002441406
1377.47507660644	1218
1378.12344866989	1224.40002441406
1378.77173706565	1213.80004882813
1379.41994180129	1218
1380.06806288439	1225.40002441406
1380.71610032252	1226.40002441406
1381.36405412326	1236.80004882813
1382.01192429419	1227.40002441406
1382.65971084287	1226.40002441406
1383.30741377688	1227.80004882813
1383.95503310381	1225.40002441406
1384.60256883121	1224
1385.25002096667	1226.19995117188
1385.89738951775	1216.80004882813
1386.54467449204	1225.59997558594
1387.19187589709	1226.40002441406
1387.8389937405	1224.59997558594
1388.48602802982	1215.40002441406
1389.13297877262	1214.19995117188
1389.77984597649	1225.40002441406
1390.42662964899	1218.40002441406
1391.07332979768	1228
1391.71994643015	1225.59997558594
1392.36647955395	1230
1393.01292917667	1225.80004882813
1393.65929530586	1226.19995117188
1394.3055779491	1226.59997558594
1394.95177711395	1231.19995117188
1395.59789280799	1220
1396.24392503877	1222.59997558594
1396.88987381387	1215.40002441406
1397.53573914086	1212.19995117188
1398.1815210273	1210.19995117188
1398.82721948075	1213.19995117188
1399.47283450878	1219
1400.11836611897	1219.59997558594
1400.76381431886	1206.80004882813
1401.40917911603	1217.80004882813
1402.05446051805	1190.19995117188
1402.69965853247	1188
1403.34477316686	1192
1403.98980442878	1203.80004882813
1404.6347523258	1189.40002441406
1405.27961686548	1204.80004882813
1405.92439805538	1212.59997558594
1406.56909590306	1214.80004882813
1407.21371041608	1209.40002441406
1407.85824160202	1207
1408.50268946841	1206.19995117188
1409.14705402284	1209.59997558594
1409.79133527285	1210.40002441406
1410.43553322601	1211
1411.07964788987	1221.40002441406
1411.723679272	1220.59997558594
1412.36762737996	1218.80004882813
1413.01149222129	1207.40002441406
1413.65527380357	1205
1414.29897213435	1204.19995117188
1414.94258722118	1202.40002441406
1415.58611907163	1205.80004882813
1416.22956769325	1203.59997558594
1416.87293309359	1194.59997558594
1417.51621528021	1196
1418.15941426067	1195.40002441406
1418.80253004253	1203.19995117188
1419.44556263333	1204
1420.08851204063	1210.80004882813
1420.731378272	1205.19995117188
1421.37416133497	1211.80004882813
1422.0168612371	1211.80004882813
1422.65947798596	1215.59997558594
1423.30201158908	1220.19995117188
1423.94446205403	1214.80004882813
1424.58682938835	1209.19995117188
1425.2291135996	1203.19995117188
1425.87131469532	1210.59997558594
1426.51343268308	1212.40002441406
1427.15546757042	1222
1427.79741936488	1213
1428.43928807403	1217.19995117188
1429.0810737054	1213.19995117188
1429.72277626656	1212.40002441406
1430.36439576504	1208
1431.00593220841	1204
1431.64738560419	1208.40002441406
1432.28875595995	1205.80004882813
1432.93004328324	1206
1433.57124758159	1192.59997558594
1434.21236886255	1202
1434.85340713368	1209
1435.49436240252	1202
1436.13523467661	1213.40002441406
1436.77602396349	1201.19995117188
1437.41673027073	1213.80004882813
1438.05735360585	1208.40002441406
1438.69789397641	1215.59997558594
1439.33835138994	1209.19995117188
1439.978725854	1210
1440.61901737612	1204.40002441406
1441.25922596385	1213.19995117188
1441.89935162473	1207.80004882813
1442.53939436631	1216.59997558594
1443.17935419612	1204.19995117188
1443.81923112171	1197.80004882813
1444.45902515061	1202
1445.09873629038	1203.40002441406
1445.73836454854	1202
1446.37790993265	1202
1447.01737245024	1206.40002441406
1447.65675210885	1205.40002441406
1448.29604891602	1203.19995117188
1448.93526287928	1199
1449.57439400618	1209.59997558594
1450.21344230426	1199.19995117188
1450.85240778105	1194.80004882813
1451.49129044409	1206.59997558594
1452.13009030092	1213.80004882813
1452.76880735907	1208
1453.40744162608	1208
1454.04599310949	1204.40002441406
1454.68446181683	1210.80004882813
1455.32284775564	1208.80004882813
1455.96115093345	1218.40002441406
1456.5993713578	1210.40002441406
1457.23750903623	1200.40002441406
1457.87556397626	1197.59997558594
1458.51353618543	1201
1459.15142567127	1184.19995117188
1459.78923244132	1189.40002441406
1460.42695650311	1199.80004882813
1461.06459786417	1192.80004882813
1461.70215653203	1199.59997558594
1462.33963251423	1204.19995117188
1462.97702581829	1206.19995117188
1463.61433645175	1191.59997558594
1464.25156442214	1192
1464.88870973699	1192.59997558594
1465.52577240382	1195
1466.16275243017	1196.40002441406
1466.79964982356	1192.40002441406
1467.43646459154	1197.80004882813
1468.07319674161	1201.80004882813
1468.70984628132	1206.40002441406
1469.34641321818	1202.59997558594
1469.98289755974	1201.59997558594
1470.6192993135	1196.40002441406
1471.25561848701	1195
1471.89185508779	1190.80004882813
1472.52800912336	1199.19995117188
1473.16408060124	1196.59997558594
1473.80006952897	1187.19995117188
1474.43597591407	1191.19995117188
1475.07179976406	1195
1475.70754108647	1189.59997558594
1476.34319988883	1190
1476.97877617865	1198.80004882813
1477.61426996345	1196.59997558594
1478.24968125077	1196.19995117188
1478.88501004812	1205.40002441406
1479.52025636303	1213.19995117188
1480.15542020302	1209.80004882813
1480.79050157561	1202.19995117188
1481.42550048832	1209
1482.06041694867	1201.40002441406
1482.69525096418	1199.80004882813
1483.33000254237	1208.19995117188
1483.96467169077	1201.40002441406
1484.59925841689	1192.40002441406
1485.23376272825	1198.80004882813
1485.86818463237	1197.40002441406
1486.50252413677	1204.59997558594
1487.13678124896	1194.80004882813
1487.77095597646	1195.40002441406
1488.4050483268	1185.80004882813
1489.03905830749	1191.59997558594
1489.67298592604	1180.40002441406
1490.30683118996	1191.40002441406
1490.9405941068	1185.80004882813
1491.57427468403	1189.80004882813
1492.2078729292	1188
1492.84138884981	1190.40002441406
1493.47482245338	1195.40002441406
1494.10817374742	1207.80004882813
1494.74144273944	1205
1495.37462943696	1201.40002441406
1496.0077338475	1207.80004882813
1496.64075597856	1209.19995117188
1497.27369583765	1199.80004882813
1497.9065534323	1198.40002441406
1498.53932877001	1185
1499.17202185829	1171
1499.80463270465	1180.40002441406
1500.43716131661	1182.80004882813
1501.06960770167	1176.80004882813
1501.70197186735	1181.59997558594
1502.33425382116	1183.59997558594
1502.96645357059	1191.19995117188
1503.59857112317	1179.59997558594
1504.23060648641	1176
1504.8625596678	1176.19995117188
1505.49443067486	1192.80004882813
1506.1262195151	1183.40002441406
1506.75792619602	1194
1507.38955072513	1193.59997558594
1508.02109310993	1192.80004882813
1508.65255335794	1193.19995117188
1509.28393147666	1195.19995117188
1509.91522747359	1194.59997558594
1510.54644135624	1199.19995117188
1511.17757313212	1194.40002441406
1511.80862280872	1206.19995117188
1512.43959039356	1199.80004882813
1513.07047589413	1208.80004882813
1513.70127931795	1196.40002441406
1514.33200067251	1195.59997558594
1514.96263996531	1204.19995117188
1515.59319720386	1198
1516.22367239567	1184.40002441406
1516.85406554822	1187.59997558594
1517.48437666903	1186.19995117188
1518.1146057656	1195.59997558594
1518.74475284542	1186.40002441406
1519.374817916	1193.59997558594
1520.00480098483	1186.80004882813
1520.63470205942	1186
1521.26452114726	1190.40002441406
1521.89425825586	1184.59997558594
1522.52391339271	1181.19995117188
1523.15348656531	1192.59997558594
1523.78297778116	1182
1524.41238704775	1185.40002441406
1525.04171437259	1177.80004882813
1525.67095976317	1184.40002441406
1526.30012322699	1178.80004882813
1526.92920477154	1182.59997558594
1527.55820440432	1177.59997558594
1528.18712213283	1170.80004882813
1528.81595796455	1166
1529.44471190699	1163.80004882813
1530.07338396764	1160.19995117188
1530.70197415399	1155.59997558594
1531.33048247353	1163.80004882813
1531.95890893377	1158.19995117188
1532.58725354219	1167.59997558594
1533.21551630629	1170
1533.84369723356	1170.80004882813
1534.47179633148	1175.19995117188
1535.09981360757	1180.59997558594
1535.72774906929	1182.80004882813
1536.35560272415	1186.80004882813
1536.98337457963	1187
1537.61106464323	1184.40002441406
1538.23867292243	1186.40002441406
1538.86619942473	1179.80004882813
1539.49364415762	1179.40002441406
1540.12100712857	1190.40002441406
1540.74828834509	1190
1541.37548781466	1185.19995117188
1542.00260554478	1169.80004882813
1542.62964154291	1174.40002441406
1543.25659581655	1169.80004882813
1543.8834683732	1174.59997558594
1544.51025922034	1178
1545.13696836544	1174
1545.76359581601	1176.40002441406
1546.39014157952	1169.19995117188
1547.01660566345	1159.59997558594
1547.64298807531	1174.19995117188
1548.26928882255	1168
1548.89550791269	1170.80004882813
1549.52164535318	1168.80004882813
1550.14770115153	1166.80004882813
1550.77367531521	1172
1551.39956785171	1173.40002441406
1552.0253787685	1174.40002441406
1552.65110807307	1175.19995117188
1553.2767557729	1183
1553.90232187548	1186.59997558594
1554.52780638828	1171
1555.15320931879	1176.19995117188
1555.77853067447	1172.59997558594
1556.40377046282	1176.40002441406
1557.02892869132	1176
1557.65400536744	1173.80004882813
1558.27900049866	1172
1558.90391409247	1172.19995117188
1559.52874615633	1169.59997558594
1560.15349669773	1181.80004882813
1560.77816572414	1184.19995117188
1561.40275324305	1188
1562.02725926192	1191.40002441406
1562.65168378824	1190.19995117188
1563.27602682948	1185.80004882813
1563.90028839311	1187.19995117188
1564.52446848662	1186
1565.14856711748	1186.19995117188
1565.77258429316	1186.59997558594
1566.39652002113	1185.19995117188
1567.02037430887	1176.40002441406
1567.64414716387	1180.59997558594
1568.26783859357	1188.80004882813
1568.89144860547	1182.19995117188
1569.51497720703	1175.59997558594
1570.13842440573	1178.40002441406
1570.76179020904	1175.80004882813
1571.38507462442	1174.59997558594
1572.00827765936	1175.40002441406
1572.63139932132	1175.19995117188
1573.25443961777	1169.80004882813
1573.87739855618	1169.40002441406
1574.50027614402	1167.80004882813
1575.12307238877	1167.59997558594
1575.74578729789	1173.40002441406
1576.36842087885	1170.59997558594
1576.99097313912	1176.19995117188
1577.61344408616	1185.19995117188
1578.23583372745	1173.59997558594
1578.85814207046	1172.40002441406
1579.48036912264	1166.40002441406
1580.10251489147	1162.59997558594
1580.72457938441	1159.19995117188
1581.34656260893	1168.80004882813
1581.9684645725	1175.19995117188
1582.59028528258	1167.80004882813
1583.21202474663	1177
1583.83368297212	1182.19995117188
1584.45525996652	1164.19995117188
1585.07675573728	1166.40002441406
1585.69817029188	1170.80004882813
1586.31950363778	1163.59997558594
1586.94075578243	1167.80004882813
1587.5619267333	1157.59997558594
1588.18301649786	1154
1588.80402508357	1150.59997558594
1589.42495249788	1156.19995117188
1590.04579874826	1147
1590.66656384217	1159.19995117188
1591.28724778707	1141.59997558594
1591.90785059042	1139
1592.52837225968	1146
1593.14881280232	1141.59997558594
1593.76917222578	1145.19995117188
1594.38945053753	1144.59997558594
1595.00964774502	1157.40002441406
1595.62976385573	1144.19995117188
1596.24979887709	1143
1596.86975281657	1149.80004882813
1597.48962568164	1151.40002441406
1598.10941747974	1157.80004882813
1598.72912821832	1150.40002441406
1599.34875790486	1149.19995117188
1599.9683065468	1156.59997558594
1600.58777415159	1156.80004882813
1601.2071607267	1154.40002441406
1601.82646627958	1147.40002441406
1602.44569081769	1142
1603.06483434846	1131.40002441406
1603.68389687937	1145.19995117188
1604.30287841786	1138.80004882813
1604.92177897139	1129.40002441406
1605.54059854741	1125.59997558594
1606.15933715337	1123.19995117188
1606.77799479672	1130.40002441406
1607.39657148492	1129.59997558594
1608.01506722542	1142.40002441406
1608.63348202566	1141.19995117188
1609.2518158931	1134.80004882813
1609.87006883519	1135
1610.48824085939	1129.80004882813
1611.10633197312	1142
1611.72434218386	1136.80004882813
1612.34227149904	1139.59997558594
1612.96011992612	1145
1613.57788747254	1139.59997558594
1614.19557414575	1136.80004882813
1614.8131799532	1134.59997558594
1615.43070490234	1132.19995117188
1616.04814900061	1134.40002441406
1616.66551225545	1123
1617.28279467433	1126
1617.89999626467	1141.59997558594
1618.51711703393	1136.19995117188
1619.13415698955	1135.80004882813
1619.75111613898	1142
1620.36799448966	1135.80004882813
1620.98479204903	1134.19995117188
1621.60150882455	1132.80004882813
1622.21814482364	1128.19995117188
1622.83470005376	1132
1623.45117452235	1132.19995117188
1624.06756823685	1130.40002441406
1624.6838812047	1128.19995117188
1625.30011343335	1131.40002441406
1625.91626493022	1120
1626.53233570278	1132.80004882813
1627.14832575845	1138
1627.76423510468	1130.59997558594
1628.38006374891	1142.19995117188
1628.99581169857	1142.80004882813
1629.61147896111	1139.80004882813
1630.22706554397	1143.59997558594
1630.84257145457	1136.40002441406
1631.45799670038	1133
1632.07334128881	1127
1632.6886052273	1127.19995117188
1633.3037885233	1120
1633.91889118425	1127
1634.53391321757	1132.40002441406
1635.1488546307	1126.40002441406
1635.76371543108	1118.19995117188
1636.37849562616	1129.40002441406
1636.99319522335	1121.80004882813
1637.60781423009	1122
1638.22235265383	1125.40002441406
1638.83681050198	1126
1639.451187782	1121.59997558594
1640.0654845013	1125
1640.67970066734	1120.40002441406
1641.29383628752	1123
1641.9078913693	1123
1642.5218659201	1121.19995117188
1643.13575994735	1116.80004882813
1643.74957345849	1122.19995117188
1644.36330646094	1122.40002441406
1644.97695896213	1123.80004882813
1645.59053096951	1121
1646.20402249049	1121.40002441406
1646.8174335325	1124.59997558594
1647.43076410298	1122
1648.04401420935	1125.19995117188
1648.65718385905	1141
1649.2702730595	1134
1649.88328181812	1140.40002441406
1650.49621014236	1134.19995117188
1651.10905803963	1139.40002441406
1651.72182551735	1140
1652.33451258297	1133.19995117188
1652.9471192439	1133
1653.55964550757	1130
1654.1720913814	1120.40002441406
1654.78445687283	1130
1655.39674198926	1126.80004882813
1656.00894673814	1127
1656.62107112688	1125.59997558594
1657.23311516291	1116.19995117188
1657.84507885365	1124.40002441406
1658.45696220652	1116.80004882813
1659.06876522895	1107.40002441406
1659.68048792835	1105.19995117188
1660.29213031217	1103
1660.90369238779	1102.80004882813
1661.51517416267	1103.19995117188
1662.12657564421	1092.59997558594
1662.73789683984	1105.59997558594
1663.34913775697	1103.40002441406
1663.96029840303	1098.59997558594
1664.57137878544	1096.19995117188
1665.18237891161	1094
1665.79329878897	1096.59997558594
1666.40413842493	1092.80004882813
1667.01489782691	1098.19995117188
1667.62557700233	1089.40002441406
1668.2361759586	1095.59997558594
1668.84669470315	1091.40002441406
1669.4571332434	1095.40002441406
1670.06749158675	1094.19995117188
1670.67776974062	1082.19995117188
1671.28796771243	1082.59997558594
1671.8980855096	1083
1672.50812313954	1083.59997558594
1673.11808060967	1085.40002441406
1673.72795792739	1090.19995117188
1674.33775510013	1098.19995117188
1674.9474721353	1090.40002441406
1675.55710904031	1093.80004882813
1676.16666582257	1086.80004882813
1676.7761424895	1096.40002441406
1677.38553904851	1093.59997558594
1677.99485550702	1086.80004882813
1678.60409187243	1085.19995117188
1679.21324815215	1080.80004882813
1679.8223243536	1081.59997558594
1680.43132048419	1082.59997558594
1681.04023655132	1077
1681.64907256241	1076.19995117188
1682.25782852487	1080.40002441406
1682.86650444611	1079.80004882813
1683.47510033353	1082.59997558594
1684.08361619455	1088.40002441406
1684.69205203657	1081
1685.300407867	1086.40002441406
1685.90868369325	1088.40002441406
1686.51687952272	1086.19995117188
1687.12499536283	1087
1687.73303122098	1081.59997558594
1688.34098710457	1082.80004882813
1688.94886302101	1080
1689.55665897772	1084
1690.16437498208	1079.40002441406
1690.77201104152	1086.19995117188
1691.37956716342	1082.19995117188
1691.9870433552	1082.19995117188
1692.59443962426	1091.40002441406
1693.20175597801	1081.19995117188
1693.80899242384	1080.80004882813
1694.41614896916	1072.40002441406
1695.02322562138	1078.19995117188
1695.63022238789	1079
1696.23713927609	1079.40002441406
1696.8439762934	1083
1697.4507334472	1086.40002441406
1698.05741074491	1078.40002441406
1698.66400819391	1084.40002441406
1699.27052580161	1071.19995117188
1699.87696357542	1073.40002441406
1700.48332152272	1064.40002441406
1701.08959965092	1069
1701.69579796742	1067.80004882813
1702.30191647962	1064.19995117188
1702.90795519491	1065.19995117188
1703.51391412069	1056.59997558594
1704.11979326437	1050.19995117188
1704.72559263332	1054.19995117188
1705.33131223496	1053.19995117188
1705.93695207668	1053
1706.54251216588	1055
1707.14799250994	1054.19995117188
1707.75339311628	1054.40002441406
1708.35871399227	1047.80004882813
1708.96395514532	1050.59997558594
1709.56911658282	1047
