634.948122577771	1527
635.690341530823	1512
636.43246851086	1524
637.174503525845	1532.80004882813
637.916446583745	1540.59997558594
638.658297692538	1523.40002441406
639.400056860179	1522.19995117188
640.141724094637	1511.19995117188
640.883299403885	1515.19995117188
641.62478279588	1511.59997558594
642.366174278594	1522
643.107473859989	1530.59997558594
643.848681548029	1533.19995117188
644.589797350679	1554
645.330821275901	1539.19995117188
646.071753331665	1531
646.812593525922	1528
647.553341866646	1533.19995117188
648.293998361798	1527.80004882813
649.03456301933	1529.40002441406
649.775035847216	1515.40002441406
650.515416853409	1511
651.255706045874	1516.40002441406
651.995903432568	1524.80004882813
652.736009021453	1526.40002441406
653.476022820486	1525
654.215944837629	1549.19995117188
654.955775080842	1528.40002441406
655.695513558081	1522.80004882813
656.435160277301	1536.80004882813
657.174715246465	1554.59997558594
657.914178473527	1538.59997558594
658.653549966449	1547
659.392829733176	1546.80004882813
660.132017781678	1534
660.871114119901	1538.59997558594
661.610118755803	1542.80004882813
662.349031697343	1538.80004882813
663.087852952468	1540.40002441406
663.826582529139	1523.19995117188
664.565220435305	1525.19995117188
665.30376667892	1513.40002441406
666.04222126794	1516.19995117188
666.780584210316	1523.19995117188
667.518855514	1520.19995117188
668.25703518694	1534.59997558594
668.995123237096	1549.40002441406
669.733119672413	1556.40002441406
670.471024500842	1539.80004882813
671.208837730333	1554.80004882813
671.946559368839	1552.40002441406
672.684189424308	1538.19995117188
673.421727904689	1528.19995117188
674.159174817929	1527.19995117188
674.896530171977	1534
675.633793974786	1536.40002441406
676.370966234295	1541.40002441406
677.108046958461	1545.40002441406
677.845036155219	1553.59997558594
678.581933832528	1567
679.318739998323	1554.80004882813
680.055454660558	1569
680.792077827172	1563.19995117188
681.528609506116	1574.19995117188
682.265049705331	1568.59997558594
683.001398432759	1548.59997558594
683.737655696349	1547.40002441406
684.47382150404	1538.40002441406
685.20989586378	1559.59997558594
685.945878783503	1546.80004882813
686.68177027116	1547.59997558594
687.417570334688	1529
688.153278982032	1541.19995117188
688.888896221129	1536.59997558594
689.624422059921	1548
690.359856506349	1557.80004882813
691.095199568354	1548.80004882813
691.830451253874	1552.40002441406
692.565611570844	1561.80004882813
693.300680527212	1568.40002441406
694.03565813091	1564.80004882813
694.770544389877	1563.59997558594
695.505339312053	1560.40002441406
696.240042905372	1545.19995117188
696.974655177772	1555.80004882813
697.70917613719	1559.80004882813
698.443605791561	1569.59997558594
699.177944148826	1581.80004882813
699.912191216909	1588
700.646347003755	1566.80004882813
701.380411517295	1577
702.114384765465	1560.80004882813
702.848266756195	1587.59997558594
703.582057497421	1570.19995117188
704.315756997074	1580
705.049365263089	1561.59997558594
705.782882303399	1579.80004882813
706.516308125936	1570.80004882813
707.249642738626	1568
707.982886149403	1572.19995117188
708.716038366204	1575.40002441406
709.449099396949	1569
710.182069249577	1545.19995117188
710.914947932009	1545.19995117188
711.647735452181	1527.19995117188
712.380431818022	1527.80004882813
713.113037037454	1540.19995117188
713.845551118411	1551.59997558594
714.577974068818	1563.59997558594
715.310305896604	1561.59997558594
716.042546609694	1589.19995117188
716.774696216013	1572.80004882813
717.506754723493	1583.59997558594
718.238722140053	1586.19995117188
718.970598473624	1583.19995117188
719.702383732127	1572.59997558594
720.43407792349	1566.80004882813
721.165681055634	1558.40002441406
721.897193136486	1594.59997558594
722.628614173966	1576.59997558594
723.359944175997	1590.40002441406
724.091183150505	1572.59997558594
724.822331105412	1573.19995117188
725.553388048638	1562.19995117188
726.284353988106	1558.59997558594
727.015228931734	1566
727.746012887449	1562.59997558594
728.476705863162	1592.19995117188
729.207307866803	1576.40002441406
729.937818906289	1575.80004882813
730.668238989535	1586.40002441406
731.398568124459	1566.59997558594
732.128806318986	1562.19995117188
732.858953581034	1569.19995117188
733.589009918514	1566.19995117188
734.318975339348	1568
735.048849851452	1571.59997558594
735.778633462744	1556.19995117188
736.508326181137	1548.59997558594
737.237928014549	1556.40002441406
737.967438970897	1556
738.696859058095	1547.40002441406
739.426188284054	1554
740.155426656692	1557.59997558594
740.884574183922	1545.80004882813
741.613630873659	1560.59997558594
742.342596733815	1566.80004882813
743.071471772302	1565.40002441406
743.800255997034	1570.59997558594
744.528949415921	1568.59997558594
745.257552036877	1577.59997558594
745.986063867811	1574.80004882813
746.714484916638	1573.40002441406
747.442815191261	1581.80004882813
748.171054699597	1567.40002441406
748.899203449554	1579.19995117188
749.627261449039	1580.40002441406
750.355228705966	1576.80004882813
751.083105228239	1577.19995117188
751.810891023765	1585.40002441406
752.538586100459	1593
753.266190466218	1606.40002441406
753.99370412896	1616
754.721127096582	1607.59997558594
755.448459377	1602.80004882813
756.175700978114	1601.40002441406
756.902851907828	1594.80004882813
757.629912174055	1593.40002441406
758.356881784688	1572.19995117188
759.083760747639	1578.80004882813
759.810549070817	1564.40002441406
760.537246762113	1580.59997558594
761.263853829442	1594.59997558594
761.990370280698	1608.80004882813
762.716796123791	1593
763.443131366618	1595.19995117188
764.169376017082	1601.80004882813
764.895530083085	1616.40002441406
765.621593572527	1617.80004882813
766.347566493312	1620.80004882813
767.073448853336	1636.40002441406
767.799240660502	1636
768.524941922707	1636.40002441406
769.250552647854	1650.59997558594
769.976072843836	1662.59997558594
770.701502518551	1650.80004882813
771.426841679905	1681.19995117188
772.152090335793	1692.19995117188
772.877248494107	1682.59997558594
773.602316162747	1695
774.327293349609	1690.40002441406
775.052180062592	1712
775.776976309589	1707.40002441406
776.501682098496	1701.59997558594
777.226297437206	1672.19995117188
777.950822333616	1677.80004882813
778.675256795621	1657.40002441406
779.399600831111	1648.19995117188
780.123854447983	1663
780.84801765413	1664
781.572090457441	1649
782.296072865811	1643.40002441406
783.019964887131	1621.19995117188
783.743766529297	1631.59997558594
784.467477800194	1616.19995117188
785.191098707719	1615.19995117188
785.914629259756	1618.59997558594
786.638069464194	1594.40002441406
787.361419328932	1607.19995117188
788.084678861852	1592.40002441406
788.807848070845	1576.19995117188
789.530926963798	1583.40002441406
790.253915548602	1564.19995117188
790.976813833144	1570
791.699621825307	1570.19995117188
792.422339532986	1560.80004882813
793.144966964061	1563.80004882813
793.86750412642	1582.40002441406
794.589951027946	1584.59997558594
795.312307676536	1593.19995117188
796.03457408006	1596.59997558594
796.756750246417	1590.80004882813
797.478836183477	1595.80004882813
798.200831899137	1572
798.92273740127	1583.40002441406
799.644552697769	1567
800.36627779651	1570.40002441406
801.087912705374	1596
801.809457432251	1586.19995117188
802.530911985017	1601.40002441406
803.252276371558	1596.59997558594
803.973550599748	1589.40002441406
804.694734677472	1604.80004882813
805.415828612611	1603.40002441406
806.136832413045	1617
806.857746086646	1604
807.578569641305	1602
808.299303084892	1615.59997558594
809.019946425289	1610.40002441406
809.740499670372	1607.40002441406
810.460962828022	1610.40002441406
811.181335906114	1602.40002441406
811.901618912524	1606.40002441406
812.621811855131	1611.40002441406
813.341914741809	1595.59997558594
814.061927580433	1591.40002441406
814.781850378881	1593.80004882813
815.501683145025	1596
816.221425886743	1613
816.941078611903	1586
817.660641328387	1596
818.380114044065	1587.59997558594
819.099496766808	1579.59997558594
819.818789504492	1576.19995117188
820.53799226499	1580.40002441406
821.257105056168	1557.59997558594
821.976127885904	1575.80004882813
822.695060762064	1590.80004882813
823.413903692525	1607.80004882813
824.132656685151	1621.80004882813
824.851319747817	1619.80004882813
825.569892888388	1609.40002441406
826.288376114739	1641.19995117188
827.006769434737	1629.80004882813
827.725072856249	1612.40002441406
828.443286387142	1595.80004882813
829.161410035285	1600.80004882813
829.87944380855	1594.59997558594
830.597387714798	1591.80004882813
831.315241761898	1600.80004882813
832.033005957715	1612.80004882813
832.750680310119	1623
833.468264826969	1616.59997558594
834.18575951614	1605.80004882813
834.903164385486	1609.40002441406
835.620479442878	1604.40002441406
836.337704696181	1601
837.054840153255	1592.40002441406
837.771885821962	1581.40002441406
838.488841710172	1599
839.20570782574	1597
839.922484176531	1589.40002441406
840.639170770409	1578.19995117188
841.355767615231	1574.80004882813
842.072274718864	1575.40002441406
842.788692089164	1578.59997558594
843.505019733993	1590.40002441406
844.221257661209	1595.40002441406
844.937405878676	1595.19995117188
845.65346439425	1582.80004882813
846.369433215789	1572
847.085312351156	1577.40002441406
847.801101808205	1563.80004882813
848.516801594793	1575.80004882813
849.232411718781	1555
849.947932188021	1557.59997558594
850.663363010376	1572
851.378704193698	1579
852.093955745842	1606.59997558594
852.809117674669	1600
853.524189988028	1597.80004882813
854.239172693778	1612.59997558594
854.954065799768	1603.40002441406
855.668869313857	1580.40002441406
856.383583243899	1583
857.098207597743	1574.19995117188
857.812742383246	1568.80004882813
858.527187608255	1570.59997558594
859.241543280628	1572.19995117188
859.955809408218	1576.59997558594
860.669985998868	1585.59997558594
861.384073060437	1590.59997558594
862.098070600772	1603
862.811978627724	1606.80004882813
863.52579714914	1613.40002441406
864.239526172873	1594.59997558594
864.953165706776	1599.80004882813
865.666715758687	1599.59997558594
866.380176336464	1578.80004882813
867.093547447951	1571.19995117188
867.806829100996	1579.19995117188
868.520021303444	1585.40002441406
869.233124063149	1564.80004882813
869.94613738795	1544.19995117188
870.659061285693	1555.80004882813
871.37189576423	1566.80004882813
872.084640831403	1575.80004882813
872.797296495057	1592
873.509862763039	1605.59997558594
874.22233964319	1588
874.934727143353	1570.59997558594
875.647025271374	1559.59997558594
876.359234035097	1574.59997558594
877.071353442361	1575.59997558594
877.783383501015	1562.59997558594
878.495324218895	1570.19995117188
879.207175603844	1557.19995117188
879.918937663705	1586
880.630610406318	1580.59997558594
881.342193839524	1587
882.053687971161	1593.80004882813
882.765092809069	1612.19995117188
883.476408361091	1586.80004882813
884.187634635066	1573.40002441406
884.898771638828	1576.80004882813
885.609819380221	1575.19995117188
886.320777867076	1569.59997558594
887.031647107236	1570.40002441406
887.742427108536	1569.80004882813
888.453117878816	1574
889.16371942591	1572.40002441406
889.874231757652	1581.80004882813
890.584654881883	1580.80004882813
891.294988806434	1572.19995117188
892.005233539141	1584.80004882813
892.715389087837	1575.80004882813
893.42545546036	1592.19995117188
894.135432664543	1581
894.845320708216	1604
895.555119599216	1591
896.264829345375	1607.59997558594
896.974449954526	1618.40002441406
897.683981434496	1601
898.393423793125	1604.59997558594
899.102777038235	1622.80004882813
899.812041177664	1613.40002441406
900.521216219239	1600.80004882813
901.230302170793	1585.80004882813
901.939299040155	1610.80004882813
902.64820683515	1610.59997558594
903.357025563612	1600.59997558594
904.065755233368	1594
904.774395852247	1592
905.482947428076	1588.40002441406
906.191409968682	1592.19995117188
906.899783481897	1608.59997558594
907.608067975538	1593.80004882813
908.316263457443	1593.80004882813
909.02436993543	1603.19995117188
909.732387417327	1589.80004882813
910.440315910959	1594.80004882813
911.148155424154	1589.80004882813
911.855905964731	1605.59997558594
912.563567540521	1603.80004882813
913.271140159339	1604.80004882813
913.978623829017	1594.19995117188
914.686018557374	1589
915.393324352237	1582.80004882813
916.100541221421	1580.40002441406
916.807669172752	1581
917.514708214054	1589.19995117188
918.221658353142	1581.40002441406
918.928519597843	1572.59997558594
919.635291955976	1568.80004882813
920.341975435358	1571.80004882813
921.048570043813	1579.59997558594
921.75507578916	1604.80004882813
922.461492679212	1601.59997558594
923.167820721795	1623
923.874059924726	1621.59997558594
924.58021029582	1602
925.286271842893	1610
925.992244573769	1625.19995117188
926.698128496262	1617.59997558594
927.403923618184	1600.59997558594
928.109629947355	1594
928.815247491593	1595.19995117188
929.520776258708	1607
930.226216256519	1605.80004882813
930.931567492841	1604.80004882813
931.636829975482	1591.40002441406
932.342003712263	1597
933.047088710995	1585.80004882813
933.752084979491	1590.80004882813
934.456992525564	1574
935.161811357024	1585
935.866541481688	1580.19995117188
936.571182907363	1559
937.275735641861	1550.40002441406
937.980199692995	1557.19995117188
938.684575068572	1545.19995117188
939.388861776411	1555.80004882813
940.093059824311	1570.19995117188
940.797169220085	1567.19995117188
941.501189971544	1561.19995117188
942.205122086495	1560.59997558594
942.908965572751	1540.40002441406
943.612720438111	1550.19995117188
944.316386690391	1555
945.019964337391	1555
945.723453386924	1570.19995117188
946.426853846795	1564.59997558594
947.130165724808	1560.40002441406
947.83338902877	1576.59997558594
948.536523766488	1562.80004882813
949.239569945764	1577.40002441406
949.942527574402	1572.40002441406
950.64539666021	1561.80004882813
951.348177210993	1551.59997558594
952.050869234548	1544.19995117188
952.753472738683	1548.59997558594
953.455987731199	1534.80004882813
954.158414219898	1557.19995117188
954.860752212587	1558.40002441406
955.563001717061	1542.59997558594
956.265162741124	1552.80004882813
956.967235292576	1551.59997558594
957.669219379224	1538
958.371115008857	1536.59997558594
959.072922189283	1528.80004882813
959.774640928301	1541.19995117188
960.476271233708	1528.40002441406
961.177813113301	1533
961.879266574882	1541.19995117188
962.580631626248	1542.19995117188
963.281908275194	1545.59997558594
963.98309652952	1538
964.684196397022	1536.19995117188
965.3852078855	1555.40002441406
966.086131002745	1574.19995117188
966.786965756555	1574.40002441406
967.487712154726	1560.80004882813
968.188370205055	1557.80004882813
968.888939915331	1558.40002441406
969.589421293352	1555.59997558594
970.289814346909	1568.40002441406
970.990119083801	1576
971.690335511819	1582.80004882813
972.39046363875	1586.59997558594
973.090503472398	1583.80004882813
973.790455020545	1568
974.490318290987	1558.80004882813
975.190093291516	1560.80004882813
975.889780029923	1556.80004882813
976.589378513998	1551.19995117188
977.288888751527	1563.40002441406
977.988310750308	1575
978.687644518122	1578.19995117188
979.386890062767	1571.19995117188
980.086047392025	1563.59997558594
980.785116513689	1551.40002441406
981.484097435542	1560.59997558594
982.182990165377	1558.59997558594
982.88179471098	1554
983.580511080137	1537.59997558594
984.279139280632	1539.19995117188
984.977679320253	1535.80004882813
985.67613120679	1522.80004882813
986.374494948027	1545
987.072770551745	1546
987.770958025731	1557.59997558594
988.469057377772	1543.80004882813
989.167068615649	1537
989.864991747145	1536.59997558594
990.562826780047	1554.59997558594
991.260573722134	1545.19995117188
991.958232581195	1547.80004882813
992.655803365003	1557.59997558594
993.353286081346	1553
994.050680738006	1548.80004882813
994.74798734276	1568.59997558594
995.44520590339	1577.80004882813
996.142336427681	1547.59997558594
996.839378923407	1551.59997558594
997.536333398348	1553
998.233199860289	1560.80004882813
998.929978317004	1549
999.626668776274	1539
1000.32327124587	1545
1001.01978573359	1539
1001.71621224718	1527.19995117188
1002.41255079445	1526.19995117188
1003.10880138315	1528.19995117188
1003.80496402107	1537.40002441406
1004.50103871599	1549.19995117188
1005.19702547567	1554.40002441406
1005.8929243079	1581.59997558594
1006.58873522045	1575.19995117188
1007.2844582211	1584.40002441406
1007.98009331761	1587
1008.67564051776	1590.80004882813
1009.37109982933	1583
1010.06647126009	1579.40002441406
1010.7617548178	1573.59997558594
1011.45695051026	1570.59997558594
1012.15205834522	1563.59997558594
1012.84707833045	1561.40002441406
1013.54201047373	1578.19995117188
1014.23685478284	1566.80004882813
1014.93161126553	1560.80004882813
1015.62627992959	1569.40002441406
1016.32086078277	1569
1017.01535383285	1564.19995117188
1017.70975908761	1564.59997558594
1018.40407655479	1570.80004882813
1019.09830624219	1566.59997558594
1019.79244815755	1571.59997558594
1020.48650230866	1570.19995117188
1021.18046870328	1571.80004882813
1021.87434734917	1585.40002441406
1022.56813825411	1580
1023.26184142584	1584
1023.95545687216	1590.80004882813
1024.64898460082	1571.40002441406
1025.34242461957	1564.59997558594
1026.0357769362	1566.80004882813
1026.72904155846	1566.40002441406
1027.42221849412	1559.40002441406
1028.11530775094	1563
1028.80830933668	1563.80004882813
1029.50122325911	1565.19995117188
1030.19404952599	1569.19995117188
1030.88678814508	1564.19995117188
1031.57943912414	1563.59997558594
1032.27200247093	1544
1032.96447819323	1545
1033.65686629878	1529.80004882813
1034.34916679534	1536.59997558594
1035.04137969068	1540.80004882813
1035.73350499256	1554.40002441406
1036.42554270874	1562.19995117188
1037.11749284697	1539
1037.80935541501	1542.19995117188
1038.50113042062	1544.59997558594
1039.19281787156	1542
1039.88441777559	1544.19995117188
1040.57593014046	1559.59997558594
1041.26735497393	1551.40002441406
1041.95869228376	1547.59997558594
1042.6499420777	1545
1043.3411043635	1551.19995117188
1044.03217914893	1552.19995117188
1044.72316644174	1550
1045.41406624968	1560.19995117188
1046.1048785805	1544.19995117188
1046.79560344197	1559.59997558594
1047.48624084182	1559.80004882813
1048.17679078783	1546
1048.86725328774	1545.59997558594
1049.55762834929	1533.19995117188
1050.24791598025	1526.80004882813
1050.93811618837	1527.80004882813
1051.62822898139	1537.19995117188
1052.31825436707	1528
1053.00819235315	1539
1053.6980429474	1542.80004882813
1054.38780615755	1554.19995117188
1055.07748199136	1553.80004882813
1055.76707045658	1536.40002441406
1056.45657156095	1530.59997558594
1057.14598531222	1527
1057.83531171814	1544.59997558594
1058.52455078646	1531.19995117188
1059.21370252494	1537.80004882813
1059.90276694129	1544.80004882813
1060.5917440433	1544.40002441406
1061.28063383868	1555.80004882813
1061.9694363352	1546.40002441406
1062.65815154059	1551.59997558594
1063.34677946261	1554.40002441406
1064.03532010899	1542.40002441406
1064.72377348748	1540
1065.41213960583	1520.59997558594
1066.10041847177	1539.40002441406
1066.78861009306	1532.19995117188
1067.47671447743	1531.19995117188
1068.16473163263	1523.59997558594
1068.85266156639	1542
1069.54050428647	1547.59997558594
1070.2282598006	1550.40002441406
1070.91592811652	1548
1071.60350924198	1543.80004882813
1072.29100318471	1530.80004882813
1072.97840995245	1535.59997558594
1073.66572955295	1528.59997558594
1074.35296199394	1538.40002441406
1075.04010728316	1545.80004882813
1075.72716542836	1544.59997558594
1076.41413643726	1544
1077.10102031761	1535
1077.78781707715	1530.59997558594
1078.4745267236	1532.40002441406
1079.16114926471	1525.40002441406
1079.84768470822	1534
1080.53413306185	1527.40002441406
1081.22049433336	1538.80004882813
1081.90676853046	1540
1082.5929556609	1545.19995117188
1083.27905573241	1556.59997558594
1083.96506875272	1559.40002441406
1084.65099472957	1544.40002441406
1085.3368336707	1543.19995117188
1086.02258558383	1549
1086.70825047669	1527.40002441406
1087.39382835703	1532.80004882813
1088.07931923257	1530.19995117188
1088.76472311104	1534
1089.45004000018	1529
1090.13526990771	1544.40002441406
1090.82041284137	1544
1091.50546880889	1541
1092.19043781799	1532
1092.87531987642	1513.59997558594
1093.56011499188	1527.19995117188
1094.24482317212	1519
1094.92944442486	1515
1095.61397875783	1514.80004882813
1096.29842617876	1511.59997558594
1096.98278669537	1523.80004882813
1097.6670603154	1524.80004882813
1098.35124704656	1524
1099.03534689659	1525.40002441406
1099.71935987322	1517
1100.40328598416	1540.80004882813
1101.08712523713	1545.19995117188
1101.77087763988	1541.40002441406
1102.45454320012	1529.40002441406
1103.13812192557	1535.59997558594
1103.82161382396	1518.19995117188
1104.50501890301	1526
1105.18833717045	1529
1105.87156863399	1522.40002441406
1106.55471330137	1548
1107.2377711803	1554.19995117188
1107.9207422785	1543.59997558594
1108.60362660369	1550
1109.2864241636	1561
1109.96913496594	1549
1110.65175901844	1532.40002441406
1111.33429632882	1524.80004882813
1112.01674690479	1551
1112.69911075408	1533.40002441406
1113.38138788439	1526.40002441406
1114.06357830346	1509.19995117188
1114.745682019	1521.40002441406
1115.42769903872	1525.59997558594
1116.10962937035	1538.40002441406
1116.7914730216	1550.80004882813
1117.47323000018	1558.19995117188
1118.15490031382	1566
1118.83648397022	1568.19995117188
1119.51798097712	1557.19995117188
1120.1993913422	1542.59997558594
1120.88071507321	1525.19995117188
1121.56195217784	1535
1122.24310266381	1514.19995117188
1122.92416653884	1509.40002441406
1123.60514381064	1530.59997558594
1124.28603448692	1526
1124.9668385754	1522.59997558594
1125.64755608378	1541.80004882813
1126.32818701978	1548.40002441406
1127.00873139111	1537.80004882813
1127.68918920548	1542
1128.3695604706	1551.80004882813
1129.04984519419	1546.59997558594
1129.73004338394	1541.40002441406
1130.41015504758	1543.59997558594
1131.09018019281	1540.40002441406
1131.77011882734	1544.80004882813
1132.44997095888	1535.59997558594
1133.12973659514	1549.40002441406
1133.80941574381	1544.80004882813
1134.48900841263	1541.80004882813
1135.16851460927	1542.80004882813
1135.84793434147	1533
1136.52726761692	1530.40002441406
1137.20651444333	1525.40002441406
1137.8856748284	1515.19995117188
1138.56474877984	1530.40002441406
1139.24373630536	1516.80004882813
1139.92263741265	1528.40002441406
1140.60145210943	1532.59997558594
1141.28018040339	1535
1141.95882230225	1539.40002441406
1142.6373778137	1526.19995117188
1143.31584694545	1528
1143.99422970519	1525.59997558594
1144.67252610064	1545.19995117188
1145.35073613949	1535.80004882813
1146.02885982944	1500.40002441406
1146.7068971782	1501.40002441406
1147.38484819347	1503.80004882813
1148.06271288294	1496.40002441406
1148.74049125432	1505.80004882813
1149.41818331531	1534.19995117188
1150.0957890736	1526.19995117188
1150.77330853689	1525.19995117188
1151.45074171289	1517
1152.12808860928	1525.40002441406
1152.80534923378	1517.40002441406
1153.48252359407	1504.19995117188
1154.15961169786	1494.40002441406
1154.83661355283	1492.40002441406
1155.51352916669	1506.80004882813
1156.19035854713	1502.19995117188
1156.86710170185	1508.80004882813
1157.54375863855	1502
1158.22032936491	1517.19995117188
1158.89681388863	1507.19995117188
1159.57321221741	1520.40002441406
1160.24952435894	1514.59997558594
1160.92575032092	1530.40002441406
1161.60189011103	1520.19995117188
1162.27794373697	1526.40002441406
1162.95391120644	1511.80004882813
1163.62979252712	1517.80004882813
1164.3055877067	1511
1164.98129675288	1512.40002441406
1165.65691967336	1515
1166.33245647581	1518.80004882813
1167.00790716792	1536.59997558594
1167.6832717574	1541.59997558594
1168.35855025193	1537.19995117188
1169.0337426592	1539.40002441406
1169.70884898689	1520
1170.3838692427	1508.19995117188
1171.05880343431	1495
1171.73365156941	1510.80004882813
1172.40841365569	1523.19995117188
1173.08308970083	1531.59997558594
1173.75767971253	1529.59997558594
1174.43218369847	1536
1175.10660166633	1513.59997558594
1175.7809336238	1516.19995117188
1176.45517957857	1499.19995117188
1177.12933953832	1503.40002441406
1177.80341351073	1503.19995117188
1178.47740150349	1506.59997558594
1179.15130352429	1533.19995117188
1179.8251195808	1544.19995117188
1180.49884968071	1544.19995117188
1181.1724938317	1543.80004882813
1181.84605204145	1548.80004882813
1182.51952431766	1530.59997558594
1183.19291066799	1532.80004882813
1183.86621110013	1551.59997558594
1184.53942562176	1556.40002441406
1185.21255424057	1553.40002441406
1185.88559696422	1554.19995117188
1186.55855380041	1559
1187.2314247568	1528.40002441406
1187.90420984109	1543.59997558594
1188.57690906095	1544.80004882813
1189.24952242405	1548.19995117188
1189.92204993808	1558.80004882813
1190.59449161071	1554.59997558594
1191.26684744962	1547
1191.93911746249	1543.59997558594
1192.61130165699	1544.40002441406
1193.28340004081	1521.19995117188
1193.95541262161	1539.19995117188
1194.62733940707	1536.59997558594
1195.29918040487	1543
1195.97093562269	1540.59997558594
1196.64260506819	1551.40002441406
1197.31418874905	1538
1197.98568667295	1522.19995117188
1198.65709884755	1535.40002441406
1199.32842528053	1527.80004882813
1199.99966597957	1518.19995117188
1200.67082095234	1506.40002441406
1201.3418902065	1492.59997558594
1202.01287374974	1496.59997558594
1202.68377158971	1505.19995117188
1203.3545837341	1514.19995117188
1204.02531019057	1512
1204.6959509668	1500.59997558594
1205.36650607045	1503.80004882813
1206.03697550919	1510.59997558594
1206.70735929069	1515
1207.37765742263	1515.40002441406
1208.04786991266	1523.40002441406
1208.71799676846	1512.40002441406
1209.38803799769	1518.19995117188
1210.05799360803	1513.59997558594
1210.72786360714	1511
1211.39764800268	1497.59997558594
1212.06734680233	1493
1212.73696001375	1498
1213.4064876446	1494.19995117188
1214.07592970255	1508.40002441406
1214.74528619526	1493.19995117188
1215.4145571304	1499.40002441406
1216.08374251564	1483.19995117188
1216.75284235863	1493
1217.42185666704	1487
1218.09078544854	1495
1218.75962871078	1491.40002441406
1219.42838646143	1488.19995117188
1220.09705870816	1481.40002441406
1220.76564545861	1487.40002441406
1221.43414672046	1494.19995117188
1222.10256250136	1513.40002441406
1222.77089280898	1502.40002441406
1223.43913765098	1504.59997558594
1224.107297035	1506.40002441406
1224.77537096873	1496.59997558594
1225.44335945981	1502.80004882813
1226.1112625159	1503.19995117188
1226.77908014467	1494.19995117188
1227.44681235376	1489.40002441406
1228.11445915085	1507
1228.78202054357	1505.80004882813
1229.44949653961	1492
1230.11688714659	1485.80004882813
1230.7841923722	1493.40002441406
1231.45141222407	1476.80004882813
1232.11854670988	1498.19995117188
1232.78559583726	1491.80004882813
1233.45255961388	1484.19995117188
1234.1194380474	1494.80004882813
1234.78623114546	1494.80004882813
1235.45293891572	1492.40002441406
1236.11956136583	1493.59997558594
1236.78609850345	1487
1237.45255033623	1505.40002441406
1238.11891687182	1498
1238.78519811788	1487
1239.45139408205	1488
1240.11750477198	1481
1240.78353019534	1491
1241.44947035976	1483.19995117188
1242.11532527291	1480.40002441406
1242.78109494242	1477.80004882813
1243.44677937595	1471.80004882813
1244.11237858115	1487.59997558594
1244.77789256567	1464.80004882813
1245.44332133715	1481.80004882813
1246.10866490325	1486
1246.7739232716	1482.80004882813
1247.43909644987	1477.40002441406
1248.10418444569	1499.19995117188
1248.76918726671	1489.80004882813
1249.43410492059	1494
1250.09893741496	1491.80004882813
1250.76368475747	1483.19995117188
1251.42834695576	1477.59997558594
1252.09292401749	1483.40002441406
1252.75741595029	1493
1253.42182276182	1494.19995117188
1254.08614445971	1506.40002441406
1254.75038105161	1502.59997558594
1255.41453254515	1495
1256.07859894799	1488.80004882813
1256.74258026777	1475.59997558594
1257.40647651213	1477.40002441406
1258.0702876887	1474.40002441406
1258.73401380514	1471.80004882813
1259.39765486908	1466.40002441406
1260.06121088817	1469.40002441406
1260.72468187004	1499.19995117188
1261.38806782233	1488.59997558594
1262.05136875269	1491
1262.71458466875	1494.80004882813
1263.37771557815	1486.40002441406
1264.04076148854	1487
1264.70372240753	1466.59997558594
1265.3665983428	1474.59997558594
1266.02938930195	1477.59997558594
1266.69209529263	1478.59997558594
1267.35471632249	1482.40002441406
1268.01725239914	1482.80004882813
1268.67970353024	1477.80004882813
1269.34206972342	1474
1270.00435098631	1464.80004882813
1270.66654732655	1462.80004882813
1271.32865875177	1460
1271.9906852696	1476.40002441406
1272.65262688768	1469.59997558594
1273.31448361365	1494.19995117188
1273.97625545514	1511
1274.63794241978	1500
1275.2995445152	1489.19995117188
1275.96106174903	1501.19995117188
1276.62249412892	1499.40002441406
1277.28384166248	1502.59997558594
1277.94510435735	1496.19995117188
1278.60628222116	1491.40002441406
1279.26737526155	1485.40002441406
1279.92838348613	1466
1280.58930690255	1480.59997558594
1281.25014551842	1480
1281.91089934139	1469
1282.57156837907	1485.40002441406
1283.2321526391	1486
1283.89265212911	1486.80004882813
1284.55306685671	1481.80004882813
1285.21339682955	1462.59997558594
1285.87364205525	1461.80004882813
1286.53380254142	1443
1287.19387829571	1442.19995117188
1287.85386932573	1440
1288.51377563911	1447.80004882813
1289.17359724348	1460
1289.83333414646	1470.80004882813
1290.49298635567	1481.40002441406
1291.15255387874	1474
1291.8120367233	1472
1292.47143489696	1462.59997558594
1293.13074840736	1461.59997558594
1293.7899772621	1464.59997558594
1294.44912146882	1475.59997558594
1295.10818103513	1473.59997558594
1295.76715596866	1470
1296.42604627704	1468
1297.08485196787	1478.80004882813
1297.74357304878	1473.19995117188
1298.4022095274	1474.40002441406
1299.06076141134	1488.80004882813
1299.71922870821	1500.19995117188
1300.37761142565	1496.59997558594
1301.03590957126	1500.59997558594
1301.69412315268	1468.59997558594
1302.3522521775	1483.59997558594
1303.01029665336	1462
1303.66825658787	1487.40002441406
1304.32613198865	1488
1304.98392286332	1494
1305.64162921948	1487.40002441406
1306.29925106476	1477.80004882813
1306.95678840677	1487.80004882813
1307.61424125312	1497.40002441406
1308.27160961145	1485.80004882813
1308.92889348934	1495.40002441406
1309.58609289443	1497
1310.24320783432	1487.59997558594
1310.90023831664	1489
1311.55718434898	1486.80004882813
1312.21404593897	1476
1312.87082309421	1472.19995117188
1313.52751582233	1490.59997558594
1314.18412413092	1478.19995117188
1314.84064802761	1493.19995117188
1315.49708752	1510
1316.1534426157	1513.40002441406
1316.80971332233	1499.80004882813
1317.46589964749	1516.80004882813
1318.1220015988	1514.59997558594
1318.77801918386	1516.40002441406
1319.43395241028	1510.80004882813
1320.08980128567	1493.80004882813
1320.74556581764	1502
1321.4012460138	1493.40002441406
1322.05684188176	1498.40002441406
1322.71235342911	1488.19995117188
1323.36778066347	1490.80004882813
1324.02312359245	1476
1324.67838222365	1495.40002441406
1325.33355656468	1487.40002441406
1325.98864662314	1497
1326.64365240663	1498
1327.29857392277	1484
1327.95341117915	1478.59997558594
1328.60816418339	1468
1329.26283294308	1494.80004882813
1329.91741746582	1471.59997558594
1330.57191775923	1479.40002441406
1331.2263338309	1459.59997558594
1331.88066568843	1468.80004882813
1332.53491333943	1469.80004882813
1333.1890767915	1463
1333.84315605224	1469.59997558594
1334.49715112925	1477.80004882813
1335.15106203013	1478.19995117188
1335.80488876249	1477
1336.45863133391	1460.40002441406
1337.112289752	1453.19995117188
1337.76586402437	1440.80004882813
1338.4193541586	1457.59997558594
1339.0727601623	1463.59997558594
1339.72608204306	1475
1340.37931980849	1483.59997558594
1341.03247346617	1475.19995117188
1341.68554302372	1481.59997558594
1342.33852848871	1471
1342.99142986876	1476.40002441406
1343.64424717145	1474
1344.29698040438	1501.80004882813
1344.94962957515	1495.59997558594
1345.60219469135	1510.59997558594
1346.25467576058	1505.80004882813
1346.90707279042	1498.40002441406
1347.55938578848	1490.59997558594
1348.21161476235	1503.80004882813
1348.86375971962	1497.40002441406
1349.51582066787	1498.40002441406
1350.16779761472	1509.59997558594
1350.81969056774	1513.59997558594
1351.47149953453	1510
1352.12322452269	1505.59997558594
1352.77486553979	1524.59997558594
1353.42642259344	1507.59997558594
1354.07789569122	1521
1354.72928484072	1518.59997558594
1355.38059004953	1523.40002441406
1356.03181132525	1556.19995117188
1356.68294867545	1535.40002441406
1357.33400210773	1530.59997558594
1357.98497162968	1542.59997558594
1358.63585724889	1526.19995117188
1359.28665897294	1521.59997558594
1359.93737680942	1526.80004882813
1360.58801076591	1538.80004882813
1361.23856085001	1534.80004882813
1361.88902706929	1542.40002441406
1362.53940943135	1555.80004882813
1363.18970794377	1567
1363.83992261413	1568.80004882813
1364.49005345003	1566.19995117188
1365.14010045904	1574.19995117188
1365.79006364874	1575.40002441406
1366.43994302673	1557.59997558594
1367.08973860058	1572.19995117188
1367.73945037788	1548.19995117188
1368.38907836621	1553.40002441406
1369.03862257315	1550.19995117188
1369.68808300629	1531.80004882813
1370.3374596732	1523.59997558594
1370.98675258148	1520.80004882813
1371.63596173868	1525.40002441406
1372.28508715241	1515
1372.93412883024	1502.40002441406
1373.58308677974	1500.19995117188
1374.2319610085	1493
1374.8807515241	1472.80004882813
1375.52945833412	1477.59997558594
1376.17808144612	1463.40002441406
1376.82662086771	1455.19995117188
1377.47507660644	1457.80004882813
1378.12344866989	1454.19995117188
1378.77173706565	1460.80004882813
1379.41994180129	1455.19995117188
1380.06806288439	1464.80004882813
1380.71610032252	1476
1381.36405412326	1458.80004882813
1382.01192429419	1476
1382.65971084287	1473.59997558594
1383.30741377688	1475
1383.95503310381	1472.40002441406
1384.60256883121	1473
1385.25002096667	1479.19995117188
1385.89738951775	1465.19995117188
1386.54467449204	1472.59997558594
1387.19187589709	1463.59997558594
1387.8389937405	1453.80004882813
1388.48602802982	1441
1389.13297877262	1448.40002441406
1389.77984597649	1460.80004882813
1390.42662964899	1457.59997558594
1391.07332979768	1452.19995117188
1391.71994643015	1466.19995117188
1392.36647955395	1466.40002441406
1393.01292917667	1458
1393.65929530586	1464.19995117188
1394.3055779491	1472.59997558594
1394.95177711395	1468.59997558594
1395.59789280799	1457.19995117188
1396.24392503877	1452.80004882813
1396.88987381387	1450
1397.53573914086	1444.59997558594
1398.1815210273	1453
1398.82721948075	1452
1399.47283450878	1450.40002441406
1400.11836611897	1449
1400.76381431886	1446.40002441406
1401.40917911603	1445.59997558594
1402.05446051805	1415.40002441406
1402.69965853247	1405
1403.34477316686	1410.80004882813
1403.98980442878	1415.80004882813
1404.6347523258	1412.19995117188
1405.27961686548	1420
1405.92439805538	1421
1406.56909590306	1423.80004882813
1407.21371041608	1402
1407.85824160202	1422.59997558594
1408.50268946841	1433.40002441406
1409.14705402284	1433
1409.79133527285	1436.40002441406
1410.43553322601	1434.80004882813
1411.07964788987	1439
1411.723679272	1436
1412.36762737996	1437.40002441406
1413.01149222129	1433.59997558594
1413.65527380357	1435.40002441406
1414.29897213435	1432.80004882813
1414.94258722118	1413.19995117188
1415.58611907163	1426.59997558594
1416.22956769325	1420
1416.87293309359	1417.80004882813
1417.51621528021	1415.40002441406
1418.15941426067	1422.80004882813
1418.80253004253	1427.80004882813
1419.44556263333	1429.80004882813
1420.08851204063	1447.59997558594
1420.731378272	1433.40002441406
1421.37416133497	1431
1422.0168612371	1445.19995117188
1422.65947798596	1442.19995117188
1423.30201158908	1450.40002441406
1423.94446205403	1437.40002441406
1424.58682938835	1442
1425.2291135996	1433.19995117188
1425.87131469532	1442.40002441406
1426.51343268308	1452.40002441406
1427.15546757042	1449.40002441406
1427.79741936488	1432.19995117188
1428.43928807403	1424.19995117188
1429.0810737054	1420.19995117188
1429.72277626656	1414.80004882813
1430.36439576504	1415.19995117188
1431.00593220841	1414
1431.64738560419	1425.59997558594
1432.28875595995	1411.19995117188
1432.93004328324	1413.80004882813
1433.57124758159	1419.80004882813
1434.21236886255	1414.59997558594
1434.85340713368	1415
1435.49436240252	1412.80004882813
1436.13523467661	1418.80004882813
1436.77602396349	1430.40002441406
1437.41673027073	1426
1438.05735360585	1421
1438.69789397641	1410.19995117188
1439.33835138994	1413
1439.978725854	1413.19995117188
1440.61901737612	1421
1441.25922596385	1420.59997558594
1441.89935162473	1425.19995117188
1442.53939436631	1415.19995117188
1443.17935419612	1413.19995117188
1443.81923112171	1405.59997558594
1444.45902515061	1412.40002441406
1445.09873629038	1413.19995117188
1445.73836454854	1413
1446.37790993265	1420.59997558594
1447.01737245024	1423.19995117188
1447.65675210885	1428
1448.29604891602	1418.59997558594
1448.93526287928	1417.80004882813
1449.57439400618	1406
1450.21344230426	1409.19995117188
1450.85240778105	1401.19995117188
1451.49129044409	1407.19995117188
1452.13009030092	1418.59997558594
1452.76880735907	1413
1453.40744162608	1418
1454.04599310949	1425
1454.68446181683	1429.59997558594
1455.32284775564	1435.40002441406
1455.96115093345	1441.80004882813
1456.5993713578	1435.80004882813
1457.23750903623	1425.59997558594
1457.87556397626	1411
1458.51353618543	1410.59997558594
1459.15142567127	1408.19995117188
1459.78923244132	1408.19995117188
1460.42695650311	1406.59997558594
1461.06459786417	1414.59997558594
1461.70215653203	1419.59997558594
1462.33963251423	1410.19995117188
1462.97702581829	1403.19995117188
1463.61433645175	1394.19995117188
1464.25156442214	1411.40002441406
1464.88870973699	1409.40002441406
1465.52577240382	1416.59997558594
1466.16275243017	1411.40002441406
1466.79964982356	1401.40002441406
1467.43646459154	1406.40002441406
1468.07319674161	1407.80004882813
1468.70984628132	1414
1469.34641321818	1413.40002441406
1469.98289755974	1414
1470.6192993135	1406.80004882813
1471.25561848701	1415.59997558594
1471.89185508779	1397.80004882813
1472.52800912336	1405.59997558594
1473.16408060124	1402
1473.80006952897	1391.59997558594
1474.43597591407	1393
1475.07179976406	1397.40002441406
1475.70754108647	1400.19995117188
1476.34319988883	1401.19995117188
1476.97877617865	1399
1477.61426996345	1412
1478.24968125077	1421.40002441406
1478.88501004812	1428
1479.52025636303	1430.40002441406
1480.15542020302	1444.80004882813
1480.79050157561	1427
1481.42550048832	1430
1482.06041694867	1426.40002441406
1482.69525096418	1439.40002441406
1483.33000254237	1442.59997558594
1483.96467169077	1433.59997558594
1484.59925841689	1415.19995117188
1485.23376272825	1415.19995117188
1485.86818463237	1416.59997558594
1486.50252413677	1423.19995117188
1487.13678124896	1400.19995117188
1487.77095597646	1395.59997558594
1488.4050483268	1405.80004882813
1489.03905830749	1399.40002441406
1489.67298592604	1400.40002441406
1490.30683118996	1406
1490.9405941068	1415
1491.57427468403	1401.59997558594
1492.2078729292	1419.80004882813
1492.84138884981	1425.80004882813
1493.47482245338	1426.19995117188
1494.10817374742	1426.59997558594
1494.74144273944	1441
1495.37462943696	1424.59997558594
1496.0077338475	1439
1496.64075597856	1436.59997558594
1497.27369583765	1422.80004882813
1497.9065534323	1423.59997558594
1498.53932877001	1409
1499.17202185829	1412.40002441406
1499.80463270465	1395.40002441406
1500.43716131661	1404.59997558594
1501.06960770167	1400.19995117188
1501.70197186735	1380.19995117188
1502.33425382116	1393.59997558594
1502.96645357059	1415.19995117188
1503.59857112317	1412.19995117188
1504.23060648641	1416.80004882813
1504.8625596678	1422
1505.49443067486	1409.59997558594
1506.1262195151	1425
1506.75792619602	1430.40002441406
1507.38955072513	1436
1508.02109310993	1440.19995117188
1508.65255335794	1428.80004882813
1509.28393147666	1435.80004882813
1509.91522747359	1435
1510.54644135624	1417.59997558594
1511.17757313212	1431.80004882813
1511.80862280872	1448
1512.43959039356	1441.59997558594
1513.07047589413	1454.19995117188
1513.70127931795	1432.59997558594
1514.33200067251	1432
1514.96263996531	1429.80004882813
1515.59319720386	1414.80004882813
1516.22367239567	1391.80004882813
1516.85406554822	1396.19995117188
1517.48437666903	1393
1518.1146057656	1408.19995117188
1518.74475284542	1411.59997558594
1519.374817916	1403.19995117188
1520.00480098483	1402.80004882813
1520.63470205942	1397
1521.26452114726	1399.40002441406
1521.89425825586	1397.80004882813
1522.52391339271	1406
1523.15348656531	1409.19995117188
1523.78297778116	1413.40002441406
1524.41238704775	1392.59997558594
1525.04171437259	1396
1525.67095976317	1392.19995117188
1526.30012322699	1386.19995117188
1526.92920477154	1387.40002441406
1527.55820440432	1381.59997558594
1528.18712213283	1375.59997558594
1528.81595796455	1379.59997558594
1529.44471190699	1368
1530.07338396764	1357.19995117188
1530.70197415399	1351.59997558594
1531.33048247353	1351.19995117188
1531.95890893377	1359
1532.58725354219	1367
1533.21551630629	1372.40002441406
1533.84369723356	1390.80004882813
1534.47179633148	1386
1535.09981360757	1402
1535.72774906929	1401
1536.35560272415	1407.19995117188
1536.98337457963	1409.80004882813
1537.61106464323	1411.80004882813
1538.23867292243	1413.40002441406
1538.86619942473	1402.59997558594
1539.49364415762	1398.59997558594
1540.12100712857	1405.80004882813
1540.74828834509	1398
1541.37548781466	1396.40002441406
1542.00260554478	1389.59997558594
1542.62964154291	1383
1543.25659581655	1376
1543.8834683732	1384.40002441406
1544.51025922034	1379.59997558594
1545.13696836544	1378.19995117188
1545.76359581601	1378.40002441406
1546.39014157952	1369.40002441406
1547.01660566345	1359.80004882813
1547.64298807531	1375
1548.26928882255	1369.59997558594
1548.89550791269	1369.19995117188
1549.52164535318	1370.80004882813
1550.14770115153	1373.59997558594
1550.77367531521	1372.59997558594
1551.39956785171	1374.40002441406
1552.0253787685	1387.19995117188
1552.65110807307	1389.59997558594
1553.2767557729	1393.59997558594
1553.90232187548	1380.59997558594
1554.52780638828	1371.40002441406
1555.15320931879	1370.40002441406
1555.77853067447	1377.59997558594
1556.40377046282	1376.80004882813
1557.02892869132	1366.59997558594
1557.65400536744	1376.19995117188
1558.27900049866	1363
1558.90391409247	1374.80004882813
1559.52874615633	1378.59997558594
1560.15349669773	1385.40002441406
1560.77816572414	1389
1561.40275324305	1388.40002441406
1562.02725926192	1398.40002441406
1562.65168378824	1394.59997558594
1563.27602682948	1396.40002441406
1563.90028839311	1377.80004882813
1564.52446848662	1403.59997558594
1565.14856711748	1386.59997558594
1565.77258429316	1394.19995117188
1566.39652002113	1382
1567.02037430887	1393.19995117188
1567.64414716387	1403.59997558594
1568.26783859357	1383
1568.89144860547	1387.80004882813
1569.51497720703	1394.40002441406
1570.13842440573	1397
1570.76179020904	1401.40002441406
1571.38507462442	1414.40002441406
1572.00827765936	1396
1572.63139932132	1388.40002441406
1573.25443961777	1398.80004882813
1573.87739855618	1386.40002441406
1574.50027614402	1383.59997558594
1575.12307238877	1382
1575.74578729789	1397.59997558594
1576.36842087885	1383
1576.99097313912	1400.80004882813
1577.61344408616	1396.40002441406
1578.23583372745	1386.59997558594
1578.85814207046	1387
1579.48036912264	1377
1580.10251489147	1372.19995117188
1580.72457938441	1373.59997558594
1581.34656260893	1369.19995117188
1581.9684645725	1372.40002441406
1582.59028528258	1370.19995117188
1583.21202474663	1377.59997558594
1583.83368297212	1374.59997558594
1584.45525996652	1370.40002441406
1585.07675573728	1366
1585.69817029188	1356.59997558594
1586.31950363778	1358.19995117188
1586.94075578243	1361
1587.5619267333	1345.59997558594
1588.18301649786	1346.19995117188
1588.80402508357	1339.80004882813
1589.42495249788	1335.80004882813
1590.04579874826	1343.59997558594
1590.66656384217	1333.19995117188
1591.28724778707	1344.80004882813
1591.90785059042	1333
1592.52837225968	1328.40002441406
1593.14881280232	1324.59997558594
1593.76917222578	1331.40002441406
1594.38945053753	1332.40002441406
1595.00964774502	1333.19995117188
1595.62976385573	1339.19995117188
1596.24979887709	1335.80004882813
1596.86975281657	1330.80004882813
1597.48962568164	1326.80004882813
1598.10941747974	1327.80004882813
1598.72912821832	1333
1599.34875790486	1337
1599.9683065468	1333.40002441406
1600.58777415159	1327.19995117188
1601.2071607267	1331.19995117188
1601.82646627958	1335
1602.44569081769	1322.19995117188
1603.06483434846	1314.59997558594
1603.68389687937	1311.59997558594
1604.30287841786	1303.19995117188
1604.92177897139	1296.40002441406
1605.54059854741	1296
1606.15933715337	1282.59997558594
1606.77799479672	1307.80004882813
1607.39657148492	1310.59997558594
1608.01506722542	1315.19995117188
1608.63348202566	1308.80004882813
1609.2518158931	1311.40002441406
1609.87006883519	1307.40002441406
1610.48824085939	1318.19995117188
1611.10633197312	1318.40002441406
1611.72434218386	1327.19995117188
1612.34227149904	1319.80004882813
1612.96011992612	1306.40002441406
1613.57788747254	1311.59997558594
1614.19557414575	1309.59997558594
1614.8131799532	1303
1615.43070490234	1296.19995117188
1616.04814900061	1298.40002441406
1616.66551225545	1295.40002441406
1617.28279467433	1306.59997558594
1617.89999626467	1292.80004882813
1618.51711703393	1300.19995117188
1619.13415698955	1302.80004882813
1619.75111613898	1309.80004882813
1620.36799448966	1309.40002441406
1620.98479204903	1313.40002441406
1621.60150882455	1306.19995117188
1622.21814482364	1307.40002441406
1622.83470005376	1313.19995117188
1623.45117452235	1309.59997558594
1624.06756823685	1306
1624.6838812047	1306.59997558594
1625.30011343335	1298.40002441406
1625.91626493022	1302
1626.53233570278	1301.40002441406
1627.14832575845	1309.19995117188
1627.76423510468	1312.59997558594
1628.38006374891	1308.19995117188
1628.99581169857	1309.80004882813
1629.61147896111	1309.19995117188
1630.22706554397	1304.59997558594
1630.84257145457	1306.40002441406
1631.45799670038	1298
1632.07334128881	1293.59997558594
1632.6886052273	1277.59997558594
1633.3037885233	1286
1633.91889118425	1287.80004882813
1634.53391321757	1286.59997558594
1635.1488546307	1288
1635.76371543108	1288.59997558594
1636.37849562616	1291
1636.99319522335	1278.59997558594
1637.60781423009	1279
1638.22235265383	1288.19995117188
1638.83681050198	1292.40002441406
1639.451187782	1293.40002441406
1640.0654845013	1295.80004882813
1640.67970066734	1311.40002441406
1641.29383628752	1301.80004882813
1641.9078913693	1307.59997558594
1642.5218659201	1303.80004882813
1643.13575994735	1305.40002441406
1643.74957345849	1300.80004882813
1644.36330646094	1300
1644.97695896213	1307.80004882813
1645.59053096951	1306.59997558594
1646.20402249049	1303.19995117188
1646.8174335325	1310.40002441406
1647.43076410298	1312.19995117188
1648.04401420935	1327
1648.65718385905	1336
1649.2702730595	1342.80004882813
1649.88328181812	1344.80004882813
1650.49621014236	1350
1651.10905803963	1344.59997558594
1651.72182551735	1348.40002441406
1652.33451258297	1331.40002441406
1652.9471192439	1316
1653.55964550757	1314.19995117188
1654.1720913814	1321.40002441406
1654.78445687283	1313.59997558594
1655.39674198926	1308.59997558594
1656.00894673814	1295.40002441406
1656.62107112688	1290.40002441406
1657.23311516291	1286.80004882813
1657.84507885365	1286.59997558594
1658.45696220652	1274.59997558594
1659.06876522895	1272.59997558594
1659.68048792835	1264
1660.29213031217	1261.59997558594
1660.90369238779	1239.80004882813
1661.51517416267	1251.40002441406
1662.12657564421	1245
1662.73789683984	1257.40002441406
1663.34913775697	1249.40002441406
1663.96029840303	1242.40002441406
1664.57137878544	1227.40002441406
1665.18237891161	1240.80004882813
1665.79329878897	1232.80004882813
1666.40413842493	1238
1667.01489782691	1241
1667.62557700233	1238.19995117188
1668.2361759586	1233
1668.84669470315	1231.40002441406
1669.4571332434	1227.19995117188
1670.06749158675	1226.80004882813
1670.67776974062	1219.19995117188
1671.28796771243	1222.40002441406
1671.8980855096	1223.40002441406
1672.50812313954	1221.40002441406
1673.11808060967	1230.40002441406
1673.72795792739	1227.40002441406
1674.33775510013	1229.19995117188
1674.9474721353	1227.19995117188
1675.55710904031	1225.40002441406
1676.16666582257	1238.80004882813
1676.7761424895	1233.80004882813
1677.38553904851	1231
1677.99485550702	1233.59997558594
1678.60409187243	1224.59997558594
1679.21324815215	1217.59997558594
1679.8223243536	1215.80004882813
1680.43132048419	1225
1681.04023655132	1221
1681.64907256241	1218.19995117188
1682.25782852487	1213.40002441406
1682.86650444611	1204.80004882813
1683.47510033353	1219
1684.08361619455	1213.19995117188
1684.69205203657	1216.40002441406
1685.300407867	1216.80004882813
1685.90868369325	1220.40002441406
1686.51687952272	1234.59997558594
1687.12499536283	1226.40002441406
1687.73303122098	1216.59997558594
1688.34098710457	1215.80004882813
1688.94886302101	1210.40002441406
1689.55665897772	1204.40002441406
1690.16437498208	1214.80004882813
1690.77201104152	1208.80004882813
1691.37956716342	1205.80004882813
1691.9870433552	1214.80004882813
1692.59443962426	1213.80004882813
1693.20175597801	1224.40002441406
1693.80899242384	1220.80004882813
1694.41614896916	1219.59997558594
1695.02322562138	1217.80004882813
1695.63022238789	1213.19995117188
1696.23713927609	1213.59997558594
1696.8439762934	1210.80004882813
1697.4507334472	1210.59997558594
1698.05741074491	1202.80004882813
1698.66400819391	1200.19995117188
1699.27052580161	1197.19995117188
1699.87696357542	1192
1700.48332152272	1197.40002441406
1701.08959965092	1195
1701.69579796742	1193.80004882813
1702.30191647962	1179.40002441406
1702.90795519491	1177.80004882813
1703.51391412069	1171.80004882813
1704.11979326437	1166.59997558594
1704.72559263332	1171.19995117188
1705.33131223496	1171
1705.93695207668	1177
1706.54251216588	1178.59997558594
1707.14799250994	1168.40002441406
1707.75339311628	1166.19995117188
1708.35871399227	1169.19995117188
1708.96395514532	1157
1709.56911658282	1156.40002441406
