634.948122577771	1393.80004882813
635.690341530823	1395
636.43246851086	1394
637.174503525845	1403.40002441406
637.916446583745	1404.80004882813
638.658297692538	1398.19995117188
639.400056860179	1396.40002441406
640.141724094637	1389
640.883299403885	1383
641.62478279588	1385.80004882813
642.366174278594	1400.40002441406
643.107473859989	1407.40002441406
643.848681548029	1416.40002441406
644.589797350679	1418.59997558594
645.330821275901	1418
646.071753331665	1417.59997558594
646.812593525922	1414.40002441406
647.553341866646	1401.19995117188
648.293998361798	1399.59997558594
649.03456301933	1407.40002441406
649.775035847216	1404.19995117188
650.515416853409	1395.59997558594
651.255706045874	1404.59997558594
651.995903432568	1405.19995117188
652.736009021453	1405.40002441406
653.476022820486	1403.59997558594
654.215944837629	1404.80004882813
654.955775080842	1405.40002441406
655.695513558081	1405
656.435160277301	1421
657.174715246465	1423.40002441406
657.914178473527	1413
658.653549966449	1409.40002441406
659.392829733176	1413.19995117188
660.132017781678	1401.59997558594
660.871114119901	1416.80004882813
661.610118755803	1413
662.349031697343	1406.80004882813
663.087852952468	1413
663.826582529139	1408
664.565220435305	1406.80004882813
665.30376667892	1389.40002441406
666.04222126794	1390.80004882813
666.780584210316	1405.19995117188
667.518855514	1406.59997558594
668.25703518694	1418.59997558594
668.995123237096	1420.40002441406
669.733119672413	1415
670.471024500842	1426.19995117188
671.208837730333	1424.19995117188
671.946559368839	1420.19995117188
672.684189424308	1408.80004882813
673.421727904689	1413.19995117188
674.159174817929	1408
674.896530171977	1406.19995117188
675.633793974786	1409.59997558594
676.370966234295	1433
677.108046958461	1430.59997558594
677.845036155219	1415
678.581933832528	1430.80004882813
679.318739998323	1436.40002441406
680.055454660558	1430.19995117188
680.792077827172	1426.40002441406
681.528609506116	1441.80004882813
682.265049705331	1436.40002441406
683.001398432759	1431.19995117188
683.737655696349	1422.80004882813
684.47382150404	1416.19995117188
685.20989586378	1409.59997558594
685.945878783503	1407.19995117188
686.68177027116	1419
687.417570334688	1411
688.153278982032	1413.19995117188
688.888896221129	1422.59997558594
689.624422059921	1425.40002441406
690.359856506349	1432.19995117188
691.095199568354	1420.80004882813
691.830451253874	1431.59997558594
692.565611570844	1436.40002441406
693.300680527212	1429.19995117188
694.03565813091	1420
694.770544389877	1436
695.505339312053	1433.40002441406
696.240042905372	1412.40002441406
696.974655177772	1424
697.70917613719	1423.80004882813
698.443605791561	1435.40002441406
699.177944148826	1445
699.912191216909	1435
700.646347003755	1428.40002441406
701.380411517295	1443.80004882813
702.114384765465	1433
702.848266756195	1436.40002441406
703.582057497421	1453.80004882813
704.315756997074	1449.80004882813
705.049365263089	1449.19995117188
705.782882303399	1443.40002441406
706.516308125936	1446.40002441406
707.249642738626	1447.40002441406
707.982886149403	1441.19995117188
708.716038366204	1421.19995117188
709.449099396949	1438.40002441406
710.182069249577	1425.59997558594
710.914947932009	1416.19995117188
711.647735452181	1409.19995117188
712.380431818022	1404.19995117188
713.113037037454	1407.19995117188
713.845551118411	1400.80004882813
714.577974068818	1422.19995117188
715.310305896604	1423
716.042546609694	1444.59997558594
716.774696216013	1439
717.506754723493	1445
718.238722140053	1446.59997558594
718.970598473624	1445.80004882813
719.702383732127	1443.80004882813
720.43407792349	1440.19995117188
721.165681055634	1440
721.897193136486	1442.19995117188
722.628614173966	1442.59997558594
723.359944175997	1454.59997558594
724.091183150505	1446.19995117188
724.822331105412	1434.19995117188
725.553388048638	1423.40002441406
726.284353988106	1419.19995117188
727.015228931734	1433.80004882813
727.746012887449	1439.59997558594
728.476705863162	1448.80004882813
729.207307866803	1448.19995117188
729.937818906289	1450.80004882813
730.668238989535	1435.59997558594
731.398568124459	1437
732.128806318986	1440
732.858953581034	1428.19995117188
733.589009918514	1429.40002441406
734.318975339348	1428.59997558594
735.048849851452	1433.40002441406
735.778633462744	1433
736.508326181137	1428.19995117188
737.237928014549	1426.80004882813
737.967438970897	1440.19995117188
738.696859058095	1426.40002441406
739.426188284054	1417
740.155426656692	1410.40002441406
740.884574183922	1416.80004882813
741.613630873659	1428
742.342596733815	1417.40002441406
743.071471772302	1437
743.800255997034	1441.80004882813
744.528949415921	1445.59997558594
745.257552036877	1425.59997558594
745.986063867811	1436
746.714484916638	1444.40002441406
747.442815191261	1448.19995117188
748.171054699597	1433
748.899203449554	1445.59997558594
749.627261449039	1449.19995117188
750.355228705966	1432.80004882813
751.083105228239	1437.40002441406
751.810891023765	1443.80004882813
752.538586100459	1449
753.266190466218	1452.59997558594
753.99370412896	1452
754.721127096582	1449
755.448459377	1448.40002441406
756.175700978114	1448.19995117188
756.902851907828	1439.59997558594
757.629912174055	1434.59997558594
758.356881784688	1434.40002441406
759.083760747639	1422.40002441406
759.810549070817	1423.40002441406
760.537246762113	1436
761.263853829442	1443.40002441406
761.990370280698	1440
762.716796123791	1448
763.443131366618	1443
764.169376017082	1454
764.895530083085	1455.19995117188
765.621593572527	1453.19995117188
766.347566493312	1460.80004882813
767.073448853336	1466.40002441406
767.799240660502	1474.59997558594
768.524941922707	1466.80004882813
769.250552647854	1475.40002441406
769.976072843836	1476.59997558594
770.701502518551	1479.40002441406
771.426841679905	1484.40002441406
772.152090335793	1490
772.877248494107	1485.59997558594
773.602316162747	1483.40002441406
774.327293349609	1494.59997558594
775.052180062592	1508.80004882813
775.776976309589	1505.40002441406
776.501682098496	1513.40002441406
777.226297437206	1501
777.950822333616	1492
778.675256795621	1486.80004882813
779.399600831111	1485.80004882813
780.123854447983	1489.80004882813
780.84801765413	1487.19995117188
781.572090457441	1479.80004882813
782.296072865811	1464.19995117188
783.019964887131	1462.59997558594
783.743766529297	1460.40002441406
784.467477800194	1447.59997558594
785.191098707719	1455.40002441406
785.914629259756	1452.40002441406
786.638069464194	1456.40002441406
787.361419328932	1450.40002441406
788.084678861852	1432.19995117188
788.807848070845	1436
789.530926963798	1434.19995117188
790.253915548602	1429.80004882813
790.976813833144	1417.40002441406
791.699621825307	1416
792.422339532986	1409
793.144966964061	1417.40002441406
793.86750412642	1435.40002441406
794.589951027946	1446.19995117188
795.312307676536	1446
796.03457408006	1440.80004882813
796.756750246417	1436.40002441406
797.478836183477	1443.40002441406
798.200831899137	1432.80004882813
798.92273740127	1432
799.644552697769	1423.19995117188
800.36627779651	1429.59997558594
801.087912705374	1440.59997558594
801.809457432251	1455.19995117188
802.530911985017	1447.59997558594
803.252276371558	1448.40002441406
803.973550599748	1439.19995117188
804.694734677472	1447.59997558594
805.415828612611	1446.80004882813
806.136832413045	1454
806.857746086646	1456.19995117188
807.578569641305	1455
808.299303084892	1457.40002441406
809.019946425289	1460
809.740499670372	1457.80004882813
810.460962828022	1456.80004882813
811.181335906114	1466.59997558594
811.901618912524	1461.59997558594
812.621811855131	1450.40002441406
813.341914741809	1447.19995117188
814.061927580433	1454.40002441406
814.781850378881	1456.19995117188
815.501683145025	1450.59997558594
816.221425886743	1456.19995117188
816.941078611903	1450.40002441406
817.660641328387	1427.59997558594
818.380114044065	1424.40002441406
819.099496766808	1426
819.818789504492	1431
820.53799226499	1435
821.257105056168	1421.59997558594
821.976127885904	1432
822.695060762064	1436
823.413903692525	1444.59997558594
824.132656685151	1457
824.851319747817	1472.59997558594
825.569892888388	1477
826.288376114739	1477
827.006769434737	1474.19995117188
827.725072856249	1468.59997558594
828.443286387142	1456
829.161410035285	1452.59997558594
829.87944380855	1444
830.597387714798	1438.40002441406
831.315241761898	1445.40002441406
832.033005957715	1451.19995117188
832.750680310119	1457.19995117188
833.468264826969	1455.80004882813
834.18575951614	1455.40002441406
834.903164385486	1450.19995117188
835.620479442878	1460.59997558594
836.337704696181	1443.59997558594
837.054840153255	1442.59997558594
837.771885821962	1437.40002441406
838.488841710172	1439.40002441406
839.20570782574	1443.19995117188
839.922484176531	1442.40002441406
840.639170770409	1444.59997558594
841.355767615231	1449
842.072274718864	1433.19995117188
842.788692089164	1433.80004882813
843.505019733993	1435.59997558594
844.221257661209	1440.59997558594
844.937405878676	1444.59997558594
845.65346439425	1439.40002441406
846.369433215789	1429.59997558594
847.085312351156	1439
847.801101808205	1442.19995117188
848.516801594793	1418
849.232411718781	1418.80004882813
849.947932188021	1419
850.663363010376	1424.19995117188
851.378704193698	1437.19995117188
852.093955745842	1449.40002441406
852.809117674669	1462.19995117188
853.524189988028	1451.80004882813
854.239172693778	1463.80004882813
854.954065799768	1453.59997558594
855.668869313857	1443.59997558594
856.383583243899	1431.19995117188
857.098207597743	1420.80004882813
857.812742383246	1426.40002441406
858.527187608255	1430.80004882813
859.241543280628	1420.59997558594
859.955809408218	1425.19995117188
860.669985998868	1428.80004882813
861.384073060437	1433.19995117188
862.098070600772	1445
862.811978627724	1453
863.52579714914	1453.80004882813
864.239526172873	1449
864.953165706776	1430.19995117188
865.666715758687	1437.80004882813
866.380176336464	1435.19995117188
867.093547447951	1430
867.806829100996	1415.59997558594
868.520021303444	1420.59997558594
869.233124063149	1417.40002441406
869.94613738795	1424
870.659061285693	1428.80004882813
871.37189576423	1427.80004882813
872.084640831403	1433.80004882813
872.797296495057	1445.80004882813
873.509862763039	1451.80004882813
874.22233964319	1439
874.934727143353	1443.40002441406
875.647025271374	1419.80004882813
876.359234035097	1420.80004882813
877.071353442361	1429.59997558594
877.783383501015	1409.19995117188
878.495324218895	1418.40002441406
879.207175603844	1433.80004882813
879.918937663705	1423.40002441406
880.630610406318	1434.59997558594
881.342193839524	1446
882.053687971161	1445
882.765092809069	1445
883.476408361091	1443.80004882813
884.187634635066	1434.19995117188
884.898771638828	1426.80004882813
885.609819380221	1419.59997558594
886.320777867076	1434.59997558594
887.031647107236	1430.19995117188
887.742427108536	1426.80004882813
888.453117878816	1431.19995117188
889.16371942591	1424.80004882813
889.874231757652	1431.59997558594
890.584654881883	1437
891.294988806434	1433.59997558594
892.005233539141	1431
892.715389087837	1433.19995117188
893.42545546036	1436.80004882813
894.135432664543	1436.59997558594
894.845320708216	1448.80004882813
895.555119599216	1446.80004882813
896.264829345375	1460
896.974449954526	1456.40002441406
897.683981434496	1438.19995117188
898.393423793125	1457
899.102777038235	1455.80004882813
899.812041177664	1445.59997558594
900.521216219239	1450.19995117188
901.230302170793	1445
901.939299040155	1446.40002441406
902.64820683515	1431.59997558594
903.357025563612	1447.59997558594
904.065755233368	1437
904.774395852247	1429.80004882813
905.482947428076	1438.40002441406
906.191409968682	1442.59997558594
906.899783481897	1443.59997558594
907.608067975538	1437.40002441406
908.316263457443	1446
909.02436993543	1442.19995117188
909.732387417327	1440
910.440315910959	1448.80004882813
911.148155424154	1447.59997558594
911.855905964731	1449.59997558594
912.563567540521	1437.80004882813
913.271140159339	1428.19995117188
913.978623829017	1448.80004882813
914.686018557374	1427.40002441406
915.393324352237	1440.40002441406
916.100541221421	1424.59997558594
916.807669172752	1417.40002441406
917.514708214054	1432.19995117188
918.221658353142	1426.19995117188
918.928519597843	1420.40002441406
919.635291955976	1410
920.341975435358	1408.19995117188
921.048570043813	1427.19995117188
921.75507578916	1445.59997558594
922.461492679212	1449.19995117188
923.167820721795	1461.19995117188
923.874059924726	1454
924.58021029582	1448.80004882813
925.286271842893	1439.40002441406
925.992244573769	1448.19995117188
926.698128496262	1450
927.403923618184	1459.80004882813
928.109629947355	1443.80004882813
928.815247491593	1441
929.520776258708	1432
930.226216256519	1436.19995117188
930.931567492841	1450.80004882813
931.636829975482	1438.40002441406
932.342003712263	1433.80004882813
933.047088710995	1417.40002441406
933.752084979491	1417.19995117188
934.456992525564	1439
935.161811357024	1423.40002441406
935.866541481688	1420
936.571182907363	1413
937.275735641861	1408.80004882813
937.980199692995	1413.40002441406
938.684575068572	1404.40002441406
939.388861776411	1417.80004882813
940.093059824311	1419.40002441406
940.797169220085	1420.59997558594
941.501189971544	1408.19995117188
942.205122086495	1403.59997558594
942.908965572751	1411.59997558594
943.612720438111	1408.80004882813
944.316386690391	1401.40002441406
945.019964337391	1409.40002441406
945.723453386924	1415.19995117188
946.426853846795	1418.40002441406
947.130165724808	1422.40002441406
947.83338902877	1408.59997558594
948.536523766488	1410.40002441406
949.239569945764	1415.40002441406
949.942527574402	1406.40002441406
950.64539666021	1413.59997558594
951.348177210993	1406.19995117188
952.050869234548	1404.59997558594
952.753472738683	1390.40002441406
953.455987731199	1399.40002441406
954.158414219898	1398.59997558594
954.860752212587	1401.40002441406
955.563001717061	1408.40002441406
956.265162741124	1405.19995117188
956.967235292576	1404.19995117188
957.669219379224	1396.19995117188
958.371115008857	1397.40002441406
959.072922189283	1389.40002441406
959.774640928301	1384.80004882813
960.476271233708	1388.19995117188
961.177813113301	1387
961.879266574882	1389.40002441406
962.580631626248	1395.40002441406
963.281908275194	1396.59997558594
963.98309652952	1394.59997558594
964.684196397022	1389.40002441406
965.3852078855	1397.19995117188
966.086131002745	1404.19995117188
966.786965756555	1412.19995117188
967.487712154726	1406
968.188370205055	1405.40002441406
968.888939915331	1406
969.589421293352	1410.40002441406
970.289814346909	1415.59997558594
970.990119083801	1418.80004882813
971.690335511819	1422.19995117188
972.39046363875	1429.80004882813
973.090503472398	1421.19995117188
973.790455020545	1421.59997558594
974.490318290987	1406.19995117188
975.190093291516	1398.40002441406
975.889780029923	1395.40002441406
976.589378513998	1395.40002441406
977.288888751527	1402.19995117188
977.988310750308	1419.80004882813
978.687644518122	1420.80004882813
979.386890062767	1408
980.086047392025	1408.59997558594
980.785116513689	1410.19995117188
981.484097435542	1407.19995117188
982.182990165377	1408.59997558594
982.88179471098	1404.59997558594
983.580511080137	1398.40002441406
984.279139280632	1398.80004882813
984.977679320253	1400.19995117188
985.67613120679	1378.80004882813
986.374494948027	1387.80004882813
987.072770551745	1403
987.770958025731	1402.19995117188
988.469057377772	1407.59997558594
989.167068615649	1387
989.864991747145	1384.80004882813
990.562826780047	1386.19995117188
991.260573722134	1394.59997558594
991.958232581195	1408
992.655803365003	1395.59997558594
993.353286081346	1411.40002441406
994.050680738006	1408.19995117188
994.74798734276	1395.80004882813
995.44520590339	1411.59997558594
996.142336427681	1398.40002441406
996.839378923407	1399.80004882813
997.536333398348	1394.59997558594
998.233199860289	1392.19995117188
998.929978317004	1387
999.626668776274	1391.40002441406
1000.32327124587	1385.80004882813
1001.01978573359	1380.59997558594
1001.71621224718	1377.40002441406
1002.41255079445	1379.80004882813
1003.10880138315	1378.80004882813
1003.80496402107	1390.19995117188
1004.50103871599	1398.40002441406
1005.19702547567	1414.80004882813
1005.8929243079	1426.19995117188
1006.58873522045	1419
1007.2844582211	1419.19995117188
1007.98009331761	1427
1008.67564051776	1427.80004882813
1009.37109982933	1421.40002441406
1010.06647126009	1425
1010.7617548178	1414.59997558594
1011.45695051026	1415.80004882813
1012.15205834522	1402.19995117188
1012.84707833045	1406.40002441406
1013.54201047373	1406.19995117188
1014.23685478284	1416.40002441406
1014.93161126553	1403
1015.62627992959	1397.80004882813
1016.32086078277	1409
1017.01535383285	1410.80004882813
1017.70975908761	1408.19995117188
1018.40407655479	1404
1019.09830624219	1409.59997558594
1019.79244815755	1421.80004882813
1020.48650230866	1409.19995117188
1021.18046870328	1422.40002441406
1021.87434734917	1414.59997558594
1022.56813825411	1423.59997558594
1023.26184142584	1419.19995117188
1023.95545687216	1412
1024.64898460082	1408.40002441406
1025.34242461957	1410
1026.0357769362	1409
1026.72904155846	1402.80004882813
1027.42221849412	1408.59997558594
1028.11530775094	1400.40002441406
1028.80830933668	1399.59997558594
1029.50122325911	1401.80004882813
1030.19404952599	1396.59997558594
1030.88678814508	1401
1031.57943912414	1384.80004882813
1032.27200247093	1390.40002441406
1032.96447819323	1382.80004882813
1033.65686629878	1386.19995117188
1034.34916679534	1389.19995117188
1035.04137969068	1403.59997558594
1035.73350499256	1395
1036.42554270874	1395.40002441406
1037.11749284697	1391.59997558594
1037.80935541501	1381.80004882813
1038.50113042062	1391.40002441406
1039.19281787156	1393
1039.88441777559	1385.59997558594
1040.57593014046	1399.40002441406
1041.26735497393	1399.40002441406
1041.95869228376	1399.40002441406
1042.6499420777	1396.40002441406
1043.3411043635	1407.59997558594
1044.03217914893	1386.40002441406
1044.72316644174	1394.59997558594
1045.41406624968	1391.19995117188
1046.1048785805	1403.19995117188
1046.79560344197	1395.19995117188
1047.48624084182	1386.40002441406
1048.17679078783	1393.40002441406
1048.86725328774	1385.80004882813
1049.55762834929	1380.80004882813
1050.24791598025	1375.80004882813
1050.93811618837	1368.80004882813
1051.62822898139	1376.19995117188
1052.31825436707	1381
1053.00819235315	1387.59997558594
1053.6980429474	1382.19995117188
1054.38780615755	1379.80004882813
1055.07748199136	1374.80004882813
1055.76707045658	1368.40002441406
1056.45657156095	1376.19995117188
1057.14598531222	1366.40002441406
1057.83531171814	1377.59997558594
1058.52455078646	1375.59997558594
1059.21370252494	1380.40002441406
1059.90276694129	1383
1060.5917440433	1389
1061.28063383868	1395.19995117188
1061.9694363352	1393.19995117188
1062.65815154059	1387.40002441406
1063.34677946261	1398.80004882813
1064.03532010899	1383.80004882813
1064.72377348748	1380.59997558594
1065.41213960583	1385.80004882813
1066.10041847177	1390.19995117188
1066.78861009306	1371
1067.47671447743	1372
1068.16473163263	1372
1068.85266156639	1383.19995117188
1069.54050428647	1386.80004882813
1070.2282598006	1397.59997558594
1070.91592811652	1383.19995117188
1071.60350924198	1395.40002441406
1072.29100318471	1380
1072.97840995245	1383.19995117188
1073.66572955295	1375.59997558594
1074.35296199394	1383.19995117188
1075.04010728316	1384.19995117188
1075.72716542836	1376.59997558594
1076.41413643726	1393.19995117188
1077.10102031761	1382
1077.78781707715	1374.80004882813
1078.4745267236	1373.59997558594
1079.16114926471	1375.40002441406
1079.84768470822	1369.59997558594
1080.53413306185	1383.59997558594
1081.22049433336	1382.19995117188
1081.90676853046	1384.40002441406
1082.5929556609	1378.40002441406
1083.27905573241	1394
1083.96506875272	1392
1084.65099472957	1383.19995117188
1085.3368336707	1374.59997558594
1086.02258558383	1373.19995117188
1086.70825047669	1365
1087.39382835703	1374
1088.07931923257	1380.19995117188
1088.76472311104	1386
1089.45004000018	1379.19995117188
1090.13526990771	1380
1090.82041284137	1388.40002441406
1091.50546880889	1386
1092.19043781799	1372
1092.87531987642	1364.80004882813
1093.56011499188	1371.80004882813
1094.24482317212	1366.19995117188
1094.92944442486	1358.59997558594
1095.61397875783	1354.80004882813
1096.29842617876	1349.80004882813
1096.98278669537	1380.19995117188
1097.6670603154	1372.59997558594
1098.35124704656	1368.40002441406
1099.03534689659	1365.19995117188
1099.71935987322	1370.40002441406
1100.40328598416	1375.59997558594
1101.08712523713	1376
1101.77087763988	1389.40002441406
1102.45454320012	1373.80004882813
1103.13812192557	1373.59997558594
1103.82161382396	1379.59997558594
1104.50501890301	1377.59997558594
1105.18833717045	1379.40002441406
1105.87156863399	1363.19995117188
1106.55471330137	1380.59997558594
1107.2377711803	1392.19995117188
1107.9207422785	1392.80004882813
1108.60362660369	1393.80004882813
1109.2864241636	1401.19995117188
1109.96913496594	1388.59997558594
1110.65175901844	1383.40002441406
1111.33429632882	1369.80004882813
1112.01674690479	1371
1112.69911075408	1364.59997558594
1113.38138788439	1360.59997558594
1114.06357830346	1360.40002441406
1114.745682019	1367.40002441406
1115.42769903872	1361.19995117188
1116.10962937035	1379.80004882813
1116.7914730216	1382.80004882813
1117.47323000018	1381.40002441406
1118.15490031382	1388.59997558594
1118.83648397022	1397
1119.51798097712	1375.80004882813
1120.1993913422	1373.80004882813
1120.88071507321	1364
1121.56195217784	1353.59997558594
1122.24310266381	1354.80004882813
1122.92416653884	1346
1123.60514381064	1352
1124.28603448692	1357
1124.9668385754	1375.59997558594
1125.64755608378	1390.80004882813
1126.32818701978	1376
1127.00873139111	1378.19995117188
1127.68918920548	1377
1128.3695604706	1380.19995117188
1129.04984519419	1382.40002441406
1129.73004338394	1379.40002441406
1130.41015504758	1360.59997558594
1131.09018019281	1364.80004882813
1131.77011882734	1366.40002441406
1132.44997095888	1364.59997558594
1133.12973659514	1388.19995117188
1133.80941574381	1370.19995117188
1134.48900841263	1378
1135.16851460927	1389.80004882813
1135.84793434147	1385
1136.52726761692	1373
1137.20651444333	1371.59997558594
1137.8856748284	1358.40002441406
1138.56474877984	1362
1139.24373630536	1361.80004882813
1139.92263741265	1368
1140.60145210943	1377.40002441406
1141.28018040339	1380
1141.95882230225	1375.40002441406
1142.6373778137	1369.59997558594
1143.31584694545	1360.40002441406
1143.99422970519	1356.40002441406
1144.67252610064	1365.40002441406
1145.35073613949	1349.40002441406
1146.02885982944	1358.19995117188
1146.7068971782	1341.19995117188
1147.38484819347	1354.40002441406
1148.06271288294	1346.59997558594
1148.74049125432	1349.80004882813
1149.41818331531	1361
1150.0957890736	1368.59997558594
1150.77330853689	1367.40002441406
1151.45074171289	1372.59997558594
1152.12808860928	1374.59997558594
1152.80534923378	1349.40002441406
1153.48252359407	1363
1154.15961169786	1353.40002441406
1154.83661355283	1354
1155.51352916669	1353.19995117188
1156.19035854713	1353.80004882813
1156.86710170185	1360.59997558594
1157.54375863855	1356.19995117188
1158.22032936491	1359.40002441406
1158.89681388863	1342.59997558594
1159.57321221741	1357.19995117188
1160.24952435894	1365
1160.92575032092	1366.19995117188
1161.60189011103	1354.80004882813
1162.27794373697	1363.40002441406
1162.95391120644	1353
1163.62979252712	1352.19995117188
1164.3055877067	1351.80004882813
1164.98129675288	1352
1165.65691967336	1363.80004882813
1166.33245647581	1362
1167.00790716792	1364.40002441406
1167.6832717574	1373.59997558594
1168.35855025193	1369
1169.0337426592	1354
1169.70884898689	1356.19995117188
1170.3838692427	1341.40002441406
1171.05880343431	1341.40002441406
1171.73365156941	1340.59997558594
1172.40841365569	1355.59997558594
1173.08308970083	1355.80004882813
1173.75767971253	1377.19995117188
1174.43218369847	1351.80004882813
1175.10660166633	1349
1175.7809336238	1329.40002441406
1176.45517957857	1337.59997558594
1177.12933953832	1337.19995117188
1177.80341351073	1343
1178.47740150349	1341
1179.15130352429	1351.40002441406
1179.8251195808	1343
1180.49884968071	1369.40002441406
1181.1724938317	1371.19995117188
1181.84605204145	1371.40002441406
1182.51952431766	1355.19995117188
1183.19291066799	1362.59997558594
1183.86621110013	1376.59997558594
1184.53942562176	1372.40002441406
1185.21255424057	1368.59997558594
1185.88559696422	1369.40002441406
1186.55855380041	1364.80004882813
1187.2314247568	1350.80004882813
1187.90420984109	1355.80004882813
1188.57690906095	1356
1189.24952242405	1358
1189.92204993808	1362
1190.59449161071	1366.80004882813
1191.26684744962	1359.59997558594
1191.93911746249	1356
1192.61130165699	1354.59997558594
1193.28340004081	1350.19995117188
1193.95541262161	1355.59997558594
1194.62733940707	1350.59997558594
1195.29918040487	1358.59997558594
1195.97093562269	1357.19995117188
1196.64260506819	1371.40002441406
1197.31418874905	1358.40002441406
1197.98568667295	1350.59997558594
1198.65709884755	1349.40002441406
1199.32842528053	1346.80004882813
1199.99966597957	1346.80004882813
1200.67082095234	1339
1201.3418902065	1350
1202.01287374974	1342.40002441406
1202.68377158971	1344.59997558594
1203.3545837341	1343.59997558594
1204.02531019057	1348.80004882813
1204.6959509668	1351.19995117188
1205.36650607045	1338
1206.03697550919	1348.80004882813
1206.70735929069	1344
1207.37765742263	1354.40002441406
1208.04786991266	1352.59997558594
1208.71799676846	1355.80004882813
1209.38803799769	1344.59997558594
1210.05799360803	1338.80004882813
1210.72786360714	1343.59997558594
1211.39764800268	1338.59997558594
1212.06734680233	1337.59997558594
1212.73696001375	1335.80004882813
1213.4064876446	1339
1214.07592970255	1344.19995117188
1214.74528619526	1333.59997558594
1215.4145571304	1335.80004882813
1216.08374251564	1327.19995117188
1216.75284235863	1337.40002441406
1217.42185666704	1334.19995117188
1218.09078544854	1330
1218.75962871078	1334.19995117188
1219.42838646143	1323.59997558594
1220.09705870816	1314.40002441406
1220.76564545861	1343.59997558594
1221.43414672046	1340
1222.10256250136	1349.80004882813
1222.77089280898	1337.80004882813
1223.43913765098	1338.59997558594
1224.107297035	1350.80004882813
1224.77537096873	1328.40002441406
1225.44335945981	1338.59997558594
1226.1112625159	1340
1226.77908014467	1336.40002441406
1227.44681235376	1338.80004882813
1228.11445915085	1330.80004882813
1228.78202054357	1331.59997558594
1229.44949653961	1337
1230.11688714659	1326.59997558594
1230.7841923722	1328.59997558594
1231.45141222407	1332.19995117188
1232.11854670988	1323.59997558594
1232.78559583726	1332.80004882813
1233.45255961388	1343.40002441406
1234.1194380474	1325.19995117188
1234.78623114546	1333.40002441406
1235.45293891572	1323.80004882813
1236.11956136583	1349.59997558594
1236.78609850345	1344.19995117188
1237.45255033623	1337.40002441406
1238.11891687182	1332.80004882813
1238.78519811788	1342.40002441406
1239.45139408205	1336.59997558594
1240.11750477198	1326
1240.78353019534	1320.80004882813
1241.44947035976	1327
1242.11532527291	1316.80004882813
1242.78109494242	1316
1243.44677937595	1315.19995117188
1244.11237858115	1319.80004882813
1244.77789256567	1330.59997558594
1245.44332133715	1324.40002441406
1246.10866490325	1325.40002441406
1246.7739232716	1327.59997558594
1247.43909644987	1328.59997558594
1248.10418444569	1328
1248.76918726671	1329.59997558594
1249.43410492059	1335.40002441406
1250.09893741496	1326.40002441406
1250.76368475747	1327.19995117188
1251.42834695576	1332.40002441406
1252.09292401749	1324.40002441406
1252.75741595029	1331.59997558594
1253.42182276182	1325.40002441406
1254.08614445971	1340.19995117188
1254.75038105161	1334.19995117188
1255.41453254515	1326
1256.07859894799	1323.59997558594
1256.74258026777	1311.19995117188
1257.40647651213	1318.80004882813
1258.0702876887	1308.40002441406
1258.73401380514	1307
1259.39765486908	1301.19995117188
1260.06121088817	1315.40002441406
1260.72468187004	1326.80004882813
1261.38806782233	1340.59997558594
1262.05136875269	1333.80004882813
1262.71458466875	1332.80004882813
1263.37771557815	1327.19995117188
1264.04076148854	1336.19995117188
1264.70372240753	1315.40002441406
1265.3665983428	1314.19995117188
1266.02938930195	1305.59997558594
1266.69209529263	1324
1267.35471632249	1323.59997558594
1268.01725239914	1316
1268.67970353024	1312.59997558594
1269.34206972342	1317.19995117188
1270.00435098631	1307.40002441406
1270.66654732655	1311.80004882813
1271.32865875177	1312.59997558594
1271.9906852696	1316.19995117188
1272.65262688768	1306.80004882813
1273.31448361365	1320.80004882813
1273.97625545514	1329
1274.63794241978	1323.19995117188
1275.2995445152	1317.80004882813
1275.96106174903	1332.80004882813
1276.62249412892	1324.59997558594
1277.28384166248	1328.19995117188
1277.94510435735	1325.40002441406
1278.60628222116	1322.40002441406
1279.26737526155	1321.59997558594
1279.92838348613	1307.40002441406
1280.58930690255	1312.19995117188
1281.25014551842	1298.59997558594
1281.91089934139	1318.80004882813
1282.57156837907	1318.59997558594
1283.2321526391	1305.80004882813
1283.89265212911	1317.80004882813
1284.55306685671	1314.80004882813
1285.21339682955	1303.40002441406
1285.87364205525	1300.40002441406
1286.53380254142	1291.19995117188
1287.19387829571	1288.19995117188
1287.85386932573	1284.80004882813
1288.51377563911	1295.40002441406
1289.17359724348	1294.59997558594
1289.83333414646	1316.40002441406
1290.49298635567	1313.40002441406
1291.15255387874	1304.40002441406
1291.8120367233	1303.40002441406
1292.47143489696	1305.59997558594
1293.13074840736	1296.40002441406
1293.7899772621	1298.40002441406
1294.44912146882	1303
1295.10818103513	1313.80004882813
1295.76715596866	1304
1296.42604627704	1294
1297.08485196787	1294.59997558594
1297.74357304878	1300.40002441406
1298.4022095274	1301
1299.06076141134	1316.40002441406
1299.71922870821	1319.19995117188
1300.37761142565	1311.19995117188
1301.03590957126	1316.80004882813
1301.69412315268	1317.40002441406
1302.3522521775	1322.59997558594
1303.01029665336	1309
1303.66825658787	1312
1304.32613198865	1307
1304.98392286332	1321.59997558594
1305.64162921948	1321
1306.29925106476	1316.80004882813
1306.95678840677	1322
1307.61424125312	1327.80004882813
1308.27160961145	1321.40002441406
1308.92889348934	1317
1309.58609289443	1315.40002441406
1310.24320783432	1312
1310.90023831664	1309.40002441406
1311.55718434898	1304.80004882813
1312.21404593897	1310.59997558594
1312.87082309421	1305
1313.52751582233	1311.40002441406
1314.18412413092	1318
1314.84064802761	1317.19995117188
1315.49708752	1321.80004882813
1316.1534426157	1317.40002441406
1316.80971332233	1326.40002441406
1317.46589964749	1327
1318.1220015988	1327.40002441406
1318.77801918386	1324.80004882813
1319.43395241028	1325
1320.08980128567	1316.59997558594
1320.74556581764	1322
1321.4012460138	1317.59997558594
1322.05684188176	1320
1322.71235342911	1322
1323.36778066347	1318.59997558594
1324.02312359245	1313.40002441406
1324.67838222365	1324
1325.33355656468	1325.80004882813
1325.98864662314	1328.40002441406
1326.64365240663	1320.40002441406
1327.29857392277	1314.19995117188
1327.95341117915	1309.40002441406
1328.60816418339	1303.19995117188
1329.26283294308	1313.40002441406
1329.91741746582	1298.80004882813
1330.57191775923	1310
1331.2263338309	1298.59997558594
1331.88066568843	1298.40002441406
1332.53491333943	1302.19995117188
1333.1890767915	1296.19995117188
1333.84315605224	1307.19995117188
1334.49715112925	1305.40002441406
1335.15106203013	1310
1335.80488876249	1301.19995117188
1336.45863133391	1296.59997558594
1337.112289752	1286
1337.76586402437	1302.19995117188
1338.4193541586	1300.59997558594
1339.0727601623	1312.80004882813
1339.72608204306	1321.40002441406
1340.37931980849	1309.40002441406
1341.03247346617	1313.80004882813
1341.68554302372	1296.80004882813
1342.33852848871	1309
1342.99142986876	1304.59997558594
1343.64424717145	1296
1344.29698040438	1317.19995117188
1344.94962957515	1310.40002441406
1345.60219469135	1328.40002441406
1346.25467576058	1316.80004882813
1346.90707279042	1318.40002441406
1347.55938578848	1322.80004882813
1348.21161476235	1318.80004882813
1348.86375971962	1313.59997558594
1349.51582066787	1319.59997558594
1350.16779761472	1314.80004882813
1350.81969056774	1313
1351.47149953453	1313.80004882813
1352.12322452269	1319.19995117188
1352.77486553979	1307
1353.42642259344	1318.40002441406
1354.07789569122	1316.19995117188
1354.72928484072	1325.59997558594
1355.38059004953	1341
1356.03181132525	1330.59997558594
1356.68294867545	1334.40002441406
1357.33400210773	1339.59997558594
1357.98497162968	1332.80004882813
1358.63585724889	1324.59997558594
1359.28665897294	1321
1359.93737680942	1319.80004882813
1360.58801076591	1337.59997558594
1361.23856085001	1338.59997558594
1361.88902706929	1335.80004882813
1362.53940943135	1347.19995117188
1363.18970794377	1350.19995117188
1363.83992261413	1350.59997558594
1364.49005345003	1357.40002441406
1365.14010045904	1355.80004882813
1365.79006364874	1355.59997558594
1366.43994302673	1356.80004882813
1367.08973860058	1360.19995117188
1367.73945037788	1358.19995117188
1368.38907836621	1348.59997558594
1369.03862257315	1344.80004882813
1369.68808300629	1347.19995117188
1370.3374596732	1334.59997558594
1370.98675258148	1325
1371.63596173868	1334
1372.28508715241	1321.19995117188
1372.93412883024	1313.59997558594
1373.58308677974	1306.59997558594
1374.2319610085	1314.19995117188
1374.8807515241	1298.80004882813
1375.52945833412	1287.59997558594
1376.17808144612	1295.40002441406
1376.82662086771	1300
1377.47507660644	1291.59997558594
1378.12344866989	1289
1378.77173706565	1285
1379.41994180129	1280
1380.06806288439	1296.59997558594
1380.71610032252	1292
1381.36405412326	1293.80004882813
1382.01192429419	1294
1382.65971084287	1305
1383.30741377688	1306
1383.95503310381	1298.40002441406
1384.60256883121	1301
1385.25002096667	1292
1385.89738951775	1294.59997558594
1386.54467449204	1289.40002441406
1387.19187589709	1279
1387.8389937405	1286
1388.48602802982	1282.19995117188
1389.13297877262	1292.80004882813
1389.77984597649	1281
1390.42662964899	1293.40002441406
1391.07332979768	1298
1391.71994643015	1297.40002441406
1392.36647955395	1299.19995117188
1393.01292917667	1291.59997558594
1393.65929530586	1294.80004882813
1394.3055779491	1293.59997558594
1394.95177711395	1300.80004882813
1395.59789280799	1287.40002441406
1396.24392503877	1283
1396.88987381387	1296.40002441406
1397.53573914086	1291.80004882813
1398.1815210273	1288
1398.82721948075	1288.19995117188
1399.47283450878	1289.59997558594
1400.11836611897	1282.80004882813
1400.76381431886	1285.40002441406
1401.40917911603	1272.80004882813
1402.05446051805	1254.80004882813
1402.69965853247	1254.40002441406
1403.34477316686	1253.59997558594
1403.98980442878	1250
1404.6347523258	1263.80004882813
1405.27961686548	1265
1405.92439805538	1268.40002441406
1406.56909590306	1276.40002441406
1407.21371041608	1269.59997558594
1407.85824160202	1279.59997558594
1408.50268946841	1273.80004882813
1409.14705402284	1268
1409.79133527285	1273.59997558594
1410.43553322601	1273.19995117188
1411.07964788987	1274
1411.723679272	1272.59997558594
1412.36762737996	1275.19995117188
1413.01149222129	1269.40002441406
1413.65527380357	1277.19995117188
1414.29897213435	1270
1414.94258722118	1270.80004882813
1415.58611907163	1267
1416.22956769325	1262
1416.87293309359	1259.80004882813
1417.51621528021	1268.59997558594
1418.15941426067	1259
1418.80253004253	1260.59997558594
1419.44556263333	1271
1420.08851204063	1274
1420.731378272	1283
1421.37416133497	1279.80004882813
1422.0168612371	1276
1422.65947798596	1289.19995117188
1423.30201158908	1281.40002441406
1423.94446205403	1281
1424.58682938835	1277.59997558594
1425.2291135996	1283.59997558594
1425.87131469532	1280
1426.51343268308	1281
1427.15546757042	1284.40002441406
1427.79741936488	1276.19995117188
1428.43928807403	1273.40002441406
1429.0810737054	1263.19995117188
1429.72277626656	1260
1430.36439576504	1260
1431.00593220841	1263.40002441406
1431.64738560419	1263.19995117188
1432.28875595995	1267.59997558594
1432.93004328324	1269
1433.57124758159	1260.80004882813
1434.21236886255	1261.19995117188
1434.85340713368	1259.19995117188
1435.49436240252	1264.19995117188
1436.13523467661	1263.40002441406
1436.77602396349	1263.19995117188
1437.41673027073	1255.40002441406
1438.05735360585	1263.59997558594
1438.69789397641	1260.40002441406
1439.33835138994	1258
1439.978725854	1253
1440.61901737612	1266
1441.25922596385	1267.59997558594
1441.89935162473	1268
1442.53939436631	1259.80004882813
1443.17935419612	1251.80004882813
1443.81923112171	1252.19995117188
1444.45902515061	1256.19995117188
1445.09873629038	1250.80004882813
1445.73836454854	1259.19995117188
1446.37790993265	1260.59997558594
1447.01737245024	1250
1447.65675210885	1254.40002441406
1448.29604891602	1267.59997558594
1448.93526287928	1256.59997558594
1449.57439400618	1261.19995117188
1450.21344230426	1261.59997558594
1450.85240778105	1252.59997558594
1451.49129044409	1258.80004882813
1452.13009030092	1262
1452.76880735907	1268.80004882813
1453.40744162608	1272
1454.04599310949	1264
1454.68446181683	1269.40002441406
1455.32284775564	1276.40002441406
1455.96115093345	1268
1456.5993713578	1270.40002441406
1457.23750903623	1264.19995117188
1457.87556397626	1257.19995117188
1458.51353618543	1262.19995117188
1459.15142567127	1244.59997558594
1459.78923244132	1241.59997558594
1460.42695650311	1263
1461.06459786417	1262
1461.70215653203	1257.80004882813
1462.33963251423	1246.80004882813
1462.97702581829	1251.59997558594
1463.61433645175	1261
1464.25156442214	1258.80004882813
1464.88870973699	1251.59997558594
1465.52577240382	1259.19995117188
1466.16275243017	1251.80004882813
1466.79964982356	1256
1467.43646459154	1258.59997558594
1468.07319674161	1263.80004882813
1468.70984628132	1261.59997558594
1469.34641321818	1263.19995117188
1469.98289755974	1263.19995117188
1470.6192993135	1254.80004882813
1471.25561848701	1247.19995117188
1471.89185508779	1255.59997558594
1472.52800912336	1244.40002441406
1473.16408060124	1247
1473.80006952897	1244.19995117188
1474.43597591407	1241.80004882813
1475.07179976406	1236.80004882813
1475.70754108647	1239.80004882813
1476.34319988883	1248.40002441406
1476.97877617865	1249.40002441406
1477.61426996345	1250.40002441406
1478.24968125077	1255.80004882813
1478.88501004812	1258.40002441406
1479.52025636303	1264.80004882813
1480.15542020302	1266.59997558594
1480.79050157561	1263.40002441406
1481.42550048832	1264.40002441406
1482.06041694867	1263.40002441406
1482.69525096418	1264.59997558594
1483.33000254237	1260
1483.96467169077	1258.80004882813
1484.59925841689	1264.40002441406
1485.23376272825	1249
1485.86818463237	1256.19995117188
1486.50252413677	1259.40002441406
1487.13678124896	1251.19995117188
1487.77095597646	1251.80004882813
1488.4050483268	1247.59997558594
1489.03905830749	1238.40002441406
1489.67298592604	1238
1490.30683118996	1248.80004882813
1490.9405941068	1246.59997558594
1491.57427468403	1253
1492.2078729292	1257.80004882813
1492.84138884981	1257.19995117188
1493.47482245338	1258.80004882813
1494.10817374742	1268.59997558594
1494.74144273944	1254.19995117188
1495.37462943696	1261.59997558594
1496.0077338475	1264.40002441406
1496.64075597856	1259
1497.27369583765	1253.40002441406
1497.9065534323	1246
1498.53932877001	1242.19995117188
1499.17202185829	1225.59997558594
1499.80463270465	1223.80004882813
1500.43716131661	1231.40002441406
1501.06960770167	1229.19995117188
1501.70197186735	1234.19995117188
1502.33425382116	1234
1502.96645357059	1241
1503.59857112317	1239.40002441406
1504.23060648641	1248.40002441406
1504.8625596678	1245.80004882813
1505.49443067486	1248.80004882813
1506.1262195151	1244.59997558594
1506.75792619602	1249.59997558594
1507.38955072513	1255
1508.02109310993	1257.40002441406
1508.65255335794	1256.59997558594
1509.28393147666	1258.80004882813
1509.91522747359	1250
1510.54644135624	1249.80004882813
1511.17757313212	1259.40002441406
1511.80862280872	1260.40002441406
1512.43959039356	1255.40002441406
1513.07047589413	1256.19995117188
1513.70127931795	1254.59997558594
1514.33200067251	1256
1514.96263996531	1250.59997558594
1515.59319720386	1245.80004882813
1516.22367239567	1239.59997558594
1516.85406554822	1237.80004882813
1517.48437666903	1236.19995117188
1518.1146057656	1244.59997558594
1518.74475284542	1246.40002441406
1519.374817916	1241.59997558594
1520.00480098483	1238.40002441406
1520.63470205942	1239.40002441406
1521.26452114726	1234.59997558594
1521.89425825586	1233.19995117188
1522.52391339271	1235.80004882813
1523.15348656531	1246.59997558594
1523.78297778116	1239.59997558594
1524.41238704775	1230.80004882813
1525.04171437259	1227.19995117188
1525.67095976317	1234
1526.30012322699	1220.59997558594
1526.92920477154	1231.40002441406
1527.55820440432	1218
1528.18712213283	1223.80004882813
1528.81595796455	1218.59997558594
1529.44471190699	1207
1530.07338396764	1200.59997558594
1530.70197415399	1215
1531.33048247353	1215.59997558594
1531.95890893377	1210.40002441406
1532.58725354219	1222.80004882813
1533.21551630629	1220.40002441406
1533.84369723356	1225.40002441406
1534.47179633148	1235
1535.09981360757	1245.19995117188
1535.72774906929	1238.59997558594
1536.35560272415	1241.80004882813
1536.98337457963	1239.80004882813
1537.61106464323	1244.19995117188
1538.23867292243	1249.19995117188
1538.86619942473	1247.40002441406
1539.49364415762	1233
1540.12100712857	1244.59997558594
1540.74828834509	1236
1541.37548781466	1229.40002441406
1542.00260554478	1229.19995117188
1542.62964154291	1227.40002441406
1543.25659581655	1228.80004882813
1543.8834683732	1224.19995117188
1544.51025922034	1223.40002441406
1545.13696836544	1223.19995117188
1545.76359581601	1221.80004882813
1546.39014157952	1227.59997558594
1547.01660566345	1211.59997558594
1547.64298807531	1221.59997558594
1548.26928882255	1220.59997558594
1548.89550791269	1224.80004882813
1549.52164535318	1218
1550.14770115153	1216.40002441406
1550.77367531521	1221.59997558594
1551.39956785171	1221.80004882813
1552.0253787685	1231.59997558594
1552.65110807307	1234
1553.2767557729	1229.40002441406
1553.90232187548	1223.80004882813
1554.52780638828	1227.40002441406
1555.15320931879	1232.19995117188
1555.77853067447	1228
1556.40377046282	1217.59997558594
1557.02892869132	1220.19995117188
1557.65400536744	1214.19995117188
1558.27900049866	1217
1558.90391409247	1225.19995117188
1559.52874615633	1231.40002441406
1560.15349669773	1242.59997558594
1560.77816572414	1237.80004882813
1561.40275324305	1240.80004882813
1562.02725926192	1236.40002441406
1562.65168378824	1245
1563.27602682948	1239.59997558594
1563.90028839311	1243.80004882813
1564.52446848662	1230
1565.14856711748	1236.59997558594
1565.77258429316	1237.59997558594
1566.39652002113	1241
1567.02037430887	1229.80004882813
1567.64414716387	1233.59997558594
1568.26783859357	1235.19995117188
1568.89144860547	1239.19995117188
1569.51497720703	1238.40002441406
1570.13842440573	1237.59997558594
1570.76179020904	1236.19995117188
1571.38507462442	1233.40002441406
1572.00827765936	1239.59997558594
1572.63139932132	1224.40002441406
1573.25443961777	1229.40002441406
1573.87739855618	1216.19995117188
1574.50027614402	1224.59997558594
1575.12307238877	1221.40002441406
1575.74578729789	1221.19995117188
1576.36842087885	1230.59997558594
1576.99097313912	1237.40002441406
1577.61344408616	1238.40002441406
1578.23583372745	1234.59997558594
1578.85814207046	1224.40002441406
1579.48036912264	1230
1580.10251489147	1234.40002441406
1580.72457938441	1214.80004882813
1581.34656260893	1230.40002441406
1581.9684645725	1225.19995117188
1582.59028528258	1219
1583.21202474663	1235.80004882813
1583.83368297212	1228.19995117188
1584.45525996652	1221.19995117188
1585.07675573728	1215
1585.69817029188	1213.59997558594
1586.31950363778	1221.19995117188
1586.94075578243	1209.59997558594
1587.5619267333	1205.59997558594
1588.18301649786	1206.40002441406
1588.80402508357	1199.19995117188
1589.42495249788	1209.59997558594
1590.04579874826	1198
1590.66656384217	1199.59997558594
1591.28724778707	1200.80004882813
1591.90785059042	1206.80004882813
1592.52837225968	1193.80004882813
1593.14881280232	1183.40002441406
1593.76917222578	1185
1594.38945053753	1196.80004882813
1595.00964774502	1193.40002441406
1595.62976385573	1196.80004882813
1596.24979887709	1199
1596.86975281657	1196.59997558594
1597.48962568164	1191.59997558594
1598.10941747974	1205.80004882813
1598.72912821832	1198.80004882813
1599.34875790486	1194.59997558594
1599.9683065468	1200.59997558594
1600.58777415159	1200.19995117188
1601.2071607267	1197.80004882813
1601.82646627958	1189.19995117188
1602.44569081769	1184.59997558594
1603.06483434846	1178.80004882813
1603.68389687937	1171.80004882813
1604.30287841786	1170.59997558594
1604.92177897139	1174.40002441406
1605.54059854741	1172.80004882813
1606.15933715337	1163.59997558594
1606.77799479672	1176.19995117188
1607.39657148492	1181.40002441406
1608.01506722542	1181.40002441406
1608.63348202566	1184.40002441406
1609.2518158931	1182.40002441406
1609.87006883519	1180
1610.48824085939	1188.19995117188
1611.10633197312	1191.59997558594
1611.72434218386	1186.80004882813
1612.34227149904	1187.59997558594
1612.96011992612	1186.59997558594
1613.57788747254	1189.19995117188
1614.19557414575	1186
1614.8131799532	1177.80004882813
1615.43070490234	1178.59997558594
1616.04814900061	1176.19995117188
1616.66551225545	1163.59997558594
1617.28279467433	1174.59997558594
1617.89999626467	1178
1618.51711703393	1181.80004882813
1619.13415698955	1177.80004882813
1619.75111613898	1179.40002441406
1620.36799448966	1176.59997558594
1620.98479204903	1188.40002441406
1621.60150882455	1186.40002441406
1622.21814482364	1184
1622.83470005376	1185.80004882813
1623.45117452235	1183.40002441406
1624.06756823685	1182.59997558594
1624.6838812047	1184.19995117188
1625.30011343335	1183
1625.91626493022	1162.80004882813
1626.53233570278	1168
1627.14832575845	1175.80004882813
1627.76423510468	1176.80004882813
1628.38006374891	1184.80004882813
1628.99581169857	1189.59997558594
1629.61147896111	1191.40002441406
1630.22706554397	1187
1630.84257145457	1188
1631.45799670038	1188.19995117188
1632.07334128881	1175.59997558594
1632.6886052273	1166
1633.3037885233	1164.80004882813
1633.91889118425	1163.80004882813
1634.53391321757	1164.59997558594
1635.1488546307	1172.80004882813
1635.76371543108	1165
1636.37849562616	1166.80004882813
1636.99319522335	1159
1637.60781423009	1160.40002441406
1638.22235265383	1167
1638.83681050198	1162.80004882813
1639.451187782	1180.80004882813
1640.0654845013	1170.19995117188
1640.67970066734	1171.59997558594
1641.29383628752	1170.19995117188
1641.9078913693	1170.80004882813
1642.5218659201	1162.19995117188
1643.13575994735	1167.19995117188
1643.74957345849	1167.59997558594
1644.36330646094	1170.59997558594
1644.97695896213	1161
1645.59053096951	1162.40002441406
1646.20402249049	1157
1646.8174335325	1171.19995117188
1647.43076410298	1171.59997558594
1648.04401420935	1178.40002441406
1648.65718385905	1180.19995117188
1649.2702730595	1197.40002441406
1649.88328181812	1200
1650.49621014236	1192.19995117188
1651.10905803963	1196.80004882813
1651.72182551735	1186.59997558594
1652.33451258297	1187.40002441406
1652.9471192439	1180.59997558594
1653.55964550757	1181.40002441406
1654.1720913814	1172.80004882813
1654.78445687283	1176.40002441406
1655.39674198926	1180.80004882813
1656.00894673814	1169.19995117188
1656.62107112688	1163
1657.23311516291	1162.59997558594
1657.84507885365	1166.80004882813
1658.45696220652	1157
1659.06876522895	1153.59997558594
1659.68048792835	1144.19995117188
1660.29213031217	1138.80004882813
1660.90369238779	1141.19995117188
1661.51517416267	1143.59997558594
1662.12657564421	1143
1662.73789683984	1138.80004882813
1663.34913775697	1142.19995117188
1663.96029840303	1138
1664.57137878544	1133.19995117188
1665.18237891161	1142.59997558594
1665.79329878897	1131.80004882813
1666.40413842493	1136.19995117188
1667.01489782691	1133.59997558594
1667.62557700233	1135.40002441406
1668.2361759586	1143.80004882813
1668.84669470315	1140.59997558594
1669.4571332434	1138.40002441406
1670.06749158675	1130
1670.67776974062	1130.40002441406
1671.28796771243	1127.19995117188
1671.8980855096	1131.40002441406
1672.50812313954	1123
1673.11808060967	1127.19995117188
1673.72795792739	1123.19995117188
1674.33775510013	1129
1674.9474721353	1131.19995117188
1675.55710904031	1137.80004882813
1676.16666582257	1131.19995117188
1676.7761424895	1133.80004882813
1677.38553904851	1127.19995117188
1677.99485550702	1116
1678.60409187243	1136.40002441406
1679.21324815215	1127
1679.8223243536	1125
1680.43132048419	1123.40002441406
1681.04023655132	1119
1681.64907256241	1124.40002441406
1682.25782852487	1121
1682.86650444611	1117.40002441406
1683.47510033353	1111.80004882813
1684.08361619455	1128
1684.69205203657	1129.59997558594
1685.300407867	1128
1685.90868369325	1127.40002441406
1686.51687952272	1128.40002441406
1687.12499536283	1123.19995117188
1687.73303122098	1125
1688.34098710457	1119.59997558594
1688.94886302101	1122.80004882813
1689.55665897772	1121.59997558594
1690.16437498208	1121.19995117188
1690.77201104152	1116.59997558594
1691.37956716342	1130
1691.9870433552	1118
1692.59443962426	1128.40002441406
1693.20175597801	1122.19995117188
1693.80899242384	1122.59997558594
1694.41614896916	1124.80004882813
1695.02322562138	1121
1695.63022238789	1129.40002441406
1696.23713927609	1118
1696.8439762934	1111.59997558594
1697.4507334472	1108.59997558594
1698.05741074491	1118.80004882813
1698.66400819391	1115.59997558594
1699.27052580161	1116.59997558594
1699.87696357542	1111.40002441406
1700.48332152272	1110.19995117188
1701.08959965092	1103
1701.69579796742	1106.19995117188
1702.30191647962	1098.80004882813
1702.90795519491	1095
1703.51391412069	1090.80004882813
1704.11979326437	1087.80004882813
1704.72559263332	1092
1705.33131223496	1091.59997558594
1705.93695207668	1095.59997558594
1706.54251216588	1090.59997558594
1707.14799250994	1090.80004882813
1707.75339311628	1086
1708.35871399227	1082.19995117188
1708.96395514532	1080.59997558594
1709.56911658282	1076.59997558594
