634.948122577771	1422.80004882813
635.690341530823	1422.40002441406
636.43246851086	1435
637.174503525845	1436.19995117188
637.916446583745	1442.19995117188
638.658297692538	1426.80004882813
639.400056860179	1426.80004882813
640.141724094637	1421.59997558594
640.883299403885	1427.19995117188
641.62478279588	1421.59997558594
642.366174278594	1436.19995117188
643.107473859989	1454.19995117188
643.848681548029	1445.19995117188
644.589797350679	1452
645.330821275901	1447.59997558594
646.071753331665	1453.19995117188
646.812593525922	1433.19995117188
647.553341866646	1438.80004882813
648.293998361798	1435
649.03456301933	1455
649.775035847216	1436.59997558594
650.515416853409	1431.19995117188
651.255706045874	1432.80004882813
651.995903432568	1431.19995117188
652.736009021453	1438.59997558594
653.476022820486	1452.19995117188
654.215944837629	1443
654.955775080842	1443.80004882813
655.695513558081	1442.19995117188
656.435160277301	1455.59997558594
657.174715246465	1440
657.914178473527	1451.59997558594
658.653549966449	1446
659.392829733176	1447.80004882813
660.132017781678	1432
660.871114119901	1450.80004882813
661.610118755803	1438.80004882813
662.349031697343	1451
663.087852952468	1460.19995117188
663.826582529139	1443.19995117188
664.565220435305	1440.80004882813
665.30376667892	1437.59997558594
666.04222126794	1434.40002441406
666.780584210316	1432
667.518855514	1429.40002441406
668.25703518694	1445.40002441406
668.995123237096	1460.80004882813
669.733119672413	1448.40002441406
670.471024500842	1454.40002441406
671.208837730333	1455.59997558594
671.946559368839	1446
672.684189424308	1445.19995117188
673.421727904689	1445
674.159174817929	1437.19995117188
674.896530171977	1465.80004882813
675.633793974786	1450.40002441406
676.370966234295	1460.80004882813
677.108046958461	1471
677.845036155219	1452
678.581933832528	1452
679.318739998323	1463.40002441406
680.055454660558	1469.19995117188
680.792077827172	1476.19995117188
681.528609506116	1469
682.265049705331	1482.19995117188
683.001398432759	1468
683.737655696349	1453.40002441406
684.47382150404	1449.40002441406
685.20989586378	1439.80004882813
685.945878783503	1449
686.68177027116	1442.80004882813
687.417570334688	1434.80004882813
688.153278982032	1447.19995117188
688.888896221129	1451.80004882813
689.624422059921	1456.40002441406
690.359856506349	1467.80004882813
691.095199568354	1460.59997558594
691.830451253874	1469.19995117188
692.565611570844	1464.59997558594
693.300680527212	1469.59997558594
694.03565813091	1469.19995117188
694.770544389877	1475.80004882813
695.505339312053	1458.19995117188
696.240042905372	1472.80004882813
696.974655177772	1466.19995117188
697.70917613719	1473
698.443605791561	1473.59997558594
699.177944148826	1484.19995117188
699.912191216909	1472.40002441406
700.646347003755	1485
701.380411517295	1486.80004882813
702.114384765465	1482.19995117188
702.848266756195	1473.19995117188
703.582057497421	1489.80004882813
704.315756997074	1477
705.049365263089	1486.80004882813
705.782882303399	1482.40002441406
706.516308125936	1494.80004882813
707.249642738626	1474.40002441406
707.982886149403	1468.59997558594
708.716038366204	1482.80004882813
709.449099396949	1479.80004882813
710.182069249577	1480.59997558594
710.914947932009	1457.80004882813
711.647735452181	1446.59997558594
712.380431818022	1458.80004882813
713.113037037454	1450
713.845551118411	1451
714.577974068818	1438
715.310305896604	1466.19995117188
716.042546609694	1477
716.774696216013	1472.80004882813
717.506754723493	1482.40002441406
718.238722140053	1474.40002441406
718.970598473624	1487
719.702383732127	1477.59997558594
720.43407792349	1464.19995117188
721.165681055634	1466.80004882813
721.897193136486	1484.80004882813
722.628614173966	1474.80004882813
723.359944175997	1479.80004882813
724.091183150505	1481
724.822331105412	1466
725.553388048638	1455.40002441406
726.284353988106	1455.59997558594
727.015228931734	1464.40002441406
727.746012887449	1466.59997558594
728.476705863162	1482
729.207307866803	1487
729.937818906289	1500.19995117188
730.668238989535	1487.40002441406
731.398568124459	1487.40002441406
732.128806318986	1479
732.858953581034	1471.19995117188
733.589009918514	1473.40002441406
734.318975339348	1472.40002441406
735.048849851452	1468.80004882813
735.778633462744	1478.59997558594
736.508326181137	1471
737.237928014549	1456.40002441406
737.967438970897	1455.19995117188
738.696859058095	1460.40002441406
739.426188284054	1458.59997558594
740.155426656692	1445.59997558594
740.884574183922	1462.80004882813
741.613630873659	1455.40002441406
742.342596733815	1485.59997558594
743.071471772302	1480.40002441406
743.800255997034	1483.59997558594
744.528949415921	1467.59997558594
745.257552036877	1469.80004882813
745.986063867811	1471.19995117188
746.714484916638	1482
747.442815191261	1486
748.171054699597	1480.40002441406
748.899203449554	1484.40002441406
749.627261449039	1480
750.355228705966	1474
751.083105228239	1492.19995117188
751.810891023765	1498.80004882813
752.538586100459	1480.80004882813
753.266190466218	1478.80004882813
753.99370412896	1489.59997558594
754.721127096582	1481.80004882813
755.448459377	1488.59997558594
756.175700978114	1481
756.902851907828	1480.59997558594
757.629912174055	1481.59997558594
758.356881784688	1466
759.083760747639	1476.19995117188
759.810549070817	1469
760.537246762113	1476.19995117188
761.263853829442	1471.59997558594
761.990370280698	1483.80004882813
762.716796123791	1484.80004882813
763.443131366618	1496.19995117188
764.169376017082	1486.40002441406
764.895530083085	1494
765.621593572527	1498
766.347566493312	1505
767.073448853336	1509.59997558594
767.799240660502	1500.80004882813
768.524941922707	1489
769.250552647854	1513
769.976072843836	1523.40002441406
770.701502518551	1521
771.426841679905	1533.40002441406
772.152090335793	1532.80004882813
772.877248494107	1541.19995117188
773.602316162747	1539.40002441406
774.327293349609	1546.40002441406
775.052180062592	1547
775.776976309589	1568.80004882813
776.501682098496	1551.80004882813
777.226297437206	1523
777.950822333616	1530.19995117188
778.675256795621	1520.80004882813
779.399600831111	1531
780.123854447983	1527.40002441406
780.84801765413	1534.19995117188
781.572090457441	1516.19995117188
782.296072865811	1517.59997558594
783.019964887131	1507.40002441406
783.743766529297	1500
784.467477800194	1491
785.191098707719	1494.19995117188
785.914629259756	1499
786.638069464194	1490.19995117188
787.361419328932	1488.19995117188
788.084678861852	1476
788.807848070845	1474
789.530926963798	1474.80004882813
790.253915548602	1461.59997558594
790.976813833144	1464.59997558594
791.699621825307	1456.19995117188
792.422339532986	1470
793.144966964061	1463.59997558594
793.86750412642	1467.19995117188
794.589951027946	1484.19995117188
795.312307676536	1474.59997558594
796.03457408006	1478
796.756750246417	1486.80004882813
797.478836183477	1485
798.200831899137	1474.19995117188
798.92273740127	1472.40002441406
799.644552697769	1473
800.36627779651	1471.19995117188
801.087912705374	1493
801.809457432251	1480.40002441406
802.530911985017	1489.19995117188
803.252276371558	1501.40002441406
803.973550599748	1498.19995117188
804.694734677472	1486
805.415828612611	1505.40002441406
806.136832413045	1489.40002441406
806.857746086646	1493.19995117188
807.578569641305	1486
808.299303084892	1501
809.019946425289	1509.40002441406
809.740499670372	1497
810.460962828022	1498.80004882813
811.181335906114	1479.40002441406
811.901618912524	1489.80004882813
812.621811855131	1507.40002441406
813.341914741809	1490
814.061927580433	1478
814.781850378881	1485.59997558594
815.501683145025	1500.59997558594
816.221425886743	1484.19995117188
816.941078611903	1476.40002441406
817.660641328387	1473.80004882813
818.380114044065	1475
819.099496766808	1474.80004882813
819.818789504492	1473.19995117188
820.53799226499	1465.59997558594
821.257105056168	1468.80004882813
821.976127885904	1463.40002441406
822.695060762064	1480.80004882813
823.413903692525	1494
824.132656685151	1510
824.851319747817	1492.59997558594
825.569892888388	1512
826.288376114739	1529.19995117188
827.006769434737	1522
827.725072856249	1508.40002441406
828.443286387142	1505
829.161410035285	1489.59997558594
829.87944380855	1476.19995117188
830.597387714798	1485.40002441406
831.315241761898	1495.40002441406
832.033005957715	1508
832.750680310119	1501.59997558594
833.468264826969	1496.59997558594
834.18575951614	1495.59997558594
834.903164385486	1495.19995117188
835.620479442878	1493.40002441406
836.337704696181	1489.59997558594
837.054840153255	1490.19995117188
837.771885821962	1474
838.488841710172	1484.19995117188
839.20570782574	1476.59997558594
839.922484176531	1477.40002441406
840.639170770409	1481.80004882813
841.355767615231	1481.40002441406
842.072274718864	1472.80004882813
842.788692089164	1461.19995117188
843.505019733993	1483.80004882813
844.221257661209	1488.59997558594
844.937405878676	1487.80004882813
845.65346439425	1482.40002441406
846.369433215789	1474.59997558594
847.085312351156	1470.19995117188
847.801101808205	1468.59997558594
848.516801594793	1454.80004882813
849.232411718781	1456
849.947932188021	1459.40002441406
850.663363010376	1445.80004882813
851.378704193698	1474.40002441406
852.093955745842	1485.19995117188
852.809117674669	1497.59997558594
853.524189988028	1485.40002441406
854.239172693778	1490.59997558594
854.954065799768	1492
855.668869313857	1481.59997558594
856.383583243899	1467.40002441406
857.098207597743	1465.19995117188
857.812742383246	1460.59997558594
858.527187608255	1458.19995117188
859.241543280628	1454.59997558594
859.955809408218	1472.59997558594
860.669985998868	1471
861.384073060437	1477.40002441406
862.098070600772	1489.19995117188
862.811978627724	1495.40002441406
863.52579714914	1492.80004882813
864.239526172873	1489.80004882813
864.953165706776	1463.59997558594
865.666715758687	1479.80004882813
866.380176336464	1481.59997558594
867.093547447951	1471
867.806829100996	1471.80004882813
868.520021303444	1466.40002441406
869.233124063149	1457.40002441406
869.94613738795	1463.40002441406
870.659061285693	1466.19995117188
871.37189576423	1479.59997558594
872.084640831403	1480.40002441406
872.797296495057	1494.80004882813
873.509862763039	1497.59997558594
874.22233964319	1481.40002441406
874.934727143353	1483.80004882813
875.647025271374	1472.80004882813
876.359234035097	1467.80004882813
877.071353442361	1449
877.783383501015	1449
878.495324218895	1462.19995117188
879.207175603844	1464.19995117188
879.918937663705	1465
880.630610406318	1483.19995117188
881.342193839524	1481.80004882813
882.053687971161	1484.40002441406
882.765092809069	1477.59997558594
883.476408361091	1472.59997558594
884.187634635066	1462.80004882813
884.898771638828	1456.80004882813
885.609819380221	1467.80004882813
886.320777867076	1448.80004882813
887.031647107236	1464
887.742427108536	1465.19995117188
888.453117878816	1465
889.16371942591	1463.59997558594
889.874231757652	1474.40002441406
890.584654881883	1469.80004882813
891.294988806434	1466.40002441406
892.005233539141	1473.59997558594
892.715389087837	1486.40002441406
893.42545546036	1474.59997558594
894.135432664543	1481.19995117188
894.845320708216	1494.80004882813
895.555119599216	1496.80004882813
896.264829345375	1505.80004882813
896.974449954526	1508.80004882813
897.683981434496	1494
898.393423793125	1500.59997558594
899.102777038235	1511.40002441406
899.812041177664	1494
900.521216219239	1484.40002441406
901.230302170793	1493.59997558594
901.939299040155	1500.80004882813
902.64820683515	1481.19995117188
903.357025563612	1493.59997558594
904.065755233368	1487.40002441406
904.774395852247	1478.80004882813
905.482947428076	1500.40002441406
906.191409968682	1495.40002441406
906.899783481897	1498.40002441406
907.608067975538	1499.19995117188
908.316263457443	1496.19995117188
909.02436993543	1497.40002441406
909.732387417327	1488.19995117188
910.440315910959	1491.59997558594
911.148155424154	1489
911.855905964731	1493.59997558594
912.563567540521	1487.19995117188
913.271140159339	1481.19995117188
913.978623829017	1479.19995117188
914.686018557374	1475.19995117188
915.393324352237	1470.80004882813
916.100541221421	1469.59997558594
916.807669172752	1466.59997558594
917.514708214054	1467.59997558594
918.221658353142	1462.80004882813
918.928519597843	1442.19995117188
919.635291955976	1462.40002441406
920.341975435358	1464.19995117188
921.048570043813	1482.80004882813
921.75507578916	1487
922.461492679212	1494.80004882813
923.167820721795	1501.40002441406
923.874059924726	1497
924.58021029582	1484.19995117188
925.286271842893	1500.59997558594
925.992244573769	1493.80004882813
926.698128496262	1499.80004882813
927.403923618184	1490.19995117188
928.109629947355	1475.59997558594
928.815247491593	1486.40002441406
929.520776258708	1484.40002441406
930.226216256519	1487.40002441406
930.931567492841	1492.19995117188
931.636829975482	1492
932.342003712263	1484
933.047088710995	1483
933.752084979491	1474.59997558594
934.456992525564	1467.19995117188
935.161811357024	1463.19995117188
935.866541481688	1457
936.571182907363	1453.59997558594
937.275735641861	1437.19995117188
937.980199692995	1444.80004882813
938.684575068572	1452.80004882813
939.388861776411	1459.40002441406
940.093059824311	1447.40002441406
940.797169220085	1444
941.501189971544	1449
942.205122086495	1455.59997558594
942.908965572751	1457.80004882813
943.612720438111	1458.80004882813
944.316386690391	1444.59997558594
945.019964337391	1457.80004882813
945.723453386924	1464.80004882813
946.426853846795	1467.80004882813
947.130165724808	1466.80004882813
947.83338902877	1457
948.536523766488	1444.80004882813
949.239569945764	1464.80004882813
949.942527574402	1463.19995117188
950.64539666021	1455.19995117188
951.348177210993	1435.19995117188
952.050869234548	1438.80004882813
952.753472738683	1439.19995117188
953.455987731199	1431.40002441406
954.158414219898	1441.19995117188
954.860752212587	1440.59997558594
955.563001717061	1446.40002441406
956.265162741124	1445.19995117188
956.967235292576	1438
957.669219379224	1427.19995117188
958.371115008857	1439.59997558594
959.072922189283	1424.19995117188
959.774640928301	1415.80004882813
960.476271233708	1431.80004882813
961.177813113301	1431.40002441406
961.879266574882	1441.80004882813
962.580631626248	1428.19995117188
963.281908275194	1427
963.98309652952	1430.59997558594
964.684196397022	1443.40002441406
965.3852078855	1442.19995117188
966.086131002745	1445.40002441406
966.786965756555	1447.59997558594
967.487712154726	1447.80004882813
968.188370205055	1449.19995117188
968.888939915331	1434.19995117188
969.589421293352	1447.40002441406
970.289814346909	1451.19995117188
970.990119083801	1474.19995117188
971.690335511819	1464.19995117188
972.39046363875	1476.19995117188
973.090503472398	1472.59997558594
973.790455020545	1453.40002441406
974.490318290987	1446.40002441406
975.190093291516	1439.80004882813
975.889780029923	1446
976.589378513998	1445.19995117188
977.288888751527	1453.19995117188
977.988310750308	1457.19995117188
978.687644518122	1456.80004882813
979.386890062767	1461.80004882813
980.086047392025	1441.80004882813
980.785116513689	1451
981.484097435542	1451.19995117188
982.182990165377	1451.59997558594
982.88179471098	1448.40002441406
983.580511080137	1451.19995117188
984.279139280632	1436.59997558594
984.977679320253	1434.40002441406
985.67613120679	1426
986.374494948027	1437.80004882813
987.072770551745	1451.80004882813
987.770958025731	1445
988.469057377772	1441.40002441406
989.167068615649	1436.19995117188
989.864991747145	1438.19995117188
990.562826780047	1440.59997558594
991.260573722134	1441.40002441406
991.958232581195	1441.59997558594
992.655803365003	1444.59997558594
993.353286081346	1435.19995117188
994.050680738006	1441.19995117188
994.74798734276	1454.19995117188
995.44520590339	1466.59997558594
996.142336427681	1447.59997558594
996.839378923407	1441
997.536333398348	1448.80004882813
998.233199860289	1440.19995117188
998.929978317004	1441.40002441406
999.626668776274	1447.59997558594
1000.32327124587	1441.19995117188
1001.01978573359	1427
1001.71621224718	1421.59997558594
1002.41255079445	1421.40002441406
1003.10880138315	1427.40002441406
1003.80496402107	1442.80004882813
1004.50103871599	1442.40002441406
1005.19702547567	1462.80004882813
1005.8929243079	1471.59997558594
1006.58873522045	1473
1007.2844582211	1470.19995117188
1007.98009331761	1477.80004882813
1008.67564051776	1456.19995117188
1009.37109982933	1469.59997558594
1010.06647126009	1462.59997558594
1010.7617548178	1458.19995117188
1011.45695051026	1456.80004882813
1012.15205834522	1457
1012.84707833045	1453.19995117188
1013.54201047373	1470.80004882813
1014.23685478284	1455.80004882813
1014.93161126553	1459.19995117188
1015.62627992959	1450
1016.32086078277	1462.40002441406
1017.01535383285	1452
1017.70975908761	1452.80004882813
1018.40407655479	1458.59997558594
1019.09830624219	1465.19995117188
1019.79244815755	1464.59997558594
1020.48650230866	1467.59997558594
1021.18046870328	1472.80004882813
1021.87434734917	1475
1022.56813825411	1480.19995117188
1023.26184142584	1479
1023.95545687216	1463.59997558594
1024.64898460082	1469.80004882813
1025.34242461957	1451.80004882813
1026.0357769362	1460.40002441406
1026.72904155846	1452.40002441406
1027.42221849412	1461.40002441406
1028.11530775094	1443.59997558594
1028.80830933668	1455.19995117188
1029.50122325911	1446.59997558594
1030.19404952599	1453.59997558594
1030.88678814508	1464.80004882813
1031.57943912414	1449.80004882813
1032.27200247093	1440
1032.96447819323	1430.19995117188
1033.65686629878	1431
1034.34916679534	1443.19995117188
1035.04137969068	1448
1035.73350499256	1438
1036.42554270874	1451.19995117188
1037.11749284697	1438.59997558594
1037.80935541501	1438.40002441406
1038.50113042062	1442.19995117188
1039.19281787156	1437.19995117188
1039.88441777559	1445
1040.57593014046	1442
1041.26735497393	1444.40002441406
1041.95869228376	1438.59997558594
1042.6499420777	1443
1043.3411043635	1439.59997558594
1044.03217914893	1437.59997558594
1044.72316644174	1440.80004882813
1045.41406624968	1447.59997558594
1046.1048785805	1452.59997558594
1046.79560344197	1450.59997558594
1047.48624084182	1451.80004882813
1048.17679078783	1438
1048.86725328774	1429.80004882813
1049.55762834929	1438.40002441406
1050.24791598025	1420.59997558594
1050.93811618837	1424
1051.62822898139	1430.40002441406
1052.31825436707	1417.80004882813
1053.00819235315	1428.19995117188
1053.6980429474	1433.59997558594
1054.38780615755	1446.40002441406
1055.07748199136	1435.40002441406
1055.76707045658	1427.19995117188
1056.45657156095	1418.19995117188
1057.14598531222	1427.40002441406
1057.83531171814	1417
1058.52455078646	1422
1059.21370252494	1439.80004882813
1059.90276694129	1438.59997558594
1060.5917440433	1449
1061.28063383868	1449.59997558594
1061.9694363352	1445.80004882813
1062.65815154059	1443.40002441406
1063.34677946261	1442.19995117188
1064.03532010899	1434.40002441406
1064.72377348748	1424.40002441406
1065.41213960583	1425.19995117188
1066.10041847177	1426.80004882813
1066.78861009306	1424
1067.47671447743	1418.59997558594
1068.16473163263	1432
1068.85266156639	1457.19995117188
1069.54050428647	1450.19995117188
1070.2282598006	1453.80004882813
1070.91592811652	1445.80004882813
1071.60350924198	1422.80004882813
1072.29100318471	1443.59997558594
1072.97840995245	1429.80004882813
1073.66572955295	1439.80004882813
1074.35296199394	1437.19995117188
1075.04010728316	1437.80004882813
1075.72716542836	1431
1076.41413643726	1445
1077.10102031761	1421.80004882813
1077.78781707715	1432.59997558594
1078.4745267236	1411
1079.16114926471	1430.40002441406
1079.84768470822	1426.80004882813
1080.53413306185	1431.80004882813
1081.22049433336	1433.59997558594
1081.90676853046	1449.40002441406
1082.5929556609	1454.80004882813
1083.27905573241	1450.19995117188
1083.96506875272	1453.40002441406
1084.65099472957	1447.19995117188
1085.3368336707	1428.19995117188
1086.02258558383	1426.59997558594
1086.70825047669	1423.19995117188
1087.39382835703	1433.59997558594
1088.07931923257	1427.80004882813
1088.76472311104	1431.80004882813
1089.45004000018	1433.59997558594
1090.13526990771	1435.80004882813
1090.82041284137	1427.40002441406
1091.50546880889	1440.19995117188
1092.19043781799	1429.80004882813
1092.87531987642	1412
1093.56011499188	1415.80004882813
1094.24482317212	1406.19995117188
1094.92944442486	1413.59997558594
1095.61397875783	1417.19995117188
1096.29842617876	1423.80004882813
1096.98278669537	1429.19995117188
1097.6670603154	1421
1098.35124704656	1441.19995117188
1099.03534689659	1437.40002441406
1099.71935987322	1436.40002441406
1100.40328598416	1435.19995117188
1101.08712523713	1440
1101.77087763988	1439.40002441406
1102.45454320012	1429
1103.13812192557	1413.80004882813
1103.82161382396	1427.59997558594
1104.50501890301	1428.19995117188
1105.18833717045	1439
1105.87156863399	1437.80004882813
1106.55471330137	1441.40002441406
1107.2377711803	1430.40002441406
1107.9207422785	1446.59997558594
1108.60362660369	1445
1109.2864241636	1446
1109.96913496594	1441
1110.65175901844	1426.80004882813
1111.33429632882	1422.59997558594
1112.01674690479	1424.40002441406
1112.69911075408	1429.19995117188
1113.38138788439	1415.40002441406
1114.06357830346	1408.40002441406
1114.745682019	1403.40002441406
1115.42769903872	1429.19995117188
1116.10962937035	1430.19995117188
1116.7914730216	1435.59997558594
1117.47323000018	1450.80004882813
1118.15490031382	1451.59997558594
1118.83648397022	1437.80004882813
1119.51798097712	1444
1120.1993913422	1425.19995117188
1120.88071507321	1410.40002441406
1121.56195217784	1415.40002441406
1122.24310266381	1412.80004882813
1122.92416653884	1402.59997558594
1123.60514381064	1409.80004882813
1124.28603448692	1413.80004882813
1124.9668385754	1432.19995117188
1125.64755608378	1442.19995117188
1126.32818701978	1436.80004882813
1127.00873139111	1430.59997558594
1127.68918920548	1441.19995117188
1128.3695604706	1430.80004882813
1129.04984519419	1437.80004882813
1129.73004338394	1429.80004882813
1130.41015504758	1440.40002441406
1131.09018019281	1420
1131.77011882734	1411.80004882813
1132.44997095888	1414.80004882813
1133.12973659514	1426.40002441406
1133.80941574381	1433
1134.48900841263	1439.59997558594
1135.16851460927	1440.59997558594
1135.84793434147	1434.80004882813
1136.52726761692	1428.80004882813
1137.20651444333	1428.19995117188
1137.8856748284	1421
1138.56474877984	1424.19995117188
1139.24373630536	1422.80004882813
1139.92263741265	1416.59997558594
1140.60145210943	1437.19995117188
1141.28018040339	1436.59997558594
1141.95882230225	1433.59997558594
1142.6373778137	1421.40002441406
1143.31584694545	1427.19995117188
1143.99422970519	1423.40002441406
1144.67252610064	1427.59997558594
1145.35073613949	1410.19995117188
1146.02885982944	1403.80004882813
1146.7068971782	1406.59997558594
1147.38484819347	1400.59997558594
1148.06271288294	1404
1148.74049125432	1409.59997558594
1149.41818331531	1420.80004882813
1150.0957890736	1428.40002441406
1150.77330853689	1427.19995117188
1151.45074171289	1416.40002441406
1152.12808860928	1409.80004882813
1152.80534923378	1410.40002441406
1153.48252359407	1403.59997558594
1154.15961169786	1406.80004882813
1154.83661355283	1405.59997558594
1155.51352916669	1408.40002441406
1156.19035854713	1410
1156.86710170185	1407.40002441406
1157.54375863855	1426.19995117188
1158.22032936491	1412
1158.89681388863	1417
1159.57321221741	1426.19995117188
1160.24952435894	1409.40002441406
1160.92575032092	1427
1161.60189011103	1426.40002441406
1162.27794373697	1413.80004882813
1162.95391120644	1411
1163.62979252712	1413.40002441406
1164.3055877067	1420.19995117188
1164.98129675288	1428.19995117188
1165.65691967336	1424.59997558594
1166.33245647581	1413.19995117188
1167.00790716792	1432.40002441406
1167.6832717574	1435.59997558594
1168.35855025193	1411.19995117188
1169.0337426592	1412.59997558594
1169.70884898689	1402
1170.3838692427	1403.80004882813
1171.05880343431	1402.40002441406
1171.73365156941	1403.40002441406
1172.40841365569	1417.80004882813
1173.08308970083	1424.59997558594
1173.75767971253	1424.80004882813
1174.43218369847	1415.80004882813
1175.10660166633	1413.19995117188
1175.7809336238	1397
1176.45517957857	1392.80004882813
1177.12933953832	1389.59997558594
1177.80341351073	1396.40002441406
1178.47740150349	1406.80004882813
1179.15130352429	1417
1179.8251195808	1414.80004882813
1180.49884968071	1430.80004882813
1181.1724938317	1424.40002441406
1181.84605204145	1419
1182.51952431766	1416.59997558594
1183.19291066799	1418.19995117188
1183.86621110013	1428.19995117188
1184.53942562176	1446.19995117188
1185.21255424057	1439
1185.88559696422	1440.40002441406
1186.55855380041	1439.19995117188
1187.2314247568	1436.59997558594
1187.90420984109	1434.19995117188
1188.57690906095	1429
1189.24952242405	1438.19995117188
1189.92204993808	1439.40002441406
1190.59449161071	1435
1191.26684744962	1448.40002441406
1191.93911746249	1440.40002441406
1192.61130165699	1429.19995117188
1193.28340004081	1432.59997558594
1193.95541262161	1430.40002441406
1194.62733940707	1429
1195.29918040487	1416.40002441406
1195.97093562269	1428.59997558594
1196.64260506819	1421.59997558594
1197.31418874905	1421.40002441406
1197.98568667295	1419.59997558594
1198.65709884755	1421.80004882813
1199.32842528053	1422.19995117188
1199.99966597957	1417
1200.67082095234	1410.19995117188
1201.3418902065	1401.59997558594
1202.01287374974	1399.59997558594
1202.68377158971	1411
1203.3545837341	1414.40002441406
1204.02531019057	1410
1204.6959509668	1418
1205.36650607045	1413.19995117188
1206.03697550919	1419.80004882813
1206.70735929069	1406.59997558594
1207.37765742263	1413.80004882813
1208.04786991266	1423.80004882813
1208.71799676846	1412
1209.38803799769	1407.80004882813
1210.05799360803	1411.19995117188
1210.72786360714	1413.80004882813
1211.39764800268	1424
1212.06734680233	1398.40002441406
1212.73696001375	1416.59997558594
1213.4064876446	1410.40002441406
1214.07592970255	1402.59997558594
1214.74528619526	1404.80004882813
1215.4145571304	1396
1216.08374251564	1403
1216.75284235863	1388.80004882813
1217.42185666704	1401.80004882813
1218.09078544854	1395.80004882813
1218.75962871078	1390.19995117188
1219.42838646143	1392.40002441406
1220.09705870816	1392
1220.76564545861	1408.80004882813
1221.43414672046	1412.40002441406
1222.10256250136	1420.40002441406
1222.77089280898	1412.80004882813
1223.43913765098	1413.59997558594
1224.107297035	1411.59997558594
1224.77537096873	1411.59997558594
1225.44335945981	1406.80004882813
1226.1112625159	1401.40002441406
1226.77908014467	1404.59997558594
1227.44681235376	1403.19995117188
1228.11445915085	1418.19995117188
1228.78202054357	1407.19995117188
1229.44949653961	1406.59997558594
1230.11688714659	1396.40002441406
1230.7841923722	1386.19995117188
1231.45141222407	1400.19995117188
1232.11854670988	1394.40002441406
1232.78559583726	1386.40002441406
1233.45255961388	1399.19995117188
1234.1194380474	1392
1234.78623114546	1388.80004882813
1235.45293891572	1404.19995117188
1236.11956136583	1404.19995117188
1236.78609850345	1412
1237.45255033623	1397.40002441406
1238.11891687182	1401.59997558594
1238.78519811788	1397
1239.45139408205	1402.80004882813
1240.11750477198	1392.59997558594
1240.78353019534	1384.40002441406
1241.44947035976	1397
1242.11532527291	1391.40002441406
1242.78109494242	1388.40002441406
1243.44677937595	1394.40002441406
1244.11237858115	1393.80004882813
1244.77789256567	1385.19995117188
1245.44332133715	1397.40002441406
1246.10866490325	1397.40002441406
1246.7739232716	1392.59997558594
1247.43909644987	1399
1248.10418444569	1409
1248.76918726671	1407
1249.43410492059	1399
1250.09893741496	1396.40002441406
1250.76368475747	1386.40002441406
1251.42834695576	1383.80004882813
1252.09292401749	1411.19995117188
1252.75741595029	1402.19995117188
1253.42182276182	1400.19995117188
1254.08614445971	1412.40002441406
1254.75038105161	1401.80004882813
1255.41453254515	1393.80004882813
1256.07859894799	1388.80004882813
1256.74258026777	1381
1257.40647651213	1378.19995117188
1258.0702876887	1373.59997558594
1258.73401380514	1372.19995117188
1259.39765486908	1374.19995117188
1260.06121088817	1400.40002441406
1260.72468187004	1399
1261.38806782233	1389.40002441406
1262.05136875269	1406.19995117188
1262.71458466875	1389.80004882813
1263.37771557815	1380.40002441406
1264.04076148854	1385.19995117188
1264.70372240753	1369.19995117188
1265.3665983428	1374.19995117188
1266.02938930195	1382
1266.69209529263	1376
1267.35471632249	1385.80004882813
1268.01725239914	1384.19995117188
1268.67970353024	1386
1269.34206972342	1387.40002441406
1270.00435098631	1369.40002441406
1270.66654732655	1371.19995117188
1271.32865875177	1369.19995117188
1271.9906852696	1371
1272.65262688768	1388
1273.31448361365	1394.40002441406
1273.97625545514	1407.59997558594
1274.63794241978	1402.19995117188
1275.2995445152	1397.59997558594
1275.96106174903	1402.80004882813
1276.62249412892	1395.40002441406
1277.28384166248	1401.59997558594
1277.94510435735	1395
1278.60628222116	1388.40002441406
1279.26737526155	1386.40002441406
1279.92838348613	1378.80004882813
1280.58930690255	1371.19995117188
1281.25014551842	1378
1281.91089934139	1377
1282.57156837907	1379.59997558594
1283.2321526391	1392.40002441406
1283.89265212911	1383.59997558594
1284.55306685671	1371.80004882813
1285.21339682955	1374.19995117188
1285.87364205525	1360
1286.53380254142	1361.80004882813
1287.19387829571	1351.19995117188
1287.85386932573	1352.40002441406
1288.51377563911	1359
1289.17359724348	1367.19995117188
1289.83333414646	1372.19995117188
1290.49298635567	1376.59997558594
1291.15255387874	1370
1291.8120367233	1378.19995117188
1292.47143489696	1362.40002441406
1293.13074840736	1369
1293.7899772621	1365.59997558594
1294.44912146882	1378
1295.10818103513	1378.40002441406
1295.76715596866	1376.59997558594
1296.42604627704	1379.59997558594
1297.08485196787	1369
1297.74357304878	1388
1298.4022095274	1393.40002441406
1299.06076141134	1376.59997558594
1299.71922870821	1393
1300.37761142565	1390
1301.03590957126	1386.40002441406
1301.69412315268	1384.40002441406
1302.3522521775	1378
1303.01029665336	1382.19995117188
1303.66825658787	1393.80004882813
1304.32613198865	1397
1304.98392286332	1391.19995117188
1305.64162921948	1401.40002441406
1306.29925106476	1402.19995117188
1306.95678840677	1387.80004882813
1307.61424125312	1386.80004882813
1308.27160961145	1385.59997558594
1308.92889348934	1399.19995117188
1309.58609289443	1384.40002441406
1310.24320783432	1387.40002441406
1310.90023831664	1386.19995117188
1311.55718434898	1372.19995117188
1312.21404593897	1370.59997558594
1312.87082309421	1382.19995117188
1313.52751582233	1377.80004882813
1314.18412413092	1385.80004882813
1314.84064802761	1388.59997558594
1315.49708752	1389
1316.1534426157	1397.80004882813
1316.80971332233	1400.40002441406
1317.46589964749	1395.80004882813
1318.1220015988	1397.59997558594
1318.77801918386	1398.80004882813
1319.43395241028	1405.80004882813
1320.08980128567	1395
1320.74556581764	1403.19995117188
1321.4012460138	1397.80004882813
1322.05684188176	1397.80004882813
1322.71235342911	1393.19995117188
1323.36778066347	1400.19995117188
1324.02312359245	1376.80004882813
1324.67838222365	1393.40002441406
1325.33355656468	1406.80004882813
1325.98864662314	1395
1326.64365240663	1385.80004882813
1327.29857392277	1392.80004882813
1327.95341117915	1392.80004882813
1328.60816418339	1385.40002441406
1329.26283294308	1396
1329.91741746582	1381.59997558594
1330.57191775923	1383.40002441406
1331.2263338309	1375.59997558594
1331.88066568843	1376.19995117188
1332.53491333943	1376.40002441406
1333.1890767915	1374.80004882813
1333.84315605224	1390.19995117188
1334.49715112925	1383.19995117188
1335.15106203013	1375.80004882813
1335.80488876249	1378.80004882813
1336.45863133391	1362.80004882813
1337.112289752	1374.19995117188
1337.76586402437	1374.19995117188
1338.4193541586	1368.19995117188
1339.0727601623	1380
1339.72608204306	1396.40002441406
1340.37931980849	1380.19995117188
1341.03247346617	1386
1341.68554302372	1384.40002441406
1342.33852848871	1379
1342.99142986876	1380.19995117188
1343.64424717145	1383.19995117188
1344.29698040438	1380.59997558594
1344.94962957515	1390.40002441406
1345.60219469135	1401.19995117188
1346.25467576058	1401.19995117188
1346.90707279042	1398.19995117188
1347.55938578848	1402.19995117188
1348.21161476235	1401
1348.86375971962	1391.80004882813
1349.51582066787	1397.80004882813
1350.16779761472	1412.40002441406
1350.81969056774	1407.80004882813
1351.47149953453	1405.19995117188
1352.12322452269	1418.80004882813
1352.77486553979	1398.19995117188
1353.42642259344	1401.59997558594
1354.07789569122	1404.40002441406
1354.72928484072	1402
1355.38059004953	1418
1356.03181132525	1416.19995117188
1356.68294867545	1414.19995117188
1357.33400210773	1423.19995117188
1357.98497162968	1409.19995117188
1358.63585724889	1396.19995117188
1359.28665897294	1394.80004882813
1359.93737680942	1409.59997558594
1360.58801076591	1414.40002441406
1361.23856085001	1407.19995117188
1361.88902706929	1416.59997558594
1362.53940943135	1411
1363.18970794377	1444.19995117188
1363.83992261413	1428.40002441406
1364.49005345003	1435
1365.14010045904	1433.19995117188
1365.79006364874	1444.19995117188
1366.43994302673	1430.40002441406
1367.08973860058	1435
1367.73945037788	1419.59997558594
1368.38907836621	1417
1369.03862257315	1418.59997558594
1369.68808300629	1422.19995117188
1370.3374596732	1418
1370.98675258148	1405.19995117188
1371.63596173868	1413
1372.28508715241	1411.80004882813
1372.93412883024	1397.80004882813
1373.58308677974	1389.80004882813
1374.2319610085	1394.80004882813
1374.8807515241	1369.80004882813
1375.52945833412	1370.59997558594
1376.17808144612	1376.80004882813
1376.82662086771	1357.80004882813
1377.47507660644	1352.40002441406
1378.12344866989	1358.80004882813
1378.77173706565	1355.40002441406
1379.41994180129	1364.40002441406
1380.06806288439	1371
1380.71610032252	1375.59997558594
1381.36405412326	1376
1382.01192429419	1390.19995117188
1382.65971084287	1380
1383.30741377688	1381.59997558594
1383.95503310381	1382.40002441406
1384.60256883121	1381
1385.25002096667	1383
1385.89738951775	1381
1386.54467449204	1374.40002441406
1387.19187589709	1363
1387.8389937405	1349.19995117188
1388.48602802982	1357.59997558594
1389.13297877262	1352.59997558594
1389.77984597649	1357.80004882813
1390.42662964899	1360
1391.07332979768	1364
1391.71994643015	1370.59997558594
1392.36647955395	1361.40002441406
1393.01292917667	1376.59997558594
1393.65929530586	1377.19995117188
1394.3055779491	1382
1394.95177711395	1364.19995117188
1395.59789280799	1383.40002441406
1396.24392503877	1379.40002441406
1396.88987381387	1354.59997558594
1397.53573914086	1342.59997558594
1398.1815210273	1361.80004882813
1398.82721948075	1347
1399.47283450878	1370.19995117188
1400.11836611897	1364
1400.76381431886	1353.59997558594
1401.40917911603	1344.40002441406
1402.05446051805	1329.19995117188
1402.69965853247	1325.40002441406
1403.34477316686	1326.19995117188
1403.98980442878	1328
1404.6347523258	1333.40002441406
1405.27961686548	1333.19995117188
1405.92439805538	1341.40002441406
1406.56909590306	1346.80004882813
1407.21371041608	1342.19995117188
1407.85824160202	1350.80004882813
1408.50268946841	1352.59997558594
1409.14705402284	1347.40002441406
1409.79133527285	1343.59997558594
1410.43553322601	1357.80004882813
1411.07964788987	1351
1411.723679272	1359.80004882813
1412.36762737996	1347
1413.01149222129	1355.80004882813
1413.65527380357	1348
1414.29897213435	1349.59997558594
1414.94258722118	1336.80004882813
1415.58611907163	1352.19995117188
1416.22956769325	1340.40002441406
1416.87293309359	1336.40002441406
1417.51621528021	1337.19995117188
1418.15941426067	1349.40002441406
1418.80253004253	1349.80004882813
1419.44556263333	1340.19995117188
1420.08851204063	1343.59997558594
1420.731378272	1353.19995117188
1421.37416133497	1357.40002441406
1422.0168612371	1361
1422.65947798596	1369.40002441406
1423.30201158908	1354
1423.94446205403	1356.40002441406
1424.58682938835	1342.59997558594
1425.2291135996	1361.40002441406
1425.87131469532	1352.40002441406
1426.51343268308	1356.80004882813
1427.15546757042	1357
1427.79741936488	1359
1428.43928807403	1345.59997558594
1429.0810737054	1346.59997558594
1429.72277626656	1336.59997558594
1430.36439576504	1347.80004882813
1431.00593220841	1345.59997558594
1431.64738560419	1334.59997558594
1432.28875595995	1341.80004882813
1432.93004328324	1330.80004882813
1433.57124758159	1345.59997558594
1434.21236886255	1338.59997558594
1434.85340713368	1341.40002441406
1435.49436240252	1340
1436.13523467661	1340.40002441406
1436.77602396349	1348.40002441406
1437.41673027073	1337
1438.05735360585	1338.19995117188
1438.69789397641	1337.59997558594
1439.33835138994	1324.59997558594
1439.978725854	1335.19995117188
1440.61901737612	1342.80004882813
1441.25922596385	1352.40002441406
1441.89935162473	1331
1442.53939436631	1340.80004882813
1443.17935419612	1339
1443.81923112171	1326.40002441406
1444.45902515061	1328.40002441406
1445.09873629038	1342
1445.73836454854	1333
1446.37790993265	1333.80004882813
1447.01737245024	1332.19995117188
1447.65675210885	1335.19995117188
1448.29604891602	1355
1448.93526287928	1350
1449.57439400618	1337.40002441406
1450.21344230426	1333.40002441406
1450.85240778105	1326
1451.49129044409	1329.19995117188
1452.13009030092	1348.19995117188
1452.76880735907	1344.59997558594
1453.40744162608	1351.80004882813
1454.04599310949	1355.40002441406
1454.68446181683	1356.19995117188
1455.32284775564	1346.59997558594
1455.96115093345	1354.59997558594
1456.5993713578	1351
1457.23750903623	1340.19995117188
1457.87556397626	1335.59997558594
1458.51353618543	1319.19995117188
1459.15142567127	1317.19995117188
1459.78923244132	1329.80004882813
1460.42695650311	1340.40002441406
1461.06459786417	1333
1461.70215653203	1335.80004882813
1462.33963251423	1325.19995117188
1462.97702581829	1333.40002441406
1463.61433645175	1331
1464.25156442214	1332.80004882813
1464.88870973699	1333.80004882813
1465.52577240382	1336.40002441406
1466.16275243017	1331.80004882813
1466.79964982356	1322
1467.43646459154	1330
1468.07319674161	1335.80004882813
1468.70984628132	1337
1469.34641321818	1344
1469.98289755974	1336.19995117188
1470.6192993135	1330.40002441406
1471.25561848701	1325
1471.89185508779	1322.80004882813
1472.52800912336	1316.40002441406
1473.16408060124	1327.19995117188
1473.80006952897	1330.59997558594
1474.43597591407	1325.19995117188
1475.07179976406	1321.19995117188
1475.70754108647	1317.40002441406
1476.34319988883	1315
1476.97877617865	1325.40002441406
1477.61426996345	1343.59997558594
1478.24968125077	1342.19995117188
1478.88501004812	1346
1479.52025636303	1359.19995117188
1480.15542020302	1355.80004882813
1480.79050157561	1351
1481.42550048832	1345
1482.06041694867	1350.19995117188
1482.69525096418	1342.59997558594
1483.33000254237	1351
1483.96467169077	1333
1484.59925841689	1344
1485.23376272825	1336.80004882813
1485.86818463237	1342.80004882813
1486.50252413677	1330.19995117188
1487.13678124896	1336
1487.77095597646	1322
1488.4050483268	1319.19995117188
1489.03905830749	1319.59997558594
1489.67298592604	1317.80004882813
1490.30683118996	1316
1490.9405941068	1321.80004882813
1491.57427468403	1324.40002441406
1492.2078729292	1329.80004882813
1492.84138884981	1349.19995117188
1493.47482245338	1342
1494.10817374742	1346.40002441406
1494.74144273944	1347.19995117188
1495.37462943696	1351
1496.0077338475	1340.19995117188
1496.64075597856	1348.59997558594
1497.27369583765	1338
1497.9065534323	1326.80004882813
1498.53932877001	1308.59997558594
1499.17202185829	1305.40002441406
1499.80463270465	1303.59997558594
1500.43716131661	1302.19995117188
1501.06960770167	1304
1501.70197186735	1307
1502.33425382116	1305.80004882813
1502.96645357059	1317.40002441406
1503.59857112317	1312.80004882813
1504.23060648641	1309.59997558594
1504.8625596678	1314.59997558594
1505.49443067486	1312.80004882813
1506.1262195151	1336.40002441406
1506.75792619602	1322.80004882813
1507.38955072513	1342.40002441406
1508.02109310993	1334.19995117188
1508.65255335794	1325.40002441406
1509.28393147666	1321.80004882813
1509.91522747359	1326.80004882813
1510.54644135624	1325.40002441406
1511.17757313212	1329.40002441406
1511.80862280872	1327.80004882813
1512.43959039356	1328.40002441406
1513.07047589413	1333.40002441406
1513.70127931795	1325.80004882813
1514.33200067251	1318.19995117188
1514.96263996531	1316.40002441406
1515.59319720386	1303.19995117188
1516.22367239567	1309.40002441406
1516.85406554822	1308
1517.48437666903	1304.59997558594
1518.1146057656	1321.80004882813
1518.74475284542	1320.19995117188
1519.374817916	1319
1520.00480098483	1316
1520.63470205942	1314
1521.26452114726	1312.59997558594
1521.89425825586	1310.19995117188
1522.52391339271	1319.40002441406
1523.15348656531	1315.40002441406
1523.78297778116	1318
1524.41238704775	1301.80004882813
1525.04171437259	1302.80004882813
1525.67095976317	1304.19995117188
1526.30012322699	1306.80004882813
1526.92920477154	1298.19995117188
1527.55820440432	1304
1528.18712213283	1288.59997558594
1528.81595796455	1291.19995117188
1529.44471190699	1288
1530.07338396764	1280
1530.70197415399	1284.59997558594
1531.33048247353	1281.40002441406
1531.95890893377	1282.40002441406
1532.58725354219	1296.40002441406
1533.21551630629	1299
1533.84369723356	1309.80004882813
1534.47179633148	1318
1535.09981360757	1319.19995117188
1535.72774906929	1326
1536.35560272415	1327.40002441406
1536.98337457963	1331
1537.61106464323	1322.40002441406
1538.23867292243	1324.80004882813
1538.86619942473	1314.19995117188
1539.49364415762	1310
1540.12100712857	1316.40002441406
1540.74828834509	1314.19995117188
1541.37548781466	1309.59997558594
1542.00260554478	1309.40002441406
1542.62964154291	1294.40002441406
1543.25659581655	1308.19995117188
1543.8834683732	1306.40002441406
1544.51025922034	1293
1545.13696836544	1299.19995117188
1545.76359581601	1303
1546.39014157952	1296.59997558594
1547.01660566345	1304.40002441406
1547.64298807531	1294
1548.26928882255	1290
1548.89550791269	1288.40002441406
1549.52164535318	1294.40002441406
1550.14770115153	1299.80004882813
1550.77367531521	1302.19995117188
1551.39956785171	1290.59997558594
1552.0253787685	1303.40002441406
1552.65110807307	1301.59997558594
1553.2767557729	1316.19995117188
1553.90232187548	1314.19995117188
1554.52780638828	1310.19995117188
1555.15320931879	1298.80004882813
1555.77853067447	1295
1556.40377046282	1312
1557.02892869132	1297.19995117188
1557.65400536744	1286.19995117188
1558.27900049866	1291
1558.90391409247	1298.19995117188
1559.52874615633	1309.80004882813
1560.15349669773	1312.40002441406
1560.77816572414	1313.19995117188
1561.40275324305	1324.59997558594
1562.02725926192	1308
1562.65168378824	1317.80004882813
1563.27602682948	1316
1563.90028839311	1304.59997558594
1564.52446848662	1322.19995117188
1565.14856711748	1305.59997558594
1565.77258429316	1319.19995117188
1566.39652002113	1308
1567.02037430887	1304.59997558594
1567.64414716387	1309.80004882813
1568.26783859357	1303
1568.89144860547	1316.80004882813
1569.51497720703	1312.59997558594
1570.13842440573	1310.40002441406
1570.76179020904	1316
1571.38507462442	1310.59997558594
1572.00827765936	1311.80004882813
1572.63139932132	1308
1573.25443961777	1307.80004882813
1573.87739855618	1302
1574.50027614402	1294
1575.12307238877	1295.40002441406
1575.74578729789	1289.80004882813
1576.36842087885	1307.59997558594
1576.99097313912	1311.59997558594
1577.61344408616	1317.19995117188
1578.23583372745	1296.59997558594
1578.85814207046	1300.19995117188
1579.48036912264	1293.80004882813
1580.10251489147	1293.40002441406
1580.72457938441	1290.80004882813
1581.34656260893	1303
1581.9684645725	1295.19995117188
1582.59028528258	1305.80004882813
1583.21202474663	1295.40002441406
1583.83368297212	1302
1584.45525996652	1301
1585.07675573728	1292.59997558594
1585.69817029188	1284.59997558594
1586.31950363778	1289.40002441406
1586.94075578243	1285.19995117188
1587.5619267333	1280.80004882813
1588.18301649786	1286.40002441406
1588.80402508357	1277.80004882813
1589.42495249788	1284
1590.04579874826	1274.80004882813
1590.66656384217	1278.19995117188
1591.28724778707	1275.19995117188
1591.90785059042	1265.80004882813
1592.52837225968	1267
1593.14881280232	1267.40002441406
1593.76917222578	1267.40002441406
1594.38945053753	1273.59997558594
1595.00964774502	1276
1595.62976385573	1273
1596.24979887709	1272
1596.86975281657	1279.80004882813
1597.48962568164	1274.59997558594
1598.10941747974	1266
1598.72912821832	1267
1599.34875790486	1278
1599.9683065468	1281
1600.58777415159	1282.80004882813
1601.2071607267	1271
1601.82646627958	1266.59997558594
1602.44569081769	1260
1603.06483434846	1253.80004882813
1603.68389687937	1240.59997558594
1604.30287841786	1234.59997558594
1604.92177897139	1234.80004882813
1605.54059854741	1239.19995117188
1606.15933715337	1231.40002441406
1606.77799479672	1243.80004882813
1607.39657148492	1250.80004882813
1608.01506722542	1246.19995117188
1608.63348202566	1254.19995117188
1609.2518158931	1247.19995117188
1609.87006883519	1249.59997558594
1610.48824085939	1258.59997558594
1611.10633197312	1252
1611.72434218386	1253
1612.34227149904	1251.59997558594
1612.96011992612	1246.59997558594
1613.57788747254	1253.59997558594
1614.19557414575	1254.59997558594
1614.8131799532	1237.59997558594
1615.43070490234	1240.59997558594
1616.04814900061	1236.80004882813
1616.66551225545	1242.19995117188
1617.28279467433	1237.40002441406
1617.89999626467	1237.59997558594
1618.51711703393	1235.40002441406
1619.13415698955	1239
1619.75111613898	1245.40002441406
1620.36799448966	1237.80004882813
1620.98479204903	1230.19995117188
1621.60150882455	1240.19995117188
1622.21814482364	1238.80004882813
1622.83470005376	1238
1623.45117452235	1233.40002441406
1624.06756823685	1246.40002441406
1624.6838812047	1246.80004882813
1625.30011343335	1237.59997558594
1625.91626493022	1233.80004882813
1626.53233570278	1231.59997558594
1627.14832575845	1244
1627.76423510468	1240.40002441406
1628.38006374891	1251.80004882813
1628.99581169857	1245.80004882813
1629.61147896111	1250.40002441406
1630.22706554397	1243
1630.84257145457	1246.40002441406
1631.45799670038	1231.19995117188
1632.07334128881	1223.80004882813
1632.6886052273	1216.59997558594
1633.3037885233	1225.59997558594
1633.91889118425	1221.40002441406
1634.53391321757	1231.80004882813
1635.1488546307	1224
1635.76371543108	1226.59997558594
1636.37849562616	1223
1636.99319522335	1222
1637.60781423009	1216.40002441406
1638.22235265383	1217.59997558594
1638.83681050198	1232.40002441406
1639.451187782	1233.40002441406
1640.0654845013	1242
1640.67970066734	1227.40002441406
1641.29383628752	1248
1641.9078913693	1231.80004882813
1642.5218659201	1224
1643.13575994735	1228.59997558594
1643.74957345849	1216.59997558594
1644.36330646094	1220.80004882813
1644.97695896213	1236.80004882813
1645.59053096951	1232.19995117188
1646.20402249049	1221.40002441406
1646.8174335325	1229.19995117188
1647.43076410298	1228.80004882813
1648.04401420935	1244.40002441406
1648.65718385905	1257
1649.2702730595	1254.19995117188
1649.88328181812	1253
1650.49621014236	1251.19995117188
1651.10905803963	1257
1651.72182551735	1244.19995117188
1652.33451258297	1237.19995117188
1652.9471192439	1218
1653.55964550757	1225
1654.1720913814	1231.80004882813
1654.78445687283	1229.59997558594
1655.39674198926	1237.19995117188
1656.00894673814	1218.19995117188
1656.62107112688	1224.80004882813
1657.23311516291	1220.59997558594
1657.84507885365	1218.80004882813
1658.45696220652	1204.80004882813
1659.06876522895	1196.59997558594
1659.68048792835	1187.59997558594
1660.29213031217	1188
1660.90369238779	1192.80004882813
1661.51517416267	1185.80004882813
1662.12657564421	1186.59997558594
1662.73789683984	1185.80004882813
1663.34913775697	1192.19995117188
1663.96029840303	1201.19995117188
1664.57137878544	1184.80004882813
1665.18237891161	1187.59997558594
1665.79329878897	1177.19995117188
1666.40413842493	1183.19995117188
1667.01489782691	1176.59997558594
1667.62557700233	1175.19995117188
1668.2361759586	1181
1668.84669470315	1183.80004882813
1669.4571332434	1171.59997558594
1670.06749158675	1171.40002441406
1670.67776974062	1175.40002441406
1671.28796771243	1173
1671.8980855096	1175.80004882813
1672.50812313954	1180.80004882813
1673.11808060967	1176.80004882813
1673.72795792739	1177.19995117188
1674.33775510013	1180.40002441406
1674.9474721353	1181.19995117188
1675.55710904031	1177.59997558594
1676.16666582257	1178.19995117188
1676.7761424895	1171
1677.38553904851	1174.59997558594
1677.99485550702	1183.40002441406
1678.60409187243	1181.80004882813
1679.21324815215	1172.80004882813
1679.8223243536	1166.59997558594
1680.43132048419	1165
1681.04023655132	1168.40002441406
1681.64907256241	1169.59997558594
1682.25782852487	1164.19995117188
1682.86650444611	1158.19995117188
1683.47510033353	1171.19995117188
1684.08361619455	1168.19995117188
1684.69205203657	1175.40002441406
1685.300407867	1168.59997558594
1685.90868369325	1181
1686.51687952272	1168.80004882813
1687.12499536283	1170.19995117188
1687.73303122098	1165.59997558594
1688.34098710457	1163.40002441406
1688.94886302101	1154.59997558594
1689.55665897772	1163.59997558594
1690.16437498208	1159.59997558594
1690.77201104152	1162
1691.37956716342	1170.19995117188
1691.9870433552	1175.19995117188
1692.59443962426	1170
1693.20175597801	1175.59997558594
1693.80899242384	1154.19995117188
1694.41614896916	1170.59997558594
1695.02322562138	1162
1695.63022238789	1153
1696.23713927609	1155.80004882813
1696.8439762934	1157.19995117188
1697.4507334472	1158
1698.05741074491	1158
1698.66400819391	1155
1699.27052580161	1153.59997558594
1699.87696357542	1150.40002441406
1700.48332152272	1150.40002441406
1701.08959965092	1148.19995117188
1701.69579796742	1138.40002441406
1702.30191647962	1143.59997558594
1702.90795519491	1135.59997558594
1703.51391412069	1130.59997558594
1704.11979326437	1138
1704.72559263332	1130.40002441406
1705.33131223496	1130.19995117188
1705.93695207668	1130
1706.54251216588	1130.59997558594
1707.14799250994	1135.59997558594
1707.75339311628	1131.19995117188
1708.35871399227	1120
1708.96395514532	1119.19995117188
1709.56911658282	1115.59997558594
