634.948122577771	1490
635.690341530823	1493.59997558594
636.43246851086	1499.40002441406
637.174503525845	1509.19995117188
637.916446583745	1515
638.658297692538	1501
639.400056860179	1514.19995117188
640.141724094637	1497.59997558594
640.883299403885	1499
641.62478279588	1488
642.366174278594	1506.59997558594
643.107473859989	1514
643.848681548029	1516.59997558594
644.589797350679	1517.80004882813
645.330821275901	1515
646.071753331665	1501.59997558594
646.812593525922	1504.80004882813
647.553341866646	1507
648.293998361798	1498.80004882813
649.03456301933	1502.19995117188
649.775035847216	1506.80004882813
650.515416853409	1497.59997558594
651.255706045874	1502.40002441406
651.995903432568	1510.19995117188
652.736009021453	1507.59997558594
653.476022820486	1517.59997558594
654.215944837629	1506.19995117188
654.955775080842	1513.40002441406
655.695513558081	1509.40002441406
656.435160277301	1520
657.174715246465	1523.80004882813
657.914178473527	1540.19995117188
658.653549966449	1529.59997558594
659.392829733176	1522.59997558594
660.132017781678	1512
660.871114119901	1514.40002441406
661.610118755803	1521.40002441406
662.349031697343	1515
663.087852952468	1525.59997558594
663.826582529139	1507.80004882813
664.565220435305	1505.80004882813
665.30376667892	1495.19995117188
666.04222126794	1509.59997558594
666.780584210316	1512.80004882813
667.518855514	1503.40002441406
668.25703518694	1505.19995117188
668.995123237096	1523
669.733119672413	1527.59997558594
670.471024500842	1530.40002441406
671.208837730333	1530
671.946559368839	1517
672.684189424308	1501.40002441406
673.421727904689	1516.80004882813
674.159174817929	1499.19995117188
674.896530171977	1509.59997558594
675.633793974786	1527
676.370966234295	1525.19995117188
677.108046958461	1518.59997558594
677.845036155219	1530
678.581933832528	1525.59997558594
679.318739998323	1531.19995117188
680.055454660558	1543.80004882813
680.792077827172	1547.59997558594
681.528609506116	1558.59997558594
682.265049705331	1539.40002441406
683.001398432759	1531
683.737655696349	1525.80004882813
684.47382150404	1518.59997558594
685.20989586378	1510.40002441406
685.945878783503	1507.80004882813
686.68177027116	1508.40002441406
687.417570334688	1509.19995117188
688.153278982032	1529.59997558594
688.888896221129	1531.19995117188
689.624422059921	1525.19995117188
690.359856506349	1534.40002441406
691.095199568354	1538.80004882813
691.830451253874	1545
692.565611570844	1540
693.300680527212	1552.40002441406
694.03565813091	1544.80004882813
694.770544389877	1539.80004882813
695.505339312053	1539.80004882813
696.240042905372	1537
696.974655177772	1542.80004882813
697.70917613719	1562.19995117188
698.443605791561	1559.59997558594
699.177944148826	1557.59997558594
699.912191216909	1552
700.646347003755	1554.80004882813
701.380411517295	1567.19995117188
702.114384765465	1542.19995117188
702.848266756195	1542.40002441406
703.582057497421	1566.59997558594
704.315756997074	1558.80004882813
705.049365263089	1549.80004882813
705.782882303399	1563.59997558594
706.516308125936	1570.80004882813
707.249642738626	1567.19995117188
707.982886149403	1564.80004882813
708.716038366204	1561.40002441406
709.449099396949	1544.40002441406
710.182069249577	1542.40002441406
710.914947932009	1540.80004882813
711.647735452181	1529.40002441406
712.380431818022	1518.80004882813
713.113037037454	1525.40002441406
713.845551118411	1522.59997558594
714.577974068818	1525.80004882813
715.310305896604	1528.19995117188
716.042546609694	1531.40002441406
716.774696216013	1548.40002441406
717.506754723493	1553.19995117188
718.238722140053	1565
718.970598473624	1550.19995117188
719.702383732127	1539.59997558594
720.43407792349	1539
721.165681055634	1536.40002441406
721.897193136486	1558.80004882813
722.628614173966	1564.19995117188
723.359944175997	1572.80004882813
724.091183150505	1564.19995117188
724.822331105412	1554.40002441406
725.553388048638	1543.40002441406
726.284353988106	1539.80004882813
727.015228931734	1533.19995117188
727.746012887449	1558.80004882813
728.476705863162	1561
729.207307866803	1573.80004882813
729.937818906289	1578.80004882813
730.668238989535	1575.80004882813
731.398568124459	1578.19995117188
732.128806318986	1558.40002441406
732.858953581034	1566.19995117188
733.589009918514	1547.80004882813
734.318975339348	1554.19995117188
735.048849851452	1557.19995117188
735.778633462744	1544.40002441406
736.508326181137	1547.59997558594
737.237928014549	1558.59997558594
737.967438970897	1551.19995117188
738.696859058095	1545.59997558594
739.426188284054	1535.19995117188
740.155426656692	1524.80004882813
740.884574183922	1545.80004882813
741.613630873659	1543.19995117188
742.342596733815	1553.80004882813
743.071471772302	1559.59997558594
743.800255997034	1565
744.528949415921	1558.59997558594
745.257552036877	1553.19995117188
745.986063867811	1554.59997558594
746.714484916638	1563.40002441406
747.442815191261	1563.40002441406
748.171054699597	1564.80004882813
748.899203449554	1554.19995117188
749.627261449039	1547.19995117188
750.355228705966	1549.59997558594
751.083105228239	1556.40002441406
751.810891023765	1571.80004882813
752.538586100459	1572
753.266190466218	1575.59997558594
753.99370412896	1588.80004882813
754.721127096582	1572
755.448459377	1559.40002441406
756.175700978114	1565.19995117188
756.902851907828	1561.19995117188
757.629912174055	1546.19995117188
758.356881784688	1538.80004882813
759.083760747639	1531.59997558594
759.810549070817	1554.80004882813
760.537246762113	1555.59997558594
761.263853829442	1553.19995117188
761.990370280698	1562.19995117188
762.716796123791	1559.80004882813
763.443131366618	1564.80004882813
764.169376017082	1574.80004882813
764.895530083085	1591.40002441406
765.621593572527	1576.80004882813
766.347566493312	1585.59997558594
767.073448853336	1580.40002441406
767.799240660502	1584.19995117188
768.524941922707	1595.19995117188
769.250552647854	1590.80004882813
769.976072843836	1617
770.701502518551	1612.80004882813
771.426841679905	1630
772.152090335793	1626.40002441406
772.877248494107	1632.40002441406
773.602316162747	1631.19995117188
774.327293349609	1627.19995117188
775.052180062592	1643.19995117188
775.776976309589	1657.80004882813
776.501682098496	1647
777.226297437206	1641.19995117188
777.950822333616	1642.59997558594
778.675256795621	1625.59997558594
779.399600831111	1622
780.123854447983	1617.40002441406
780.84801765413	1614.59997558594
781.572090457441	1595
782.296072865811	1590.80004882813
783.019964887131	1594
783.743766529297	1594.80004882813
784.467477800194	1577.80004882813
785.191098707719	1582.59997558594
785.914629259756	1566.80004882813
786.638069464194	1560.40002441406
787.361419328932	1578.80004882813
788.084678861852	1568.59997558594
788.807848070845	1548
789.530926963798	1571
790.253915548602	1562.19995117188
790.976813833144	1545
791.699621825307	1557.40002441406
792.422339532986	1557.19995117188
793.144966964061	1555.59997558594
793.86750412642	1559
794.589951027946	1566.80004882813
795.312307676536	1559.40002441406
796.03457408006	1566.59997558594
796.756750246417	1568.80004882813
797.478836183477	1563
798.200831899137	1559
798.92273740127	1561.59997558594
799.644552697769	1547.59997558594
800.36627779651	1564
801.087912705374	1577.80004882813
801.809457432251	1583.80004882813
802.530911985017	1581.80004882813
803.252276371558	1568.40002441406
803.973550599748	1570.80004882813
804.694734677472	1580
805.415828612611	1588.40002441406
806.136832413045	1570.19995117188
806.857746086646	1588.19995117188
807.578569641305	1587.40002441406
808.299303084892	1600.19995117188
809.019946425289	1591.19995117188
809.740499670372	1594.19995117188
810.460962828022	1595.19995117188
811.181335906114	1578
811.901618912524	1578.19995117188
812.621811855131	1573.40002441406
813.341914741809	1581.80004882813
814.061927580433	1579
814.781850378881	1574.80004882813
815.501683145025	1577.59997558594
816.221425886743	1584
816.941078611903	1569
817.660641328387	1552.19995117188
818.380114044065	1561.40002441406
819.099496766808	1559.19995117188
819.818789504492	1554.80004882813
820.53799226499	1541
821.257105056168	1532.19995117188
821.976127885904	1530.80004882813
822.695060762064	1552
823.413903692525	1572
824.132656685151	1575.59997558594
824.851319747817	1595
825.569892888388	1607.19995117188
826.288376114739	1610.59997558594
827.006769434737	1592.80004882813
827.725072856249	1600.19995117188
828.443286387142	1592.19995117188
829.161410035285	1573.59997558594
829.87944380855	1558.59997558594
830.597387714798	1572.40002441406
831.315241761898	1579.19995117188
832.033005957715	1577.59997558594
832.750680310119	1588
833.468264826969	1584
834.18575951614	1597
834.903164385486	1576.59997558594
835.620479442878	1587.40002441406
836.337704696181	1567
837.054840153255	1569.40002441406
837.771885821962	1571.19995117188
838.488841710172	1569.40002441406
839.20570782574	1567.19995117188
839.922484176531	1552.80004882813
840.639170770409	1553.80004882813
841.355767615231	1556.59997558594
842.072274718864	1572.80004882813
842.788692089164	1566
843.505019733993	1558.40002441406
844.221257661209	1575.80004882813
844.937405878676	1578.59997558594
845.65346439425	1584
846.369433215789	1569.80004882813
847.085312351156	1563.80004882813
847.801101808205	1560.19995117188
848.516801594793	1551
849.232411718781	1548.59997558594
849.947932188021	1544
850.663363010376	1538.59997558594
851.378704193698	1557.40002441406
852.093955745842	1567.80004882813
852.809117674669	1584.80004882813
853.524189988028	1590.19995117188
854.239172693778	1574
854.954065799768	1575.40002441406
855.668869313857	1576.19995117188
856.383583243899	1562
857.098207597743	1543.80004882813
857.812742383246	1552
858.527187608255	1559.80004882813
859.241543280628	1549.80004882813
859.955809408218	1548.59997558594
860.669985998868	1570.40002441406
861.384073060437	1563.40002441406
862.098070600772	1575.80004882813
862.811978627724	1573.40002441406
863.52579714914	1570
864.239526172873	1574
864.953165706776	1586.59997558594
865.666715758687	1560.59997558594
866.380176336464	1552.19995117188
867.093547447951	1545.40002441406
867.806829100996	1549.59997558594
868.520021303444	1549.80004882813
869.233124063149	1543.40002441406
869.94613738795	1530.59997558594
870.659061285693	1550.40002441406
871.37189576423	1564.40002441406
872.084640831403	1586
872.797296495057	1589
873.509862763039	1588.80004882813
874.22233964319	1587
874.934727143353	1561.19995117188
875.647025271374	1562.19995117188
876.359234035097	1549.19995117188
877.071353442361	1549.40002441406
877.783383501015	1532.59997558594
878.495324218895	1546
879.207175603844	1559.59997558594
879.918937663705	1558
880.630610406318	1567.40002441406
881.342193839524	1575.80004882813
882.053687971161	1573.59997558594
882.765092809069	1583.40002441406
883.476408361091	1571.40002441406
884.187634635066	1560
884.898771638828	1560
885.609819380221	1555.40002441406
886.320777867076	1549.80004882813
887.031647107236	1555.40002441406
887.742427108536	1539.80004882813
888.453117878816	1547
889.16371942591	1556.40002441406
889.874231757652	1550.40002441406
890.584654881883	1552.19995117188
891.294988806434	1549
892.005233539141	1539
892.715389087837	1550.80004882813
893.42545546036	1565.80004882813
894.135432664543	1570.80004882813
894.845320708216	1574.80004882813
895.555119599216	1589
896.264829345375	1586.59997558594
896.974449954526	1588.80004882813
897.683981434496	1584.59997558594
898.393423793125	1597.40002441406
899.102777038235	1575.80004882813
899.812041177664	1575.40002441406
900.521216219239	1571.80004882813
901.230302170793	1571.59997558594
901.939299040155	1583.80004882813
902.64820683515	1576.80004882813
903.357025563612	1577.19995117188
904.065755233368	1576.40002441406
904.774395852247	1583.40002441406
905.482947428076	1597.59997558594
906.191409968682	1580.19995117188
906.899783481897	1586.59997558594
907.608067975538	1598
908.316263457443	1597.80004882813
909.02436993543	1587.59997558594
909.732387417327	1592.80004882813
910.440315910959	1577.40002441406
911.148155424154	1587.19995117188
911.855905964731	1589.19995117188
912.563567540521	1587.19995117188
913.271140159339	1579.80004882813
913.978623829017	1564.40002441406
914.686018557374	1564.59997558594
915.393324352237	1560.80004882813
916.100541221421	1559.19995117188
916.807669172752	1567.59997558594
917.514708214054	1555.59997558594
918.221658353142	1545
918.928519597843	1542.59997558594
919.635291955976	1537.19995117188
920.341975435358	1556.40002441406
921.048570043813	1546.19995117188
921.75507578916	1583.40002441406
922.461492679212	1598.40002441406
923.167820721795	1595.40002441406
923.874059924726	1606
924.58021029582	1585.40002441406
925.286271842893	1595.19995117188
925.992244573769	1596.80004882813
926.698128496262	1584.59997558594
927.403923618184	1593.40002441406
928.109629947355	1581.80004882813
928.815247491593	1582
929.520776258708	1581.80004882813
930.226216256519	1567.59997558594
930.931567492841	1586.40002441406
931.636829975482	1570
932.342003712263	1570.80004882813
933.047088710995	1566.40002441406
933.752084979491	1555.40002441406
934.456992525564	1557.40002441406
935.161811357024	1562.80004882813
935.866541481688	1543
936.571182907363	1531.80004882813
937.275735641861	1534.40002441406
937.980199692995	1542.59997558594
938.684575068572	1534.80004882813
939.388861776411	1546.59997558594
940.093059824311	1549
940.797169220085	1549.59997558594
941.501189971544	1544.19995117188
942.205122086495	1546.80004882813
942.908965572751	1534.19995117188
943.612720438111	1533
944.316386690391	1545.80004882813
945.019964337391	1543.40002441406
945.723453386924	1542.80004882813
946.426853846795	1548.40002441406
947.130165724808	1549
947.83338902877	1558.40002441406
948.536523766488	1539
949.239569945764	1539.80004882813
949.942527574402	1544
950.64539666021	1531.80004882813
951.348177210993	1535.19995117188
952.050869234548	1527.59997558594
952.753472738683	1520.80004882813
953.455987731199	1526.40002441406
954.158414219898	1525.80004882813
954.860752212587	1525
955.563001717061	1527.19995117188
956.265162741124	1540.19995117188
956.967235292576	1534.40002441406
957.669219379224	1527.80004882813
958.371115008857	1514.40002441406
959.072922189283	1518.59997558594
959.774640928301	1517.80004882813
960.476271233708	1525
961.177813113301	1523.40002441406
961.879266574882	1538.19995117188
962.580631626248	1530.40002441406
963.281908275194	1528.59997558594
963.98309652952	1532.19995117188
964.684196397022	1539.19995117188
965.3852078855	1522.59997558594
966.086131002745	1533.59997558594
966.786965756555	1539
967.487712154726	1540.19995117188
968.188370205055	1550.19995117188
968.888939915331	1543.59997558594
969.589421293352	1556.80004882813
970.289814346909	1556
970.990119083801	1553
971.690335511819	1568.80004882813
972.39046363875	1569.19995117188
973.090503472398	1556.80004882813
973.790455020545	1554.19995117188
974.490318290987	1550.19995117188
975.190093291516	1554.19995117188
975.889780029923	1539.40002441406
976.589378513998	1537.40002441406
977.288888751527	1545.80004882813
977.988310750308	1552.59997558594
978.687644518122	1554.80004882813
979.386890062767	1532.19995117188
980.086047392025	1543
980.785116513689	1531.19995117188
981.484097435542	1535.80004882813
982.182990165377	1530.40002441406
982.88179471098	1532
983.580511080137	1529.19995117188
984.279139280632	1524.80004882813
984.977679320253	1522.59997558594
985.67613120679	1527.19995117188
986.374494948027	1526.40002441406
987.072770551745	1535.59997558594
987.770958025731	1539.40002441406
988.469057377772	1533
989.167068615649	1530.80004882813
989.864991747145	1518.40002441406
990.562826780047	1521.80004882813
991.260573722134	1518.80004882813
991.958232581195	1522.80004882813
992.655803365003	1527.40002441406
993.353286081346	1525
994.050680738006	1539.19995117188
994.74798734276	1536.59997558594
995.44520590339	1545.59997558594
996.142336427681	1533.80004882813
996.839378923407	1532
997.536333398348	1538
998.233199860289	1537.80004882813
998.929978317004	1532.59997558594
999.626668776274	1534.19995117188
1000.32327124587	1525.59997558594
1001.01978573359	1525
1001.71621224718	1512.40002441406
1002.41255079445	1499.40002441406
1003.10880138315	1519.19995117188
1003.80496402107	1524.19995117188
1004.50103871599	1537.80004882813
1005.19702547567	1547
1005.8929243079	1562.40002441406
1006.58873522045	1561.80004882813
1007.2844582211	1561.80004882813
1007.98009331761	1566.80004882813
1008.67564051776	1559.59997558594
1009.37109982933	1558.59997558594
1010.06647126009	1566
1010.7617548178	1573
1011.45695051026	1560.80004882813
1012.15205834522	1547.19995117188
1012.84707833045	1532.19995117188
1013.54201047373	1555.80004882813
1014.23685478284	1539.19995117188
1014.93161126553	1551.80004882813
1015.62627992959	1542.19995117188
1016.32086078277	1548.59997558594
1017.01535383285	1538.19995117188
1017.70975908761	1537
1018.40407655479	1536.80004882813
1019.09830624219	1565.40002441406
1019.79244815755	1559.40002441406
1020.48650230866	1560.80004882813
1021.18046870328	1573.59997558594
1021.87434734917	1565.80004882813
1022.56813825411	1566.80004882813
1023.26184142584	1559.80004882813
1023.95545687216	1562
1024.64898460082	1549
1025.34242461957	1553.40002441406
1026.0357769362	1538
1026.72904155846	1543.59997558594
1027.42221849412	1559.59997558594
1028.11530775094	1538
1028.80830933668	1552.80004882813
1029.50122325911	1545.59997558594
1030.19404952599	1543.40002441406
1030.88678814508	1537.59997558594
1031.57943912414	1524.19995117188
1032.27200247093	1527.80004882813
1032.96447819323	1527.59997558594
1033.65686629878	1513.40002441406
1034.34916679534	1515.80004882813
1035.04137969068	1514
1035.73350499256	1523
1036.42554270874	1508.40002441406
1037.11749284697	1520.80004882813
1037.80935541501	1516
1038.50113042062	1516.80004882813
1039.19281787156	1519
1039.88441777559	1528.80004882813
1040.57593014046	1531.40002441406
1041.26735497393	1528.19995117188
1041.95869228376	1532.40002441406
1042.6499420777	1530.59997558594
1043.3411043635	1526.19995117188
1044.03217914893	1537
1044.72316644174	1530.59997558594
1045.41406624968	1550.59997558594
1046.1048785805	1549.59997558594
1046.79560344197	1537.40002441406
1047.48624084182	1522.40002441406
1048.17679078783	1526.19995117188
1048.86725328774	1521.40002441406
1049.55762834929	1515.59997558594
1050.24791598025	1513.80004882813
1050.93811618837	1505.80004882813
1051.62822898139	1508.80004882813
1052.31825436707	1504.40002441406
1053.00819235315	1513.19995117188
1053.6980429474	1519.19995117188
1054.38780615755	1521.19995117188
1055.07748199136	1516
1055.76707045658	1525.59997558594
1056.45657156095	1504.40002441406
1057.14598531222	1502
1057.83531171814	1513
1058.52455078646	1501.59997558594
1059.21370252494	1520
1059.90276694129	1525
1060.5917440433	1522.59997558594
1061.28063383868	1540.59997558594
1061.9694363352	1530.59997558594
1062.65815154059	1538
1063.34677946261	1534.19995117188
1064.03532010899	1516.80004882813
1064.72377348748	1511
1065.41213960583	1515.19995117188
1066.10041847177	1502
1066.78861009306	1521.19995117188
1067.47671447743	1508.59997558594
1068.16473163263	1503.80004882813
1068.85266156639	1516.59997558594
1069.54050428647	1529.59997558594
1070.2282598006	1534.40002441406
1070.91592811652	1546.59997558594
1071.60350924198	1520
1072.29100318471	1525
1072.97840995245	1510.19995117188
1073.66572955295	1516.59997558594
1074.35296199394	1530.19995117188
1075.04010728316	1529.19995117188
1075.72716542836	1523.19995117188
1076.41413643726	1530.59997558594
1077.10102031761	1525.19995117188
1077.78781707715	1524.19995117188
1078.4745267236	1505.59997558594
1079.16114926471	1519
1079.84768470822	1511.40002441406
1080.53413306185	1521
1081.22049433336	1535
1081.90676853046	1531.19995117188
1082.5929556609	1529.40002441406
1083.27905573241	1544.19995117188
1083.96506875272	1528.40002441406
1084.65099472957	1515
1085.3368336707	1512.80004882813
1086.02258558383	1516.19995117188
1086.70825047669	1515.80004882813
1087.39382835703	1517.40002441406
1088.07931923257	1521
1088.76472311104	1527.59997558594
1089.45004000018	1528.40002441406
1090.13526990771	1534.19995117188
1090.82041284137	1530.19995117188
1091.50546880889	1529.80004882813
1092.19043781799	1514.59997558594
1092.87531987642	1515.19995117188
1093.56011499188	1511.40002441406
1094.24482317212	1497.19995117188
1094.92944442486	1502.40002441406
1095.61397875783	1490.19995117188
1096.29842617876	1489.40002441406
1096.98278669537	1502.40002441406
1097.6670603154	1502
1098.35124704656	1524.40002441406
1099.03534689659	1518.19995117188
1099.71935987322	1532.19995117188
1100.40328598416	1528
1101.08712523713	1539.40002441406
1101.77087763988	1523
1102.45454320012	1514.40002441406
1103.13812192557	1517
1103.82161382396	1518.40002441406
1104.50501890301	1538.19995117188
1105.18833717045	1513.80004882813
1105.87156863399	1534.40002441406
1106.55471330137	1529.19995117188
1107.2377711803	1543.59997558594
1107.9207422785	1529
1108.60362660369	1541.59997558594
1109.2864241636	1543.59997558594
1109.96913496594	1544.19995117188
1110.65175901844	1528.19995117188
1111.33429632882	1529
1112.01674690479	1523
1112.69911075408	1498.40002441406
1113.38138788439	1497.80004882813
1114.06357830346	1509
1114.745682019	1508.59997558594
1115.42769903872	1521
1116.10962937035	1524
1116.7914730216	1526.59997558594
1117.47323000018	1543.40002441406
1118.15490031382	1534.59997558594
1118.83648397022	1546.59997558594
1119.51798097712	1532.19995117188
1120.1993913422	1521.59997558594
1120.88071507321	1507.80004882813
1121.56195217784	1500
1122.24310266381	1485
1122.92416653884	1490
1123.60514381064	1491.40002441406
1124.28603448692	1524.19995117188
1124.9668385754	1529.19995117188
1125.64755608378	1526.80004882813
1126.32818701978	1531.40002441406
1127.00873139111	1541.59997558594
1127.68918920548	1539.40002441406
1128.3695604706	1530.59997558594
1129.04984519419	1521.59997558594
1129.73004338394	1499.80004882813
1130.41015504758	1505
1131.09018019281	1505.80004882813
1131.77011882734	1508.59997558594
1132.44997095888	1520.80004882813
1133.12973659514	1529.40002441406
1133.80941574381	1520.59997558594
1134.48900841263	1531.59997558594
1135.16851460927	1529.40002441406
1135.84793434147	1517.80004882813
1136.52726761692	1517.59997558594
1137.20651444333	1510.80004882813
1137.8856748284	1497.19995117188
1138.56474877984	1505.40002441406
1139.24373630536	1495.59997558594
1139.92263741265	1517.80004882813
1140.60145210943	1526.19995117188
1141.28018040339	1521.80004882813
1141.95882230225	1531.59997558594
1142.6373778137	1517.80004882813
1143.31584694545	1513.40002441406
1143.99422970519	1521.19995117188
1144.67252610064	1521.40002441406
1145.35073613949	1506.19995117188
1146.02885982944	1493.19995117188
1146.7068971782	1486.80004882813
1147.38484819347	1502.80004882813
1148.06271288294	1513
1148.74049125432	1505.19995117188
1149.41818331531	1522.40002441406
1150.0957890736	1520
1150.77330853689	1511
1151.45074171289	1516.40002441406
1152.12808860928	1506.19995117188
1152.80534923378	1515.19995117188
1153.48252359407	1499.80004882813
1154.15961169786	1488.80004882813
1154.83661355283	1499
1155.51352916669	1494
1156.19035854713	1484.19995117188
1156.86710170185	1504.59997558594
1157.54375863855	1501.80004882813
1158.22032936491	1496.80004882813
1158.89681388863	1506.19995117188
1159.57321221741	1502.80004882813
1160.24952435894	1500
1160.92575032092	1518.19995117188
1161.60189011103	1515.59997558594
1162.27794373697	1510.80004882813
1162.95391120644	1495.19995117188
1163.62979252712	1502.19995117188
1164.3055877067	1510.59997558594
1164.98129675288	1496.40002441406
1165.65691967336	1505.80004882813
1166.33245647581	1506.40002441406
1167.00790716792	1508.59997558594
1167.6832717574	1510.19995117188
1168.35855025193	1509.80004882813
1169.0337426592	1509.80004882813
1169.70884898689	1493.59997558594
1170.3838692427	1491.59997558594
1171.05880343431	1481
1171.73365156941	1489.59997558594
1172.40841365569	1496
1173.08308970083	1511.80004882813
1173.75767971253	1513
1174.43218369847	1501.80004882813
1175.10660166633	1494.19995117188
1175.7809336238	1488.59997558594
1176.45517957857	1484.19995117188
1177.12933953832	1491.40002441406
1177.80341351073	1481.19995117188
1178.47740150349	1493
1179.15130352429	1497.80004882813
1179.8251195808	1522.19995117188
1180.49884968071	1533.19995117188
1181.1724938317	1516.80004882813
1181.84605204145	1509.19995117188
1182.51952431766	1503
1183.19291066799	1519.19995117188
1183.86621110013	1522
1184.53942562176	1521
1185.21255424057	1522.40002441406
1185.88559696422	1534.80004882813
1186.55855380041	1526.59997558594
1187.2314247568	1521.59997558594
1187.90420984109	1514.59997558594
1188.57690906095	1524.80004882813
1189.24952242405	1525
1189.92204993808	1528
1190.59449161071	1531.19995117188
1191.26684744962	1531.59997558594
1191.93911746249	1515.40002441406
1192.61130165699	1518.40002441406
1193.28340004081	1506
1193.95541262161	1506.19995117188
1194.62733940707	1503.19995117188
1195.29918040487	1515.19995117188
1195.97093562269	1518
1196.64260506819	1513.40002441406
1197.31418874905	1511.19995117188
1197.98568667295	1510.59997558594
1198.65709884755	1503.19995117188
1199.32842528053	1516.80004882813
1199.99966597957	1489.59997558594
1200.67082095234	1493.59997558594
1201.3418902065	1481.80004882813
1202.01287374974	1476.19995117188
1202.68377158971	1501
1203.3545837341	1504
1204.02531019057	1497
1204.6959509668	1503.59997558594
1205.36650607045	1497.19995117188
1206.03697550919	1490.19995117188
1206.70735929069	1495.19995117188
1207.37765742263	1494.59997558594
1208.04786991266	1504.80004882813
1208.71799676846	1504.19995117188
1209.38803799769	1497.80004882813
1210.05799360803	1488.40002441406
1210.72786360714	1490.59997558594
1211.39764800268	1489.19995117188
1212.06734680233	1498.19995117188
1212.73696001375	1484.19995117188
1213.4064876446	1490.59997558594
1214.07592970255	1484.40002441406
1214.74528619526	1490.80004882813
1215.4145571304	1495.59997558594
1216.08374251564	1492
1216.75284235863	1473.19995117188
1217.42185666704	1484.59997558594
1218.09078544854	1471.59997558594
1218.75962871078	1470
1219.42838646143	1457.19995117188
1220.09705870816	1471.19995117188
1220.76564545861	1465.59997558594
1221.43414672046	1497
1222.10256250136	1485.59997558594
1222.77089280898	1488.40002441406
1223.43913765098	1498.80004882813
1224.107297035	1499.80004882813
1224.77537096873	1499.19995117188
1225.44335945981	1494.40002441406
1226.1112625159	1506.59997558594
1226.77908014467	1476.80004882813
1227.44681235376	1489
1228.11445915085	1491.19995117188
1228.78202054357	1491.40002441406
1229.44949653961	1482.80004882813
1230.11688714659	1472.19995117188
1230.7841923722	1471.80004882813
1231.45141222407	1481.19995117188
1232.11854670988	1469.59997558594
1232.78559583726	1474
1233.45255961388	1462.59997558594
1234.1194380474	1481.19995117188
1234.78623114546	1472.19995117188
1235.45293891572	1475.80004882813
1236.11956136583	1482.40002441406
1236.78609850345	1484
1237.45255033623	1484
1238.11891687182	1484.59997558594
1238.78519811788	1489.80004882813
1239.45139408205	1482.40002441406
1240.11750477198	1482.40002441406
1240.78353019534	1469.59997558594
1241.44947035976	1484.80004882813
1242.11532527291	1482.40002441406
1242.78109494242	1470.40002441406
1243.44677937595	1471.19995117188
1244.11237858115	1465
1244.77789256567	1452.40002441406
1245.44332133715	1455
1246.10866490325	1471
1246.7739232716	1470
1247.43909644987	1472
1248.10418444569	1481.80004882813
1248.76918726671	1480.59997558594
1249.43410492059	1485.40002441406
1250.09893741496	1472.80004882813
1250.76368475747	1470
1251.42834695576	1475.59997558594
1252.09292401749	1483
1252.75741595029	1495.40002441406
1253.42182276182	1496
1254.08614445971	1488.59997558594
1254.75038105161	1474.40002441406
1255.41453254515	1475.19995117188
1256.07859894799	1467.40002441406
1256.74258026777	1464.19995117188
1257.40647651213	1450.59997558594
1258.0702876887	1442.59997558594
1258.73401380514	1447.59997558594
1259.39765486908	1454.80004882813
1260.06121088817	1476.59997558594
1260.72468187004	1470.40002441406
1261.38806782233	1475
1262.05136875269	1483.80004882813
1262.71458466875	1478.19995117188
1263.37771557815	1467.19995117188
1264.04076148854	1455.59997558594
1264.70372240753	1457.19995117188
1265.3665983428	1462.80004882813
1266.02938930195	1465
1266.69209529263	1456.80004882813
1267.35471632249	1458
1268.01725239914	1460.40002441406
1268.67970353024	1444.59997558594
1269.34206972342	1458.59997558594
1270.00435098631	1444.19995117188
1270.66654732655	1445.40002441406
1271.32865875177	1450
1271.9906852696	1465.19995117188
1272.65262688768	1466.19995117188
1273.31448361365	1481
1273.97625545514	1485
1274.63794241978	1483
1275.2995445152	1481.80004882813
1275.96106174903	1469.80004882813
1276.62249412892	1483.59997558594
1277.28384166248	1483.59997558594
1277.94510435735	1486
1278.60628222116	1470
1279.26737526155	1478
1279.92838348613	1469.40002441406
1280.58930690255	1462.80004882813
1281.25014551842	1461.19995117188
1281.91089934139	1455.80004882813
1282.57156837907	1459.59997558594
1283.2321526391	1474.40002441406
1283.89265212911	1464.19995117188
1284.55306685671	1458.80004882813
1285.21339682955	1454.59997558594
1285.87364205525	1439.59997558594
1286.53380254142	1437.40002441406
1287.19387829571	1433.80004882813
1287.85386932573	1427.59997558594
1288.51377563911	1434.80004882813
1289.17359724348	1448.59997558594
1289.83333414646	1448.59997558594
1290.49298635567	1452.19995117188
1291.15255387874	1456.19995117188
1291.8120367233	1462.40002441406
1292.47143489696	1449.59997558594
1293.13074840736	1460
1293.7899772621	1453.40002441406
1294.44912146882	1474.40002441406
1295.10818103513	1455.19995117188
1295.76715596866	1463.59997558594
1296.42604627704	1456.80004882813
1297.08485196787	1453.40002441406
1297.74357304878	1461.80004882813
1298.4022095274	1477
1299.06076141134	1493.19995117188
1299.71922870821	1474.80004882813
1300.37761142565	1464.19995117188
1301.03590957126	1461.40002441406
1301.69412315268	1461.80004882813
1302.3522521775	1463
1303.01029665336	1466.59997558594
1303.66825658787	1475.59997558594
1304.32613198865	1478.80004882813
1304.98392286332	1468.59997558594
1305.64162921948	1467
1306.29925106476	1467.80004882813
1306.95678840677	1477.40002441406
1307.61424125312	1474.59997558594
1308.27160961145	1477
1308.92889348934	1462.19995117188
1309.58609289443	1459
1310.24320783432	1464.59997558594
1310.90023831664	1469.80004882813
1311.55718434898	1463.40002441406
1312.21404593897	1459.19995117188
1312.87082309421	1465.40002441406
1313.52751582233	1465
1314.18412413092	1463.40002441406
1314.84064802761	1493.19995117188
1315.49708752	1475.80004882813
1316.1534426157	1491.19995117188
1316.80971332233	1488.59997558594
1317.46589964749	1489.80004882813
1318.1220015988	1489.40002441406
1318.77801918386	1476.40002441406
1319.43395241028	1479.80004882813
1320.08980128567	1488.80004882813
1320.74556581764	1482.80004882813
1321.4012460138	1486.80004882813
1322.05684188176	1474.19995117188
1322.71235342911	1473.40002441406
1323.36778066347	1469
1324.02312359245	1476.40002441406
1324.67838222365	1481
1325.33355656468	1473.19995117188
1325.98864662314	1475.59997558594
1326.64365240663	1468.40002441406
1327.29857392277	1471.40002441406
1327.95341117915	1481.40002441406
1328.60816418339	1476.59997558594
1329.26283294308	1455.40002441406
1329.91741746582	1453
1330.57191775923	1446.40002441406
1331.2263338309	1441
1331.88066568843	1452.80004882813
1332.53491333943	1454.80004882813
1333.1890767915	1465.40002441406
1333.84315605224	1462.19995117188
1334.49715112925	1460.19995117188
1335.15106203013	1454.59997558594
1335.80488876249	1449.80004882813
1336.45863133391	1441.59997558594
1337.112289752	1441.40002441406
1337.76586402437	1449.40002441406
1338.4193541586	1459.59997558594
1339.0727601623	1471.80004882813
1339.72608204306	1475.59997558594
1340.37931980849	1464.19995117188
1341.03247346617	1462.19995117188
1341.68554302372	1451.59997558594
1342.33852848871	1447.19995117188
1342.99142986876	1449.59997558594
1343.64424717145	1459.80004882813
1344.29698040438	1454
1344.94962957515	1469.59997558594
1345.60219469135	1466.80004882813
1346.25467576058	1467.59997558594
1346.90707279042	1474.80004882813
1347.55938578848	1465
1348.21161476235	1487.19995117188
1348.86375971962	1483.40002441406
1349.51582066787	1483
1350.16779761472	1487.80004882813
1350.81969056774	1490.80004882813
1351.47149953453	1504.80004882813
1352.12322452269	1487.40002441406
1352.77486553979	1501.59997558594
1353.42642259344	1504
1354.07789569122	1513.59997558594
1354.72928484072	1497.19995117188
1355.38059004953	1500
1356.03181132525	1524.59997558594
1356.68294867545	1516.40002441406
1357.33400210773	1509
1357.98497162968	1492.40002441406
1358.63585724889	1500
1359.28665897294	1492.80004882813
1359.93737680942	1485.40002441406
1360.58801076591	1484.80004882813
1361.23856085001	1496.19995117188
1361.88902706929	1512
1362.53940943135	1518.19995117188
1363.18970794377	1512.59997558594
1363.83992261413	1522
1364.49005345003	1532.80004882813
1365.14010045904	1526
1365.79006364874	1528
1366.43994302673	1540.19995117188
1367.08973860058	1537.19995117188
1367.73945037788	1527.40002441406
1368.38907836621	1520.59997558594
1369.03862257315	1517.59997558594
1369.68808300629	1491.19995117188
1370.3374596732	1509.59997558594
1370.98675258148	1507.40002441406
1371.63596173868	1497.40002441406
1372.28508715241	1483.59997558594
1372.93412883024	1480.40002441406
1373.58308677974	1477.19995117188
1374.2319610085	1464.19995117188
1374.8807515241	1458
1375.52945833412	1452.80004882813
1376.17808144612	1445.19995117188
1376.82662086771	1442
1377.47507660644	1451
1378.12344866989	1436.59997558594
1378.77173706565	1446.80004882813
1379.41994180129	1438.80004882813
1380.06806288439	1447.19995117188
1380.71610032252	1454.19995117188
1381.36405412326	1459.59997558594
1382.01192429419	1459.40002441406
1382.65971084287	1459.40002441406
1383.30741377688	1470.80004882813
1383.95503310381	1468.40002441406
1384.60256883121	1448
1385.25002096667	1451
1385.89738951775	1458
1386.54467449204	1450.19995117188
1387.19187589709	1437.59997558594
1387.8389937405	1447
1388.48602802982	1439.59997558594
1389.13297877262	1428.59997558594
1389.77984597649	1441.59997558594
1390.42662964899	1445.80004882813
1391.07332979768	1448
1391.71994643015	1442.40002441406
1392.36647955395	1442.40002441406
1393.01292917667	1439
1393.65929530586	1442.59997558594
1394.3055779491	1452.40002441406
1394.95177711395	1446.19995117188
1395.59789280799	1438
1396.24392503877	1428.80004882813
1396.88987381387	1436.40002441406
1397.53573914086	1438
1398.1815210273	1422.40002441406
1398.82721948075	1424
1399.47283450878	1427.59997558594
1400.11836611897	1435.40002441406
1400.76381431886	1425.19995117188
1401.40917911603	1416.40002441406
1402.05446051805	1413.59997558594
1402.69965853247	1389.80004882813
1403.34477316686	1391.59997558594
1403.98980442878	1398.59997558594
1404.6347523258	1398.40002441406
1405.27961686548	1408.19995117188
1405.92439805538	1414.19995117188
1406.56909590306	1408
1407.21371041608	1414.40002441406
1407.85824160202	1417.80004882813
1408.50268946841	1424.19995117188
1409.14705402284	1426.40002441406
1409.79133527285	1425.80004882813
1410.43553322601	1419.40002441406
1411.07964788987	1417
1411.723679272	1430.40002441406
1412.36762737996	1419
1413.01149222129	1427.59997558594
1413.65527380357	1426
1414.29897213435	1408.19995117188
1414.94258722118	1408.80004882813
1415.58611907163	1413
1416.22956769325	1409
1416.87293309359	1400
1417.51621528021	1416.40002441406
1418.15941426067	1413.40002441406
1418.80253004253	1415.59997558594
1419.44556263333	1408
1420.08851204063	1417.59997558594
1420.731378272	1420.59997558594
1421.37416133497	1427.80004882813
1422.0168612371	1426.59997558594
1422.65947798596	1432.40002441406
1423.30201158908	1442
1423.94446205403	1441.80004882813
1424.58682938835	1436.80004882813
1425.2291135996	1439.59997558594
1425.87131469532	1424.40002441406
1426.51343268308	1434.59997558594
1427.15546757042	1428
1427.79741936488	1432.59997558594
1428.43928807403	1426
1429.0810737054	1420
1429.72277626656	1416.80004882813
1430.36439576504	1423.40002441406
1431.00593220841	1412
1431.64738560419	1419
1432.28875595995	1409
1432.93004328324	1410.80004882813
1433.57124758159	1398.59997558594
1434.21236886255	1401
1434.85340713368	1414.80004882813
1435.49436240252	1418.40002441406
1436.13523467661	1403.59997558594
1436.77602396349	1407.19995117188
1437.41673027073	1400.19995117188
1438.05735360585	1405.59997558594
1438.69789397641	1412.59997558594
1439.33835138994	1415
1439.978725854	1417.19995117188
1440.61901737612	1423.80004882813
1441.25922596385	1412.19995117188
1441.89935162473	1409.80004882813
1442.53939436631	1409.40002441406
1443.17935419612	1394
1443.81923112171	1398.59997558594
1444.45902515061	1396.40002441406
1445.09873629038	1397.40002441406
1445.73836454854	1406
1446.37790993265	1393.80004882813
1447.01737245024	1405.59997558594
1447.65675210885	1402.40002441406
1448.29604891602	1395
1448.93526287928	1404.40002441406
1449.57439400618	1387.59997558594
1450.21344230426	1402.80004882813
1450.85240778105	1390
1451.49129044409	1421.19995117188
1452.13009030092	1421.19995117188
1452.76880735907	1408.59997558594
1453.40744162608	1426
1454.04599310949	1430
1454.68446181683	1426.59997558594
1455.32284775564	1430
1455.96115093345	1418
1456.5993713578	1431
1457.23750903623	1421.19995117188
1457.87556397626	1407.40002441406
1458.51353618543	1391.19995117188
1459.15142567127	1391
1459.78923244132	1401.19995117188
1460.42695650311	1405.40002441406
1461.06459786417	1403
1461.70215653203	1408
1462.33963251423	1405.59997558594
1462.97702581829	1398.80004882813
1463.61433645175	1403.19995117188
1464.25156442214	1392
1464.88870973699	1403.59997558594
1465.52577240382	1409.80004882813
1466.16275243017	1399
1466.79964982356	1390.19995117188
1467.43646459154	1397.80004882813
1468.07319674161	1404.59997558594
1468.70984628132	1413.80004882813
1469.34641321818	1409
1469.98289755974	1409.59997558594
1470.6192993135	1404.59997558594
1471.25561848701	1395
1471.89185508779	1403.19995117188
1472.52800912336	1401
1473.16408060124	1399.80004882813
1473.80006952897	1393.80004882813
1474.43597591407	1391
1475.07179976406	1398.59997558594
1475.70754108647	1388
1476.34319988883	1393.40002441406
1476.97877617865	1401.40002441406
1477.61426996345	1404.40002441406
1478.24968125077	1425
1478.88501004812	1417
1479.52025636303	1428.40002441406
1480.15542020302	1418
1480.79050157561	1423.19995117188
1481.42550048832	1414.40002441406
1482.06041694867	1418.80004882813
1482.69525096418	1415.59997558594
1483.33000254237	1417.80004882813
1483.96467169077	1419.19995117188
1484.59925841689	1404.40002441406
1485.23376272825	1409.40002441406
1485.86818463237	1400.59997558594
1486.50252413677	1408.19995117188
1487.13678124896	1396
1487.77095597646	1379.40002441406
1488.4050483268	1386.19995117188
1489.03905830749	1387.40002441406
1489.67298592604	1384.19995117188
1490.30683118996	1385.59997558594
1490.9405941068	1380
1491.57427468403	1382.59997558594
1492.2078729292	1399.80004882813
1492.84138884981	1406.59997558594
1493.47482245338	1410.59997558594
1494.10817374742	1418.59997558594
1494.74144273944	1427
1495.37462943696	1425
1496.0077338475	1432.19995117188
1496.64075597856	1423.59997558594
1497.27369583765	1410.40002441406
1497.9065534323	1398
1498.53932877001	1376.40002441406
1499.17202185829	1379.59997558594
1499.80463270465	1371
1500.43716131661	1365.40002441406
1501.06960770167	1377
1501.70197186735	1372.80004882813
1502.33425382116	1379.80004882813
1502.96645357059	1382.40002441406
1503.59857112317	1382.59997558594
1504.23060648641	1397.59997558594
1504.8625596678	1394.19995117188
1505.49443067486	1398.40002441406
1506.1262195151	1410.19995117188
1506.75792619602	1401.80004882813
1507.38955072513	1407.40002441406
1508.02109310993	1414.59997558594
1508.65255335794	1408.80004882813
1509.28393147666	1398.19995117188
1509.91522747359	1392.19995117188
1510.54644135624	1387.19995117188
1511.17757313212	1405.19995117188
1511.80862280872	1402.59997558594
1512.43959039356	1409.19995117188
1513.07047589413	1401.40002441406
1513.70127931795	1395
1514.33200067251	1401.59997558594
1514.96263996531	1387.19995117188
1515.59319720386	1381.80004882813
1516.22367239567	1378
1516.85406554822	1384.40002441406
1517.48437666903	1377
1518.1146057656	1389.40002441406
1518.74475284542	1396.59997558594
1519.374817916	1383.19995117188
1520.00480098483	1388.59997558594
1520.63470205942	1378.80004882813
1521.26452114726	1383.40002441406
1521.89425825586	1374.19995117188
1522.52391339271	1374
1523.15348656531	1386.80004882813
1523.78297778116	1382.59997558594
1524.41238704775	1373.40002441406
1525.04171437259	1366.80004882813
1525.67095976317	1369.40002441406
1526.30012322699	1366.40002441406
1526.92920477154	1349.40002441406
1527.55820440432	1355.40002441406
1528.18712213283	1348.40002441406
1528.81595796455	1343.19995117188
1529.44471190699	1335.40002441406
1530.07338396764	1344
1530.70197415399	1354.40002441406
1531.33048247353	1346.80004882813
1531.95890893377	1336.80004882813
1532.58725354219	1350.19995117188
1533.21551630629	1351.19995117188
1533.84369723356	1356.80004882813
1534.47179633148	1364.40002441406
1535.09981360757	1377.59997558594
1535.72774906929	1399
1536.35560272415	1391
1536.98337457963	1388.40002441406
1537.61106464323	1383.59997558594
1538.23867292243	1396.40002441406
1538.86619942473	1386
1539.49364415762	1396
1540.12100712857	1382.40002441406
1540.74828834509	1384.80004882813
1541.37548781466	1377.80004882813
1542.00260554478	1377.19995117188
1542.62964154291	1361
1543.25659581655	1364
1543.8834683732	1368.80004882813
1544.51025922034	1366.40002441406
1545.13696836544	1362.19995117188
1545.76359581601	1365.40002441406
1546.39014157952	1369.40002441406
1547.01660566345	1357.19995117188
1547.64298807531	1354.80004882813
1548.26928882255	1371.40002441406
1548.89550791269	1360.40002441406
1549.52164535318	1359.80004882813
1550.14770115153	1351
1550.77367531521	1356.40002441406
1551.39956785171	1368.19995117188
1552.0253787685	1365
1552.65110807307	1366.40002441406
1553.2767557729	1374.19995117188
1553.90232187548	1364
1554.52780638828	1368.59997558594
1555.15320931879	1369.19995117188
1555.77853067447	1369.80004882813
1556.40377046282	1366.40002441406
1557.02892869132	1369
1557.65400536744	1348
1558.27900049866	1358.80004882813
1558.90391409247	1356
1559.52874615633	1371.80004882813
1560.15349669773	1369.80004882813
1560.77816572414	1385
1561.40275324305	1396
1562.02725926192	1383.40002441406
1562.65168378824	1393
1563.27602682948	1400.80004882813
1563.90028839311	1386.40002441406
1564.52446848662	1390.80004882813
1565.14856711748	1386.40002441406
1565.77258429316	1388.80004882813
1566.39652002113	1381.59997558594
1567.02037430887	1380.40002441406
1567.64414716387	1379.80004882813
1568.26783859357	1370.40002441406
1568.89144860547	1370.59997558594
1569.51497720703	1371.40002441406
1570.13842440573	1378.80004882813
1570.76179020904	1371.59997558594
1571.38507462442	1368
1572.00827765936	1363
1572.63139932132	1372.80004882813
1573.25443961777	1366.59997558594
1573.87739855618	1372.59997558594
1574.50027614402	1361.80004882813
1575.12307238877	1349.19995117188
1575.74578729789	1361.40002441406
1576.36842087885	1366.59997558594
1576.99097313912	1371.40002441406
1577.61344408616	1376.80004882813
1578.23583372745	1365.19995117188
1578.85814207046	1362
1579.48036912264	1366.59997558594
1580.10251489147	1347
1580.72457938441	1348.80004882813
1581.34656260893	1368.80004882813
1581.9684645725	1365.40002441406
1582.59028528258	1361.80004882813
1583.21202474663	1353.59997558594
1583.83368297212	1364.59997558594
1584.45525996652	1351.80004882813
1585.07675573728	1352.19995117188
1585.69817029188	1349
1586.31950363778	1340.40002441406
1586.94075578243	1347.59997558594
1587.5619267333	1334.40002441406
1588.18301649786	1345.80004882813
1588.80402508357	1336.19995117188
1589.42495249788	1336.59997558594
1590.04579874826	1328.19995117188
1590.66656384217	1330.19995117188
1591.28724778707	1314.80004882813
1591.90785059042	1325
1592.52837225968	1331.40002441406
1593.14881280232	1323.19995117188
1593.76917222578	1314
1594.38945053753	1321.59997558594
1595.00964774502	1326.40002441406
1595.62976385573	1338.19995117188
1596.24979887709	1328.40002441406
1596.86975281657	1331.19995117188
1597.48962568164	1338.80004882813
1598.10941747974	1342.19995117188
1598.72912821832	1333.40002441406
1599.34875790486	1335.19995117188
1599.9683065468	1340.59997558594
1600.58777415159	1345.40002441406
1601.2071607267	1337.19995117188
1601.82646627958	1327.59997558594
1602.44569081769	1332
1603.06483434846	1316.40002441406
1603.68389687937	1308.40002441406
1604.30287841786	1300
1604.92177897139	1296
1605.54059854741	1290
1606.15933715337	1287.40002441406
1606.77799479672	1291
1607.39657148492	1304.80004882813
1608.01506722542	1304.40002441406
1608.63348202566	1315.59997558594
1609.2518158931	1306.59997558594
1609.87006883519	1314
1610.48824085939	1312.19995117188
1611.10633197312	1321.59997558594
1611.72434218386	1322.19995117188
1612.34227149904	1317.19995117188
1612.96011992612	1315.59997558594
1613.57788747254	1300
1614.19557414575	1303.40002441406
1614.8131799532	1306
1615.43070490234	1301.59997558594
1616.04814900061	1284.40002441406
1616.66551225545	1293.80004882813
1617.28279467433	1288.80004882813
1617.89999626467	1294.19995117188
1618.51711703393	1286.59997558594
1619.13415698955	1291.80004882813
1619.75111613898	1289.40002441406
1620.36799448966	1293.40002441406
1620.98479204903	1297.19995117188
1621.60150882455	1295.19995117188
1622.21814482364	1293.59997558594
1622.83470005376	1292.19995117188
1623.45117452235	1290
1624.06756823685	1297
1624.6838812047	1298
1625.30011343335	1280.59997558594
1625.91626493022	1284.80004882813
1626.53233570278	1292.40002441406
1627.14832575845	1295
1627.76423510468	1300.19995117188
1628.38006374891	1305
1628.99581169857	1302.19995117188
1629.61147896111	1308.59997558594
1630.22706554397	1312.40002441406
1630.84257145457	1317.19995117188
1631.45799670038	1290.80004882813
1632.07334128881	1294
1632.6886052273	1277
1633.3037885233	1285.19995117188
1633.91889118425	1285
1634.53391321757	1276.80004882813
1635.1488546307	1283.19995117188
1635.76371543108	1280
1636.37849562616	1291.40002441406
1636.99319522335	1286.80004882813
1637.60781423009	1275.40002441406
1638.22235265383	1288
1638.83681050198	1294.80004882813
1639.451187782	1295.40002441406
1640.0654845013	1295.80004882813
1640.67970066734	1294.80004882813
1641.29383628752	1303.59997558594
1641.9078913693	1293
1642.5218659201	1280
1643.13575994735	1286.80004882813
1643.74957345849	1281.19995117188
1644.36330646094	1283.80004882813
1644.97695896213	1281.59997558594
1645.59053096951	1284.19995117188
1646.20402249049	1274.80004882813
1646.8174335325	1288.59997558594
1647.43076410298	1302.80004882813
1648.04401420935	1299
1648.65718385905	1320.19995117188
1649.2702730595	1317.59997558594
1649.88328181812	1328.80004882813
1650.49621014236	1323
1651.10905803963	1312.19995117188
1651.72182551735	1308.19995117188
1652.33451258297	1310.40002441406
1652.9471192439	1292.59997558594
1653.55964550757	1296.19995117188
1654.1720913814	1295.40002441406
1654.78445687283	1278.19995117188
1655.39674198926	1291.80004882813
1656.00894673814	1286
1656.62107112688	1290.80004882813
1657.23311516291	1283
1657.84507885365	1277.80004882813
1658.45696220652	1270.19995117188
1659.06876522895	1255.59997558594
1659.68048792835	1248.40002441406
1660.29213031217	1247.80004882813
1660.90369238779	1251.59997558594
1661.51517416267	1251
1662.12657564421	1258.59997558594
1662.73789683984	1249.40002441406
1663.34913775697	1257.80004882813
1663.96029840303	1241.80004882813
1664.57137878544	1245.40002441406
1665.18237891161	1232
1665.79329878897	1227.59997558594
1666.40413842493	1232
1667.01489782691	1233.19995117188
1667.62557700233	1244.59997558594
1668.2361759586	1245.80004882813
1668.84669470315	1241.80004882813
1669.4571332434	1233.80004882813
1670.06749158675	1228.19995117188
1670.67776974062	1235.59997558594
1671.28796771243	1221.59997558594
1671.8980855096	1219.40002441406
1672.50812313954	1223.59997558594
1673.11808060967	1234.19995117188
1673.72795792739	1231
1674.33775510013	1234.19995117188
1674.9474721353	1233.59997558594
1675.55710904031	1226.59997558594
1676.16666582257	1230.40002441406
1676.7761424895	1230
1677.38553904851	1237.19995117188
1677.99485550702	1232.59997558594
1678.60409187243	1228
1679.21324815215	1220
1679.8223243536	1214.80004882813
1680.43132048419	1204.80004882813
1681.04023655132	1217.80004882813
1681.64907256241	1216.40002441406
1682.25782852487	1211.19995117188
1682.86650444611	1215.40002441406
1683.47510033353	1216.80004882813
1684.08361619455	1223.59997558594
1684.69205203657	1229.59997558594
1685.300407867	1234
1685.90868369325	1229.19995117188
1686.51687952272	1233
1687.12499536283	1223.40002441406
1687.73303122098	1224.19995117188
1688.34098710457	1221.80004882813
1688.94886302101	1218.40002441406
1689.55665897772	1209
1690.16437498208	1222.59997558594
1690.77201104152	1215
1691.37956716342	1216.80004882813
1691.9870433552	1228.19995117188
1692.59443962426	1225.80004882813
1693.20175597801	1238.40002441406
1693.80899242384	1227.40002441406
1694.41614896916	1227.80004882813
1695.02322562138	1220.19995117188
1695.63022238789	1216.59997558594
1696.23713927609	1224.80004882813
1696.8439762934	1207.19995117188
1697.4507334472	1213.80004882813
1698.05741074491	1199.40002441406
1698.66400819391	1203.40002441406
1699.27052580161	1201.80004882813
1699.87696357542	1187.80004882813
1700.48332152272	1195.40002441406
1701.08959965092	1199.40002441406
1701.69579796742	1192.19995117188
1702.30191647962	1196
1702.90795519491	1191.40002441406
1703.51391412069	1181
1704.11979326437	1183.59997558594
1704.72559263332	1178.59997558594
1705.33131223496	1192.19995117188
1705.93695207668	1186.40002441406
1706.54251216588	1192.19995117188
1707.14799250994	1184.80004882813
1707.75339311628	1178
1708.35871399227	1162.80004882813
1708.96395514532	1169.40002441406
1709.56911658282	1172
