634.948122577771	1350.19995117188
635.690341530823	1355
636.43246851086	1356.19995117188
637.174503525845	1351.59997558594
637.916446583745	1363.19995117188
638.658297692538	1355.19995117188
639.400056860179	1358.19995117188
640.141724094637	1347.19995117188
640.883299403885	1351
641.62478279588	1355
642.366174278594	1351.40002441406
643.107473859989	1365.40002441406
643.848681548029	1364.19995117188
644.589797350679	1362.80004882813
645.330821275901	1358
646.071753331665	1354.59997558594
646.812593525922	1358
647.553341866646	1346.59997558594
648.293998361798	1348
649.03456301933	1349.40002441406
649.775035847216	1355.59997558594
650.515416853409	1365
651.255706045874	1360.19995117188
651.995903432568	1369.80004882813
652.736009021453	1371.59997558594
653.476022820486	1363.40002441406
654.215944837629	1364.40002441406
654.955775080842	1360.40002441406
655.695513558081	1372
656.435160277301	1378.80004882813
657.174715246465	1385.80004882813
657.914178473527	1380.19995117188
658.653549966449	1381.40002441406
659.392829733176	1381.80004882813
660.132017781678	1360.19995117188
660.871114119901	1358.80004882813
661.610118755803	1359.80004882813
662.349031697343	1361.40002441406
663.087852952468	1366.80004882813
663.826582529139	1361.59997558594
664.565220435305	1352.59997558594
665.30376667892	1343.40002441406
666.04222126794	1353
666.780584210316	1364.80004882813
667.518855514	1359.40002441406
668.25703518694	1363.40002441406
668.995123237096	1369.59997558594
669.733119672413	1371.19995117188
670.471024500842	1367.59997558594
671.208837730333	1374.59997558594
671.946559368839	1379.19995117188
672.684189424308	1377.19995117188
673.421727904689	1375.19995117188
674.159174817929	1377.80004882813
674.896530171977	1383.80004882813
675.633793974786	1386.80004882813
676.370966234295	1373.40002441406
677.108046958461	1377
677.845036155219	1371.59997558594
678.581933832528	1375.40002441406
679.318739998323	1371.80004882813
680.055454660558	1387.19995117188
680.792077827172	1385.59997558594
681.528609506116	1375
682.265049705331	1377.80004882813
683.001398432759	1373.59997558594
683.737655696349	1375.19995117188
684.47382150404	1371.59997558594
685.20989586378	1352.19995117188
685.945878783503	1360.59997558594
686.68177027116	1378.19995117188
687.417570334688	1369
688.153278982032	1380.80004882813
688.888896221129	1379.59997558594
689.624422059921	1376.80004882813
690.359856506349	1379.59997558594
691.095199568354	1386.80004882813
691.830451253874	1383
692.565611570844	1386.19995117188
693.300680527212	1390.19995117188
694.03565813091	1385.19995117188
694.770544389877	1391.59997558594
695.505339312053	1381.19995117188
696.240042905372	1383.40002441406
696.974655177772	1382.40002441406
697.70917613719	1394.59997558594
698.443605791561	1402
699.177944148826	1391
699.912191216909	1401.40002441406
700.646347003755	1408.80004882813
701.380411517295	1407.19995117188
702.114384765465	1392
702.848266756195	1411.19995117188
703.582057497421	1398
704.315756997074	1410.19995117188
705.049365263089	1417.40002441406
705.782882303399	1397.59997558594
706.516308125936	1416.40002441406
707.249642738626	1397.80004882813
707.982886149403	1412
708.716038366204	1406.40002441406
709.449099396949	1381.40002441406
710.182069249577	1401.40002441406
710.914947932009	1389
711.647735452181	1372.40002441406
712.380431818022	1381.59997558594
713.113037037454	1394.80004882813
713.845551118411	1385.40002441406
714.577974068818	1385.19995117188
715.310305896604	1394.40002441406
716.042546609694	1405.40002441406
716.774696216013	1400.80004882813
717.506754723493	1406
718.238722140053	1411.80004882813
718.970598473624	1407
719.702383732127	1395.80004882813
720.43407792349	1388.80004882813
721.165681055634	1388.80004882813
721.897193136486	1388
722.628614173966	1414.59997558594
723.359944175997	1401.59997558594
724.091183150505	1391.80004882813
724.822331105412	1385.59997558594
725.553388048638	1401.40002441406
726.284353988106	1387
727.015228931734	1373.59997558594
727.746012887449	1394.59997558594
728.476705863162	1400.19995117188
729.207307866803	1415
729.937818906289	1426.59997558594
730.668238989535	1422.40002441406
731.398568124459	1425.40002441406
732.128806318986	1413.80004882813
732.858953581034	1413.80004882813
733.589009918514	1397.59997558594
734.318975339348	1396.80004882813
735.048849851452	1399
735.778633462744	1394
736.508326181137	1395
737.237928014549	1385.80004882813
737.967438970897	1391
738.696859058095	1402.59997558594
739.426188284054	1382.59997558594
740.155426656692	1385.59997558594
740.884574183922	1394.40002441406
741.613630873659	1393.40002441406
742.342596733815	1394
743.071471772302	1404
743.800255997034	1406.80004882813
744.528949415921	1404.59997558594
745.257552036877	1403.19995117188
745.986063867811	1405.59997558594
746.714484916638	1410.59997558594
747.442815191261	1409.80004882813
748.171054699597	1414.59997558594
748.899203449554	1412.19995117188
749.627261449039	1408.59997558594
750.355228705966	1403.40002441406
751.083105228239	1414.19995117188
751.810891023765	1418.19995117188
752.538586100459	1413.19995117188
753.266190466218	1419.80004882813
753.99370412896	1409.59997558594
754.721127096582	1413
755.448459377	1403.59997558594
756.175700978114	1400.19995117188
756.902851907828	1405.59997558594
757.629912174055	1390.19995117188
758.356881784688	1408.80004882813
759.083760747639	1406
759.810549070817	1401.40002441406
760.537246762113	1411.59997558594
761.263853829442	1405
761.990370280698	1406.80004882813
762.716796123791	1420.80004882813
763.443131366618	1404.80004882813
764.169376017082	1418.80004882813
764.895530083085	1430.40002441406
765.621593572527	1408.19995117188
766.347566493312	1425.80004882813
767.073448853336	1428.40002441406
767.799240660502	1420.19995117188
768.524941922707	1433.80004882813
769.250552647854	1428.40002441406
769.976072843836	1445
770.701502518551	1433.40002441406
771.426841679905	1451.80004882813
772.152090335793	1450.80004882813
772.877248494107	1456.59997558594
773.602316162747	1442.59997558594
774.327293349609	1454.19995117188
775.052180062592	1466.80004882813
775.776976309589	1469.19995117188
776.501682098496	1457.40002441406
777.226297437206	1471.59997558594
777.950822333616	1454.19995117188
778.675256795621	1454
779.399600831111	1450
780.123854447983	1451.19995117188
780.84801765413	1463.59997558594
781.572090457441	1440.80004882813
782.296072865811	1435.19995117188
783.019964887131	1438.19995117188
783.743766529297	1429.19995117188
784.467477800194	1433.80004882813
785.191098707719	1425
785.914629259756	1427.59997558594
786.638069464194	1423.80004882813
787.361419328932	1416.59997558594
788.084678861852	1420.40002441406
788.807848070845	1415.40002441406
789.530926963798	1402.40002441406
790.253915548602	1414.19995117188
790.976813833144	1401.59997558594
791.699621825307	1405.80004882813
792.422339532986	1397
793.144966964061	1410.40002441406
793.86750412642	1421.80004882813
794.589951027946	1412.19995117188
795.312307676536	1404
796.03457408006	1402
796.756750246417	1391
797.478836183477	1401.40002441406
798.200831899137	1416.59997558594
798.92273740127	1408.40002441406
799.644552697769	1412.40002441406
800.36627779651	1412.19995117188
801.087912705374	1414.19995117188
801.809457432251	1418.59997558594
802.530911985017	1426.40002441406
803.252276371558	1428.19995117188
803.973550599748	1428.40002441406
804.694734677472	1417
805.415828612611	1421.59997558594
806.136832413045	1425.59997558594
806.857746086646	1409.40002441406
807.578569641305	1404.59997558594
808.299303084892	1416.19995117188
809.019946425289	1421.59997558594
809.740499670372	1429
810.460962828022	1426.59997558594
811.181335906114	1414.80004882813
811.901618912524	1425
812.621811855131	1409.80004882813
813.341914741809	1419.19995117188
814.061927580433	1402.19995117188
814.781850378881	1415.59997558594
815.501683145025	1391.80004882813
816.221425886743	1413.40002441406
816.941078611903	1410.59997558594
817.660641328387	1400.19995117188
818.380114044065	1384.40002441406
819.099496766808	1398
819.818789504492	1400.80004882813
820.53799226499	1382
821.257105056168	1392.59997558594
821.976127885904	1399.19995117188
822.695060762064	1406
823.413903692525	1410.40002441406
824.132656685151	1414.80004882813
824.851319747817	1417.19995117188
825.569892888388	1423
826.288376114739	1417.59997558594
827.006769434737	1434.40002441406
827.725072856249	1427.40002441406
828.443286387142	1417.59997558594
829.161410035285	1412.40002441406
829.87944380855	1412.59997558594
830.597387714798	1416.19995117188
831.315241761898	1414.40002441406
832.033005957715	1422.59997558594
832.750680310119	1422.59997558594
833.468264826969	1423.19995117188
834.18575951614	1425.40002441406
834.903164385486	1421.40002441406
835.620479442878	1418.80004882813
836.337704696181	1415.80004882813
837.054840153255	1408.40002441406
837.771885821962	1400
838.488841710172	1411.80004882813
839.20570782574	1405.59997558594
839.922484176531	1401
840.639170770409	1391.80004882813
841.355767615231	1390.40002441406
842.072274718864	1394.40002441406
842.788692089164	1387.19995117188
843.505019733993	1404
844.221257661209	1410.40002441406
844.937405878676	1399.19995117188
845.65346439425	1402.19995117188
846.369433215789	1392.80004882813
847.085312351156	1392.19995117188
847.801101808205	1387.19995117188
848.516801594793	1384.40002441406
849.232411718781	1386.40002441406
849.947932188021	1377.80004882813
850.663363010376	1384.59997558594
851.378704193698	1403.59997558594
852.093955745842	1411.40002441406
852.809117674669	1408.19995117188
853.524189988028	1420.80004882813
854.239172693778	1405.59997558594
854.954065799768	1393.19995117188
855.668869313857	1406.80004882813
856.383583243899	1402.59997558594
857.098207597743	1388.59997558594
857.812742383246	1391.40002441406
858.527187608255	1382.80004882813
859.241543280628	1370.80004882813
859.955809408218	1396.59997558594
860.669985998868	1396.40002441406
861.384073060437	1391.40002441406
862.098070600772	1399.19995117188
862.811978627724	1407.80004882813
863.52579714914	1401.19995117188
864.239526172873	1404.59997558594
864.953165706776	1410
865.666715758687	1409.59997558594
866.380176336464	1396.80004882813
867.093547447951	1403.80004882813
867.806829100996	1398.19995117188
868.520021303444	1392
869.233124063149	1394.59997558594
869.94613738795	1394.19995117188
870.659061285693	1389.80004882813
871.37189576423	1398.40002441406
872.084640831403	1416.80004882813
872.797296495057	1415.19995117188
873.509862763039	1418.19995117188
874.22233964319	1405.40002441406
874.934727143353	1407.80004882813
875.647025271374	1391.40002441406
876.359234035097	1396.80004882813
877.071353442361	1394.59997558594
877.783383501015	1398.80004882813
878.495324218895	1389.80004882813
879.207175603844	1395.59997558594
879.918937663705	1401
880.630610406318	1420.19995117188
881.342193839524	1414.80004882813
882.053687971161	1417.40002441406
882.765092809069	1415.80004882813
883.476408361091	1392.40002441406
884.187634635066	1390.19995117188
884.898771638828	1384.59997558594
885.609819380221	1381.59997558594
886.320777867076	1389.19995117188
887.031647107236	1383.40002441406
887.742427108536	1386.59997558594
888.453117878816	1384.19995117188
889.16371942591	1393
889.874231757652	1392.59997558594
890.584654881883	1389.80004882813
891.294988806434	1390.19995117188
892.005233539141	1390.19995117188
892.715389087837	1384.80004882813
893.42545546036	1400.59997558594
894.135432664543	1402.40002441406
894.845320708216	1417.59997558594
895.555119599216	1422.19995117188
896.264829345375	1439.19995117188
896.974449954526	1429.40002441406
897.683981434496	1426.59997558594
898.393423793125	1426.40002441406
899.102777038235	1414.59997558594
899.812041177664	1419.40002441406
900.521216219239	1414.80004882813
901.230302170793	1413.59997558594
901.939299040155	1419.80004882813
902.64820683515	1426.40002441406
903.357025563612	1430.40002441406
904.065755233368	1418.40002441406
904.774395852247	1419.19995117188
905.482947428076	1431.59997558594
906.191409968682	1421.19995117188
906.899783481897	1416.19995117188
907.608067975538	1431.59997558594
908.316263457443	1417.40002441406
909.02436993543	1432.19995117188
909.732387417327	1425
910.440315910959	1421
911.148155424154	1423.19995117188
911.855905964731	1419.19995117188
912.563567540521	1415.19995117188
913.271140159339	1408.80004882813
913.978623829017	1412.80004882813
914.686018557374	1407.40002441406
915.393324352237	1407.80004882813
916.100541221421	1400.19995117188
916.807669172752	1401.19995117188
917.514708214054	1408.19995117188
918.221658353142	1399.19995117188
918.928519597843	1394.80004882813
919.635291955976	1395
920.341975435358	1390.80004882813
921.048570043813	1400.80004882813
921.75507578916	1415.40002441406
922.461492679212	1427.40002441406
923.167820721795	1427.40002441406
923.874059924726	1419.40002441406
924.58021029582	1419.19995117188
925.286271842893	1422.80004882813
925.992244573769	1425.19995117188
926.698128496262	1439.19995117188
927.403923618184	1420
928.109629947355	1410
928.815247491593	1412.59997558594
929.520776258708	1426
930.226216256519	1409.80004882813
930.931567492841	1405
931.636829975482	1417.80004882813
932.342003712263	1408
933.047088710995	1404.40002441406
933.752084979491	1397.80004882813
934.456992525564	1396.19995117188
935.161811357024	1393.59997558594
935.866541481688	1391.59997558594
936.571182907363	1375.59997558594
937.275735641861	1377.80004882813
937.980199692995	1379.59997558594
938.684575068572	1386.59997558594
939.388861776411	1385.59997558594
940.093059824311	1388.80004882813
940.797169220085	1396.40002441406
941.501189971544	1389.59997558594
942.205122086495	1384.80004882813
942.908965572751	1371.19995117188
943.612720438111	1382.80004882813
944.316386690391	1378.59997558594
945.019964337391	1388.59997558594
945.723453386924	1391.59997558594
946.426853846795	1391.19995117188
947.130165724808	1391.19995117188
947.83338902877	1397.40002441406
948.536523766488	1392.80004882813
949.239569945764	1382.40002441406
949.942527574402	1379.80004882813
950.64539666021	1391
951.348177210993	1377.19995117188
952.050869234548	1377.80004882813
952.753472738683	1362.19995117188
953.455987731199	1369.19995117188
954.158414219898	1368.59997558594
954.860752212587	1384.19995117188
955.563001717061	1376.59997558594
956.265162741124	1376.59997558594
956.967235292576	1376.40002441406
957.669219379224	1352.40002441406
958.371115008857	1370.19995117188
959.072922189283	1367.59997558594
959.774640928301	1361.59997558594
960.476271233708	1361
961.177813113301	1365.19995117188
961.879266574882	1368.19995117188
962.580631626248	1366.19995117188
963.281908275194	1371
963.98309652952	1372.19995117188
964.684196397022	1376.59997558594
965.3852078855	1384.19995117188
966.086131002745	1383.19995117188
966.786965756555	1382.80004882813
967.487712154726	1387.19995117188
968.188370205055	1381.40002441406
968.888939915331	1378
969.589421293352	1383.40002441406
970.289814346909	1398.80004882813
970.990119083801	1409.19995117188
971.690335511819	1405.80004882813
972.39046363875	1408.80004882813
973.090503472398	1415
973.790455020545	1409.19995117188
974.490318290987	1397.80004882813
975.190093291516	1395.59997558594
975.889780029923	1402.19995117188
976.589378513998	1398
977.288888751527	1397.80004882813
977.988310750308	1398.80004882813
978.687644518122	1405.40002441406
979.386890062767	1402
980.086047392025	1399.80004882813
980.785116513689	1391.19995117188
981.484097435542	1398.59997558594
982.182990165377	1390.59997558594
982.88179471098	1383.40002441406
983.580511080137	1388.40002441406
984.279139280632	1387.19995117188
984.977679320253	1371.80004882813
985.67613120679	1375.59997558594
986.374494948027	1385.19995117188
987.072770551745	1384.40002441406
987.770958025731	1380.59997558594
988.469057377772	1395.40002441406
989.167068615649	1385.80004882813
989.864991747145	1384.19995117188
990.562826780047	1383.80004882813
991.260573722134	1379.19995117188
991.958232581195	1373.40002441406
992.655803365003	1365.59997558594
993.353286081346	1380.40002441406
994.050680738006	1385.80004882813
994.74798734276	1392
995.44520590339	1390
996.142336427681	1408.19995117188
996.839378923407	1397.40002441406
997.536333398348	1386.59997558594
998.233199860289	1383.80004882813
998.929978317004	1377.40002441406
999.626668776274	1378.59997558594
1000.32327124587	1368.59997558594
1001.01978573359	1360
1001.71621224718	1355
1002.41255079445	1370.80004882813
1003.10880138315	1363.80004882813
1003.80496402107	1386.80004882813
1004.50103871599	1383.19995117188
1005.19702547567	1395
1005.8929243079	1400.59997558594
1006.58873522045	1415.80004882813
1007.2844582211	1416.40002441406
1007.98009331761	1403.80004882813
1008.67564051776	1404.80004882813
1009.37109982933	1402.19995117188
1010.06647126009	1395.40002441406
1010.7617548178	1392.80004882813
1011.45695051026	1388.19995117188
1012.15205834522	1391.80004882813
1012.84707833045	1390.80004882813
1013.54201047373	1380.40002441406
1014.23685478284	1380.40002441406
1014.93161126553	1384.19995117188
1015.62627992959	1383.19995117188
1016.32086078277	1378
1017.01535383285	1383.80004882813
1017.70975908761	1385.19995117188
1018.40407655479	1394.40002441406
1019.09830624219	1407.80004882813
1019.79244815755	1406
1020.48650230866	1400.19995117188
1021.18046870328	1410
1021.87434734917	1400.40002441406
1022.56813825411	1399.19995117188
1023.26184142584	1397.19995117188
1023.95545687216	1397
1024.64898460082	1394
1025.34242461957	1384.40002441406
1026.0357769362	1397.80004882813
1026.72904155846	1391.80004882813
1027.42221849412	1398
1028.11530775094	1404
1028.80830933668	1405.19995117188
1029.50122325911	1390.59997558594
1030.19404952599	1402
1030.88678814508	1383.59997558594
1031.57943912414	1376
1032.27200247093	1371
1032.96447819323	1371
1033.65686629878	1374.40002441406
1034.34916679534	1361.19995117188
1035.04137969068	1377.80004882813
1035.73350499256	1374.59997558594
1036.42554270874	1386.19995117188
1037.11749284697	1366.59997558594
1037.80935541501	1377.19995117188
1038.50113042062	1370
1039.19281787156	1378.80004882813
1039.88441777559	1377.19995117188
1040.57593014046	1375.59997558594
1041.26735497393	1390.19995117188
1041.95869228376	1388
1042.6499420777	1372
1043.3411043635	1375.40002441406
1044.03217914893	1382.80004882813
1044.72316644174	1383.80004882813
1045.41406624968	1385.19995117188
1046.1048785805	1388.80004882813
1046.79560344197	1372
1047.48624084182	1391.19995117188
1048.17679078783	1378.59997558594
1048.86725328774	1381.40002441406
1049.55762834929	1373.19995117188
1050.24791598025	1367.59997558594
1050.93811618837	1366.80004882813
1051.62822898139	1363.40002441406
1052.31825436707	1368.80004882813
1053.00819235315	1357.40002441406
1053.6980429474	1370.59997558594
1054.38780615755	1373.80004882813
1055.07748199136	1368.80004882813
1055.76707045658	1377.80004882813
1056.45657156095	1371.40002441406
1057.14598531222	1378.59997558594
1057.83531171814	1376.80004882813
1058.52455078646	1373.80004882813
1059.21370252494	1380
1059.90276694129	1390.59997558594
1060.5917440433	1378.19995117188
1061.28063383868	1378
1061.9694363352	1379.19995117188
1062.65815154059	1378.80004882813
1063.34677946261	1371.59997558594
1064.03532010899	1371.59997558594
1064.72377348748	1365.40002441406
1065.41213960583	1358
1066.10041847177	1367.19995117188
1066.78861009306	1368
1067.47671447743	1367
1068.16473163263	1370.59997558594
1068.85266156639	1378.19995117188
1069.54050428647	1398.80004882813
1070.2282598006	1384.19995117188
1070.91592811652	1387.19995117188
1071.60350924198	1384.19995117188
1072.29100318471	1380.59997558594
1072.97840995245	1376
1073.66572955295	1374.80004882813
1074.35296199394	1388.80004882813
1075.04010728316	1380
1075.72716542836	1384
1076.41413643726	1390.80004882813
1077.10102031761	1370.19995117188
1077.78781707715	1361
1078.4745267236	1366.19995117188
1079.16114926471	1368.19995117188
1079.84768470822	1373.19995117188
1080.53413306185	1373.40002441406
1081.22049433336	1385.40002441406
1081.90676853046	1383.80004882813
1082.5929556609	1388.19995117188
1083.27905573241	1387.80004882813
1083.96506875272	1384.19995117188
1084.65099472957	1371.40002441406
1085.3368336707	1367.80004882813
1086.02258558383	1363.40002441406
1086.70825047669	1349.80004882813
1087.39382835703	1369.80004882813
1088.07931923257	1365.80004882813
1088.76472311104	1373.40002441406
1089.45004000018	1376
1090.13526990771	1380.19995117188
1090.82041284137	1381
1091.50546880889	1385.19995117188
1092.19043781799	1387.59997558594
1092.87531987642	1367.59997558594
1093.56011499188	1380
1094.24482317212	1360
1094.92944442486	1351
1095.61397875783	1346.40002441406
1096.29842617876	1340
1096.98278669537	1367.19995117188
1097.6670603154	1373
1098.35124704656	1372.80004882813
1099.03534689659	1385
1099.71935987322	1377
1100.40328598416	1365.19995117188
1101.08712523713	1376.80004882813
1101.77087763988	1371.80004882813
1102.45454320012	1376
1103.13812192557	1375.40002441406
1103.82161382396	1377.80004882813
1104.50501890301	1370.59997558594
1105.18833717045	1367.19995117188
1105.87156863399	1374.19995117188
1106.55471330137	1372.80004882813
1107.2377711803	1379.80004882813
1107.9207422785	1388.59997558594
1108.60362660369	1388.40002441406
1109.2864241636	1392.40002441406
1109.96913496594	1392.59997558594
1110.65175901844	1376
1111.33429632882	1374.40002441406
1112.01674690479	1369
1112.69911075408	1356.80004882813
1113.38138788439	1367.80004882813
1114.06357830346	1363.80004882813
1114.745682019	1355
1115.42769903872	1371
1116.10962937035	1371.80004882813
1116.7914730216	1372.40002441406
1117.47323000018	1372
1118.15490031382	1389
1118.83648397022	1393.59997558594
1119.51798097712	1369.80004882813
1120.1993913422	1374.40002441406
1120.88071507321	1352.59997558594
1121.56195217784	1348.19995117188
1122.24310266381	1359.19995117188
1122.92416653884	1360.80004882813
1123.60514381064	1361.59997558594
1124.28603448692	1370.19995117188
1124.9668385754	1379.59997558594
1125.64755608378	1376.40002441406
1126.32818701978	1381.80004882813
1127.00873139111	1394.59997558594
1127.68918920548	1387
1128.3695604706	1384.59997558594
1129.04984519419	1372.80004882813
1129.73004338394	1363.19995117188
1130.41015504758	1359.40002441406
1131.09018019281	1363.80004882813
1131.77011882734	1371.80004882813
1132.44997095888	1370.80004882813
1133.12973659514	1362.19995117188
1133.80941574381	1384.19995117188
1134.48900841263	1378.80004882813
1135.16851460927	1365
1135.84793434147	1364.19995117188
1136.52726761692	1368.80004882813
1137.20651444333	1353.19995117188
1137.8856748284	1358.59997558594
1138.56474877984	1362.80004882813
1139.24373630536	1365.80004882813
1139.92263741265	1371.80004882813
1140.60145210943	1367.19995117188
1141.28018040339	1379.59997558594
1141.95882230225	1374.40002441406
1142.6373778137	1372
1143.31584694545	1360
1143.99422970519	1363.59997558594
1144.67252610064	1371
1145.35073613949	1365.40002441406
1146.02885982944	1364.19995117188
1146.7068971782	1348.59997558594
1147.38484819347	1348.40002441406
1148.06271288294	1357
1148.74049125432	1356.80004882813
1149.41818331531	1367
1150.0957890736	1365.59997558594
1150.77330853689	1362.80004882813
1151.45074171289	1365.40002441406
1152.12808860928	1350.59997558594
1152.80534923378	1353.59997558594
1153.48252359407	1355.80004882813
1154.15961169786	1349
1154.83661355283	1348.19995117188
1155.51352916669	1348.80004882813
1156.19035854713	1350.40002441406
1156.86710170185	1355.80004882813
1157.54375863855	1362.80004882813
1158.22032936491	1366.59997558594
1158.89681388863	1345
1159.57321221741	1363.59997558594
1160.24952435894	1357
1160.92575032092	1367.59997558594
1161.60189011103	1355.40002441406
1162.27794373697	1353.40002441406
1162.95391120644	1361.19995117188
1163.62979252712	1347
1164.3055877067	1362.19995117188
1164.98129675288	1359.59997558594
1165.65691967336	1358.59997558594
1166.33245647581	1358.19995117188
1167.00790716792	1356.80004882813
1167.6832717574	1371.59997558594
1168.35855025193	1354
1169.0337426592	1356.19995117188
1169.70884898689	1350.80004882813
1170.3838692427	1343
1171.05880343431	1348.40002441406
1171.73365156941	1351.40002441406
1172.40841365569	1369.59997558594
1173.08308970083	1362.19995117188
1173.75767971253	1369.19995117188
1174.43218369847	1368.59997558594
1175.10660166633	1376.80004882813
1175.7809336238	1358.80004882813
1176.45517957857	1355.19995117188
1177.12933953832	1352.59997558594
1177.80341351073	1359.80004882813
1178.47740150349	1346
1179.15130352429	1373.19995117188
1179.8251195808	1369.59997558594
1180.49884968071	1374
1181.1724938317	1376.40002441406
1181.84605204145	1359
1182.51952431766	1355.40002441406
1183.19291066799	1363.80004882813
1183.86621110013	1365.59997558594
1184.53942562176	1383.59997558594
1185.21255424057	1382.59997558594
1185.88559696422	1374.59997558594
1186.55855380041	1371.40002441406
1187.2314247568	1390
1187.90420984109	1371.59997558594
1188.57690906095	1369.19995117188
1189.24952242405	1372.40002441406
1189.92204993808	1384.40002441406
1190.59449161071	1375.80004882813
1191.26684744962	1384.19995117188
1191.93911746249	1380.40002441406
1192.61130165699	1370.80004882813
1193.28340004081	1374.59997558594
1193.95541262161	1364.59997558594
1194.62733940707	1371.40002441406
1195.29918040487	1377.59997558594
1195.97093562269	1366.80004882813
1196.64260506819	1373.40002441406
1197.31418874905	1366.59997558594
1197.98568667295	1370.80004882813
1198.65709884755	1357.40002441406
1199.32842528053	1362.59997558594
1199.99966597957	1357
1200.67082095234	1348.59997558594
1201.3418902065	1333.80004882813
1202.01287374974	1343.19995117188
1202.68377158971	1351.19995117188
1203.3545837341	1361.40002441406
1204.02531019057	1366
1204.6959509668	1365.59997558594
1205.36650607045	1366
1206.03697550919	1377.40002441406
1206.70735929069	1361.80004882813
1207.37765742263	1360
1208.04786991266	1366.19995117188
1208.71799676846	1366.59997558594
1209.38803799769	1365.59997558594
1210.05799360803	1356.19995117188
1210.72786360714	1351.80004882813
1211.39764800268	1352.40002441406
1212.06734680233	1347
1212.73696001375	1354.40002441406
1213.4064876446	1357
1214.07592970255	1359.40002441406
1214.74528619526	1359.80004882813
1215.4145571304	1353.19995117188
1216.08374251564	1345.80004882813
1216.75284235863	1344.80004882813
1217.42185666704	1338.19995117188
1218.09078544854	1349
1218.75962871078	1340.59997558594
1219.42838646143	1338.59997558594
1220.09705870816	1346.59997558594
1220.76564545861	1359.19995117188
1221.43414672046	1357.19995117188
1222.10256250136	1361.19995117188
1222.77089280898	1362
1223.43913765098	1374.19995117188
1224.107297035	1365
1224.77537096873	1361.19995117188
1225.44335945981	1365.40002441406
1226.1112625159	1362
1226.77908014467	1356
1227.44681235376	1347.59997558594
1228.11445915085	1344.59997558594
1228.78202054357	1352.59997558594
1229.44949653961	1360
1230.11688714659	1360.40002441406
1230.7841923722	1344.40002441406
1231.45141222407	1347.19995117188
1232.11854670988	1352.59997558594
1232.78559583726	1338.80004882813
1233.45255961388	1347.59997558594
1234.1194380474	1348
1234.78623114546	1351.19995117188
1235.45293891572	1349.40002441406
1236.11956136583	1351.19995117188
1236.78609850345	1339.19995117188
1237.45255033623	1334.40002441406
1238.11891687182	1350
1238.78519811788	1340.80004882813
1239.45139408205	1343.40002441406
1240.11750477198	1350.59997558594
1240.78353019534	1345.40002441406
1241.44947035976	1346.80004882813
1242.11532527291	1346.80004882813
1242.78109494242	1327.59997558594
1243.44677937595	1331.59997558594
1244.11237858115	1335
1244.77789256567	1341.80004882813
1245.44332133715	1346.40002441406
1246.10866490325	1335
1246.7739232716	1334.19995117188
1247.43909644987	1341.19995117188
1248.10418444569	1343.40002441406
1248.76918726671	1346.40002441406
1249.43410492059	1327
1250.09893741496	1336.19995117188
1250.76368475747	1333
1251.42834695576	1329.80004882813
1252.09292401749	1342.19995117188
1252.75741595029	1341.19995117188
1253.42182276182	1344.80004882813
1254.08614445971	1346.59997558594
1254.75038105161	1348.40002441406
1255.41453254515	1332.40002441406
1256.07859894799	1326.19995117188
1256.74258026777	1339.80004882813
1257.40647651213	1341.40002441406
1258.0702876887	1331.19995117188
1258.73401380514	1333.40002441406
1259.39765486908	1335.40002441406
1260.06121088817	1336.59997558594
1260.72468187004	1339.80004882813
1261.38806782233	1342.19995117188
1262.05136875269	1351.40002441406
1262.71458466875	1342.40002441406
1263.37771557815	1338.59997558594
1264.04076148854	1343.80004882813
1264.70372240753	1339.19995117188
1265.3665983428	1330.40002441406
1266.02938930195	1327
1266.69209529263	1351
1267.35471632249	1341.80004882813
1268.01725239914	1329
1268.67970353024	1322.40002441406
1269.34206972342	1317.19995117188
1270.00435098631	1328
1270.66654732655	1316.40002441406
1271.32865875177	1322.80004882813
1271.9906852696	1331
1272.65262688768	1332.59997558594
1273.31448361365	1347
1273.97625545514	1345.40002441406
1274.63794241978	1340.80004882813
1275.2995445152	1336.40002441406
1275.96106174903	1338.80004882813
1276.62249412892	1342.59997558594
1277.28384166248	1340.40002441406
1277.94510435735	1343.40002441406
1278.60628222116	1346.80004882813
1279.26737526155	1345.80004882813
1279.92838348613	1324
1280.58930690255	1329.80004882813
1281.25014551842	1321.59997558594
1281.91089934139	1330.80004882813
1282.57156837907	1334.59997558594
1283.2321526391	1333.59997558594
1283.89265212911	1335.59997558594
1284.55306685671	1329.19995117188
1285.21339682955	1329.19995117188
1285.87364205525	1318.59997558594
1286.53380254142	1306.80004882813
1287.19387829571	1321.40002441406
1287.85386932573	1319.19995117188
1288.51377563911	1331.40002441406
1289.17359724348	1327.40002441406
1289.83333414646	1341.59997558594
1290.49298635567	1333.80004882813
1291.15255387874	1338.19995117188
1291.8120367233	1334.19995117188
1292.47143489696	1324
1293.13074840736	1316.19995117188
1293.7899772621	1317.19995117188
1294.44912146882	1340.59997558594
1295.10818103513	1329.80004882813
1295.76715596866	1345.40002441406
1296.42604627704	1333.80004882813
1297.08485196787	1337.19995117188
1297.74357304878	1336.59997558594
1298.4022095274	1346
1299.06076141134	1347
1299.71922870821	1342.59997558594
1300.37761142565	1341
1301.03590957126	1339.80004882813
1301.69412315268	1332
1302.3522521775	1338.19995117188
1303.01029665336	1346.40002441406
1303.66825658787	1335.40002441406
1304.32613198865	1330.59997558594
1304.98392286332	1342.40002441406
1305.64162921948	1345.40002441406
1306.29925106476	1358.80004882813
1306.95678840677	1359.40002441406
1307.61424125312	1358.80004882813
1308.27160961145	1335.40002441406
1308.92889348934	1351.59997558594
1309.58609289443	1340.19995117188
1310.24320783432	1344.40002441406
1310.90023831664	1340.59997558594
1311.55718434898	1326
1312.21404593897	1323.80004882813
1312.87082309421	1334.59997558594
1313.52751582233	1328.59997558594
1314.18412413092	1338.19995117188
1314.84064802761	1344
1315.49708752	1343.40002441406
1316.1534426157	1337.59997558594
1316.80971332233	1356.80004882813
1317.46589964749	1348.40002441406
1318.1220015988	1343.40002441406
1318.77801918386	1342.19995117188
1319.43395241028	1344.40002441406
1320.08980128567	1353.40002441406
1320.74556581764	1340.80004882813
1321.4012460138	1358.80004882813
1322.05684188176	1339.19995117188
1322.71235342911	1354
1323.36778066347	1336.40002441406
1324.02312359245	1344.80004882813
1324.67838222365	1350
1325.33355656468	1346.40002441406
1325.98864662314	1345.40002441406
1326.64365240663	1339
1327.29857392277	1342
1327.95341117915	1340.40002441406
1328.60816418339	1348.80004882813
1329.26283294308	1342.59997558594
1329.91741746582	1336.40002441406
1330.57191775923	1332.80004882813
1331.2263338309	1326.59997558594
1331.88066568843	1316.59997558594
1332.53491333943	1320.80004882813
1333.1890767915	1325.19995117188
1333.84315605224	1321.40002441406
1334.49715112925	1324.19995117188
1335.15106203013	1334
1335.80488876249	1331.19995117188
1336.45863133391	1333
1337.112289752	1330.40002441406
1337.76586402437	1323.80004882813
1338.4193541586	1327.19995117188
1339.0727601623	1347.40002441406
1339.72608204306	1349.40002441406
1340.37931980849	1350.80004882813
1341.03247346617	1336.59997558594
1341.68554302372	1350.19995117188
1342.33852848871	1336.80004882813
1342.99142986876	1338
1343.64424717145	1336.80004882813
1344.29698040438	1345.80004882813
1344.94962957515	1348
1345.60219469135	1360.19995117188
1346.25467576058	1357.59997558594
1346.90707279042	1362.19995117188
1347.55938578848	1360
1348.21161476235	1351.80004882813
1348.86375971962	1351.19995117188
1349.51582066787	1351.40002441406
1350.16779761472	1350
1350.81969056774	1360
1351.47149953453	1372.80004882813
1352.12322452269	1363
1352.77486553979	1365
1353.42642259344	1368
1354.07789569122	1355.19995117188
1354.72928484072	1357.80004882813
1355.38059004953	1371.59997558594
1356.03181132525	1368.19995117188
1356.68294867545	1365.19995117188
1357.33400210773	1352.19995117188
1357.98497162968	1371.59997558594
1358.63585724889	1357.59997558594
1359.28665897294	1355.40002441406
1359.93737680942	1364.40002441406
1360.58801076591	1370
1361.23856085001	1367.59997558594
1361.88902706929	1366.19995117188
1362.53940943135	1377
1363.18970794377	1379.80004882813
1363.83992261413	1381
1364.49005345003	1376.80004882813
1365.14010045904	1385.40002441406
1365.79006364874	1384.80004882813
1366.43994302673	1387.59997558594
1367.08973860058	1374.19995117188
1367.73945037788	1362.40002441406
1368.38907836621	1359.19995117188
1369.03862257315	1359.19995117188
1369.68808300629	1350.59997558594
1370.3374596732	1344.40002441406
1370.98675258148	1354.40002441406
1371.63596173868	1363
1372.28508715241	1349
1372.93412883024	1338
1373.58308677974	1328.19995117188
1374.2319610085	1336
1374.8807515241	1318
1375.52945833412	1316.19995117188
1376.17808144612	1325
1376.82662086771	1320.59997558594
1377.47507660644	1316.19995117188
1378.12344866989	1304.40002441406
1378.77173706565	1322.19995117188
1379.41994180129	1322
1380.06806288439	1332.80004882813
1380.71610032252	1322
1381.36405412326	1327.40002441406
1382.01192429419	1335.59997558594
1382.65971084287	1338.19995117188
1383.30741377688	1344.40002441406
1383.95503310381	1335.80004882813
1384.60256883121	1327.19995117188
1385.25002096667	1335.59997558594
1385.89738951775	1312.19995117188
1386.54467449204	1333.59997558594
1387.19187589709	1322.80004882813
1387.8389937405	1301
1388.48602802982	1303.59997558594
1389.13297877262	1307
1389.77984597649	1300
1390.42662964899	1305.59997558594
1391.07332979768	1307.19995117188
1391.71994643015	1314.80004882813
1392.36647955395	1307
1393.01292917667	1320.80004882813
1393.65929530586	1323
1394.3055779491	1318.40002441406
1394.95177711395	1317.59997558594
1395.59789280799	1320.80004882813
1396.24392503877	1321
1396.88987381387	1312.80004882813
1397.53573914086	1305.40002441406
1398.1815210273	1301.19995117188
1398.82721948075	1308
1399.47283450878	1314.80004882813
1400.11836611897	1310
1400.76381431886	1300
1401.40917911603	1297.59997558594
1402.05446051805	1298.40002441406
1402.69965853247	1283.40002441406
1403.34477316686	1268.40002441406
1403.98980442878	1281.80004882813
1404.6347523258	1290.59997558594
1405.27961686548	1292.80004882813
1405.92439805538	1292
1406.56909590306	1301.40002441406
1407.21371041608	1301
1407.85824160202	1292.80004882813
1408.50268946841	1297.59997558594
1409.14705402284	1304.19995117188
1409.79133527285	1308.19995117188
1410.43553322601	1308.40002441406
1411.07964788987	1305.40002441406
1411.723679272	1317.40002441406
1412.36762737996	1313
1413.01149222129	1303.80004882813
1413.65527380357	1311.40002441406
1414.29897213435	1303
1414.94258722118	1314.80004882813
1415.58611907163	1304
1416.22956769325	1303.59997558594
1416.87293309359	1301.40002441406
1417.51621528021	1300.80004882813
1418.15941426067	1293.19995117188
1418.80253004253	1288.80004882813
1419.44556263333	1300.59997558594
1420.08851204063	1295
1420.731378272	1299.80004882813
1421.37416133497	1302
1422.0168612371	1319.59997558594
1422.65947798596	1310.80004882813
1423.30201158908	1316.40002441406
1423.94446205403	1298.80004882813
1424.58682938835	1312.59997558594
1425.2291135996	1297.19995117188
1425.87131469532	1311.59997558594
1426.51343268308	1296.40002441406
1427.15546757042	1312
1427.79741936488	1301
1428.43928807403	1299.40002441406
1429.0810737054	1304.19995117188
1429.72277626656	1302.59997558594
1430.36439576504	1305.19995117188
1431.00593220841	1296.59997558594
1431.64738560419	1284.19995117188
1432.28875595995	1289.40002441406
1432.93004328324	1292.19995117188
1433.57124758159	1281.59997558594
1434.21236886255	1287.80004882813
1434.85340713368	1290.19995117188
1435.49436240252	1288.80004882813
1436.13523467661	1296.40002441406
1436.77602396349	1297.40002441406
1437.41673027073	1308.19995117188
1438.05735360585	1293.19995117188
1438.69789397641	1292
1439.33835138994	1295.40002441406
1439.978725854	1302.19995117188
1440.61901737612	1308.19995117188
1441.25922596385	1291.59997558594
1441.89935162473	1293.80004882813
1442.53939436631	1294.40002441406
1443.17935419612	1296.40002441406
1443.81923112171	1290.80004882813
1444.45902515061	1288.80004882813
1445.09873629038	1288
1445.73836454854	1291
1446.37790993265	1283.59997558594
1447.01737245024	1282
1447.65675210885	1305.80004882813
1448.29604891602	1294.40002441406
1448.93526287928	1299.59997558594
1449.57439400618	1281.40002441406
1450.21344230426	1275
1450.85240778105	1301.40002441406
1451.49129044409	1294.80004882813
1452.13009030092	1300.80004882813
1452.76880735907	1303.59997558594
1453.40744162608	1313.40002441406
1454.04599310949	1315.59997558594
1454.68446181683	1309
1455.32284775564	1308.59997558594
1455.96115093345	1307.40002441406
1456.5993713578	1303.40002441406
1457.23750903623	1299.19995117188
1457.87556397626	1284
1458.51353618543	1275.40002441406
1459.15142567127	1275
1459.78923244132	1281.40002441406
1460.42695650311	1279
1461.06459786417	1283.40002441406
1461.70215653203	1285.40002441406
1462.33963251423	1286.80004882813
1462.97702581829	1283
1463.61433645175	1283
1464.25156442214	1290.59997558594
1464.88870973699	1294
1465.52577240382	1291.19995117188
1466.16275243017	1288
1466.79964982356	1291
1467.43646459154	1298.80004882813
1468.07319674161	1292.80004882813
1468.70984628132	1303.80004882813
1469.34641321818	1306
1469.98289755974	1301.19995117188
1470.6192993135	1291
1471.25561848701	1297
1471.89185508779	1286.80004882813
1472.52800912336	1287.40002441406
1473.16408060124	1285.59997558594
1473.80006952897	1287.19995117188
1474.43597591407	1292.19995117188
1475.07179976406	1287.40002441406
1475.70754108647	1283.80004882813
1476.34319988883	1291.40002441406
1476.97877617865	1302.19995117188
1477.61426996345	1308.80004882813
1478.24968125077	1308.19995117188
1478.88501004812	1307.59997558594
1479.52025636303	1306
1480.15542020302	1305.19995117188
1480.79050157561	1303.19995117188
1481.42550048832	1311.40002441406
1482.06041694867	1309.40002441406
1482.69525096418	1304.40002441406
1483.33000254237	1305.80004882813
1483.96467169077	1295.80004882813
1484.59925841689	1290.80004882813
1485.23376272825	1287
1485.86818463237	1283
1486.50252413677	1290.19995117188
1487.13678124896	1297.19995117188
1487.77095597646	1289.80004882813
1488.4050483268	1275.59997558594
1489.03905830749	1275.19995117188
1489.67298592604	1275.59997558594
1490.30683118996	1283.40002441406
1490.9405941068	1280.80004882813
1491.57427468403	1286.59997558594
1492.2078729292	1291.59997558594
1492.84138884981	1291.59997558594
1493.47482245338	1287.59997558594
1494.10817374742	1302.19995117188
1494.74144273944	1309.40002441406
1495.37462943696	1311
1496.0077338475	1308.59997558594
1496.64075597856	1307.80004882813
1497.27369583765	1291
1497.9065534323	1289
1498.53932877001	1281.40002441406
1499.17202185829	1262.19995117188
1499.80463270465	1270.19995117188
1500.43716131661	1269.59997558594
1501.06960770167	1267.59997558594
1501.70197186735	1266.59997558594
1502.33425382116	1274.80004882813
1502.96645357059	1274.59997558594
1503.59857112317	1274.80004882813
1504.23060648641	1271
1504.8625596678	1283
1505.49443067486	1276.19995117188
1506.1262195151	1285.40002441406
1506.75792619602	1284
1507.38955072513	1294.80004882813
1508.02109310993	1296.59997558594
1508.65255335794	1298.80004882813
1509.28393147666	1295.19995117188
1509.91522747359	1288.80004882813
1510.54644135624	1288.40002441406
1511.17757313212	1306.80004882813
1511.80862280872	1298.59997558594
1512.43959039356	1297.19995117188
1513.07047589413	1302
1513.70127931795	1295.59997558594
1514.33200067251	1298
1514.96263996531	1288.19995117188
1515.59319720386	1286.40002441406
1516.22367239567	1273.59997558594
1516.85406554822	1273
1517.48437666903	1284
1518.1146057656	1271.19995117188
1518.74475284542	1279.80004882813
1519.374817916	1274
1520.00480098483	1270.59997558594
1520.63470205942	1279.40002441406
1521.26452114726	1273.80004882813
1521.89425825586	1280.19995117188
1522.52391339271	1270
1523.15348656531	1282
1523.78297778116	1281.59997558594
1524.41238704775	1262.19995117188
1525.04171437259	1262.59997558594
1525.67095976317	1279.19995117188
1526.30012322699	1263.59997558594
1526.92920477154	1264.40002441406
1527.55820440432	1260.19995117188
1528.18712213283	1262.59997558594
1528.81595796455	1252.59997558594
1529.44471190699	1257.19995117188
1530.07338396764	1245.80004882813
1530.70197415399	1250
1531.33048247353	1256.19995117188
1531.95890893377	1247
1532.58725354219	1263.80004882813
1533.21551630629	1267.80004882813
1533.84369723356	1258.80004882813
1534.47179633148	1272
1535.09981360757	1283.40002441406
1535.72774906929	1293
1536.35560272415	1287.40002441406
1536.98337457963	1288.19995117188
1537.61106464323	1293.40002441406
1538.23867292243	1294.40002441406
1538.86619942473	1283
1539.49364415762	1287
1540.12100712857	1286.80004882813
1540.74828834509	1278.59997558594
1541.37548781466	1271.19995117188
1542.00260554478	1270
1542.62964154291	1271
1543.25659581655	1266.19995117188
1543.8834683732	1271.40002441406
1544.51025922034	1265.19995117188
1545.13696836544	1270
1545.76359581601	1266.59997558594
1546.39014157952	1263
1547.01660566345	1261
1547.64298807531	1261.19995117188
1548.26928882255	1258.80004882813
1548.89550791269	1271.40002441406
1549.52164535318	1267.40002441406
1550.14770115153	1265.59997558594
1550.77367531521	1263.80004882813
1551.39956785171	1270.59997558594
1552.0253787685	1262.19995117188
1552.65110807307	1273.80004882813
1553.2767557729	1275.40002441406
1553.90232187548	1266.40002441406
1554.52780638828	1272.19995117188
1555.15320931879	1263.80004882813
1555.77853067447	1266.59997558594
1556.40377046282	1261
1557.02892869132	1258.59997558594
1557.65400536744	1264.40002441406
1558.27900049866	1260.59997558594
1558.90391409247	1263.40002441406
1559.52874615633	1276.80004882813
1560.15349669773	1274
1560.77816572414	1277.59997558594
1561.40275324305	1277.80004882813
1562.02725926192	1276.40002441406
1562.65168378824	1277.19995117188
1563.27602682948	1269.59997558594
1563.90028839311	1274.80004882813
1564.52446848662	1271.19995117188
1565.14856711748	1263.59997558594
1565.77258429316	1270.40002441406
1566.39652002113	1271.80004882813
1567.02037430887	1275.19995117188
1567.64414716387	1271
1568.26783859357	1270.80004882813
1568.89144860547	1261.80004882813
1569.51497720703	1265.59997558594
1570.13842440573	1261
1570.76179020904	1260.59997558594
1571.38507462442	1258.19995117188
1572.00827765936	1262.59997558594
1572.63139932132	1261.40002441406
1573.25443961777	1257
1573.87739855618	1258.59997558594
1574.50027614402	1254.59997558594
1575.12307238877	1260.80004882813
1575.74578729789	1262
1576.36842087885	1275.80004882813
1576.99097313912	1267
1577.61344408616	1273.59997558594
1578.23583372745	1267.80004882813
1578.85814207046	1265.80004882813
1579.48036912264	1261.80004882813
1580.10251489147	1253.80004882813
1580.72457938441	1265.80004882813
1581.34656260893	1261
1581.9684645725	1248.40002441406
1582.59028528258	1256.59997558594
1583.21202474663	1263.40002441406
1583.83368297212	1264.19995117188
1584.45525996652	1263.40002441406
1585.07675573728	1247.80004882813
1585.69817029188	1249
1586.31950363778	1248.40002441406
1586.94075578243	1251.80004882813
1587.5619267333	1251.59997558594
1588.18301649786	1244.80004882813
1588.80402508357	1242.19995117188
1589.42495249788	1245.80004882813
1590.04579874826	1234.19995117188
1590.66656384217	1229.40002441406
1591.28724778707	1233.40002441406
1591.90785059042	1235.80004882813
1592.52837225968	1229.19995117188
1593.14881280232	1229.80004882813
1593.76917222578	1236.80004882813
1594.38945053753	1237.80004882813
1595.00964774502	1239.80004882813
1595.62976385573	1252
1596.24979887709	1254.59997558594
1596.86975281657	1254.80004882813
1597.48962568164	1247.19995117188
1598.10941747974	1241.59997558594
1598.72912821832	1245.80004882813
1599.34875790486	1242
1599.9683065468	1250.40002441406
1600.58777415159	1251.80004882813
1601.2071607267	1244.80004882813
1601.82646627958	1231.40002441406
1602.44569081769	1230.40002441406
1603.06483434846	1226
1603.68389687937	1223.40002441406
1604.30287841786	1221
1604.92177897139	1211
1605.54059854741	1205.40002441406
1606.15933715337	1204.80004882813
1606.77799479672	1212.80004882813
1607.39657148492	1217.19995117188
1608.01506722542	1211
1608.63348202566	1214
1609.2518158931	1216
1609.87006883519	1225.59997558594
1610.48824085939	1215.19995117188
1611.10633197312	1224.40002441406
1611.72434218386	1221.80004882813
1612.34227149904	1222.40002441406
1612.96011992612	1225.80004882813
1613.57788747254	1221
1614.19557414575	1216
1614.8131799532	1220.19995117188
1615.43070490234	1206.40002441406
1616.04814900061	1202.80004882813
1616.66551225545	1200.19995117188
1617.28279467433	1206.40002441406
1617.89999626467	1210.80004882813
1618.51711703393	1209.80004882813
1619.13415698955	1206.19995117188
1619.75111613898	1202.19995117188
1620.36799448966	1213.19995117188
1620.98479204903	1203.59997558594
1621.60150882455	1199.80004882813
1622.21814482364	1197.19995117188
1622.83470005376	1203
1623.45117452235	1205.40002441406
1624.06756823685	1197.59997558594
1624.6838812047	1198.19995117188
1625.30011343335	1191.19995117188
1625.91626493022	1203
1626.53233570278	1197.40002441406
1627.14832575845	1194
1627.76423510468	1209.19995117188
1628.38006374891	1211
1628.99581169857	1218
1629.61147896111	1207.40002441406
1630.22706554397	1213
1630.84257145457	1207.80004882813
1631.45799670038	1193.40002441406
1632.07334128881	1197.59997558594
1632.6886052273	1195.40002441406
1633.3037885233	1191.19995117188
1633.91889118425	1202.59997558594
1634.53391321757	1203.80004882813
1635.1488546307	1191.80004882813
1635.76371543108	1196.80004882813
1636.37849562616	1200.59997558594
1636.99319522335	1199.59997558594
1637.60781423009	1188.40002441406
1638.22235265383	1194.40002441406
1638.83681050198	1201.40002441406
1639.451187782	1202.40002441406
1640.0654845013	1208.19995117188
1640.67970066734	1215.40002441406
1641.29383628752	1193
1641.9078913693	1197.19995117188
1642.5218659201	1200.40002441406
1643.13575994735	1201.59997558594
1643.74957345849	1192
1644.36330646094	1203.19995117188
1644.97695896213	1208.80004882813
1645.59053096951	1200.40002441406
1646.20402249049	1197.19995117188
1646.8174335325	1199.19995117188
1647.43076410298	1202.40002441406
1648.04401420935	1216.19995117188
1648.65718385905	1224.59997558594
1649.2702730595	1231.40002441406
1649.88328181812	1229.80004882813
1650.49621014236	1230.40002441406
1651.10905803963	1235
1651.72182551735	1212.40002441406
1652.33451258297	1226.59997558594
1652.9471192439	1210.40002441406
1653.55964550757	1210.80004882813
1654.1720913814	1206.59997558594
1654.78445687283	1217.19995117188
1655.39674198926	1216.19995117188
1656.00894673814	1216.40002441406
1656.62107112688	1209.40002441406
1657.23311516291	1200.40002441406
1657.84507885365	1209.19995117188
1658.45696220652	1191
1659.06876522895	1189.80004882813
1659.68048792835	1193.59997558594
1660.29213031217	1185.40002441406
1660.90369238779	1182
1661.51517416267	1183.19995117188
1662.12657564421	1181
1662.73789683984	1176.19995117188
1663.34913775697	1175
1663.96029840303	1175.40002441406
1664.57137878544	1162.80004882813
1665.18237891161	1162.80004882813
1665.79329878897	1154.80004882813
1666.40413842493	1155.59997558594
1667.01489782691	1163
1667.62557700233	1166.40002441406
1668.2361759586	1168.59997558594
1668.84669470315	1166
1669.4571332434	1158
1670.06749158675	1150
1670.67776974062	1155
1671.28796771243	1154.80004882813
1671.8980855096	1151.59997558594
1672.50812313954	1156.59997558594
1673.11808060967	1152.19995117188
1673.72795792739	1149.40002441406
1674.33775510013	1161.40002441406
1674.9474721353	1158.80004882813
1675.55710904031	1158.59997558594
1676.16666582257	1158.59997558594
1676.7761424895	1158.19995117188
1677.38553904851	1149.80004882813
1677.99485550702	1150.80004882813
1678.60409187243	1153.19995117188
1679.21324815215	1141.59997558594
1679.8223243536	1147.59997558594
1680.43132048419	1138.59997558594
1681.04023655132	1134.19995117188
1681.64907256241	1142
1682.25782852487	1149
1682.86650444611	1148.40002441406
1683.47510033353	1148
1684.08361619455	1149.80004882813
1684.69205203657	1155.19995117188
1685.300407867	1149.80004882813
1685.90868369325	1158
1686.51687952272	1155.19995117188
1687.12499536283	1157.80004882813
1687.73303122098	1152
1688.34098710457	1143.19995117188
1688.94886302101	1142.59997558594
1689.55665897772	1146.40002441406
1690.16437498208	1149.80004882813
1690.77201104152	1146.80004882813
1691.37956716342	1150.80004882813
1691.9870433552	1151
1692.59443962426	1160.19995117188
1693.20175597801	1158.40002441406
1693.80899242384	1149.80004882813
1694.41614896916	1149.59997558594
1695.02322562138	1141.40002441406
1695.63022238789	1142
1696.23713927609	1141.19995117188
1696.8439762934	1135.80004882813
1697.4507334472	1138.59997558594
1698.05741074491	1147.80004882813
1698.66400819391	1131.59997558594
1699.27052580161	1128
1699.87696357542	1128.40002441406
1700.48332152272	1135.80004882813
1701.08959965092	1127.19995117188
1701.69579796742	1125
1702.30191647962	1122.40002441406
1702.90795519491	1129.80004882813
1703.51391412069	1114.40002441406
1704.11979326437	1113.19995117188
1704.72559263332	1119.59997558594
1705.33131223496	1116
1705.93695207668	1122.59997558594
1706.54251216588	1121.80004882813
1707.14799250994	1110.40002441406
1707.75339311628	1112.80004882813
1708.35871399227	1111.19995117188
1708.96395514532	1111.80004882813
1709.56911658282	1111.80004882813
