634.948122577771	1527.59997558594
635.690341530823	1530.19995117188
636.43246851086	1540.19995117188
637.174503525845	1557.40002441406
637.916446583745	1549.19995117188
638.658297692538	1556.40002441406
639.400056860179	1541.59997558594
640.141724094637	1542
640.883299403885	1544.40002441406
641.62478279588	1540.19995117188
642.366174278594	1546.59997558594
643.107473859989	1544.80004882813
643.848681548029	1547.19995117188
644.589797350679	1568.80004882813
645.330821275901	1569.59997558594
646.071753331665	1555.59997558594
646.812593525922	1545.80004882813
647.553341866646	1553
648.293998361798	1558.80004882813
649.03456301933	1548.19995117188
649.775035847216	1531.80004882813
650.515416853409	1552.19995117188
651.255706045874	1558.80004882813
651.995903432568	1551.40002441406
652.736009021453	1562.80004882813
653.476022820486	1559.40002441406
654.215944837629	1569.80004882813
654.955775080842	1560.40002441406
655.695513558081	1566.19995117188
656.435160277301	1581.59997558594
657.174715246465	1573.19995117188
657.914178473527	1582.59997558594
658.653549966449	1584.59997558594
659.392829733176	1571.59997558594
660.132017781678	1560
660.871114119901	1564.80004882813
661.610118755803	1549.80004882813
662.349031697343	1552.59997558594
663.087852952468	1565.80004882813
663.826582529139	1555.19995117188
664.565220435305	1553.19995117188
665.30376667892	1548.80004882813
666.04222126794	1544.80004882813
666.780584210316	1558
667.518855514	1566.40002441406
668.25703518694	1572
668.995123237096	1571.59997558594
669.733119672413	1578.19995117188
670.471024500842	1573.80004882813
671.208837730333	1587.59997558594
671.946559368839	1591.59997558594
672.684189424308	1579.40002441406
673.421727904689	1585
674.159174817929	1584.40002441406
674.896530171977	1584.80004882813
675.633793974786	1573.40002441406
676.370966234295	1587.80004882813
677.108046958461	1577.80004882813
677.845036155219	1582.40002441406
678.581933832528	1573.19995117188
679.318739998323	1585.59997558594
680.055454660558	1587.80004882813
680.792077827172	1597.80004882813
681.528609506116	1606.59997558594
682.265049705331	1599.80004882813
683.001398432759	1581.80004882813
683.737655696349	1575.19995117188
684.47382150404	1570.80004882813
685.20989586378	1579.59997558594
685.945878783503	1588.80004882813
686.68177027116	1573.19995117188
687.417570334688	1581.59997558594
688.153278982032	1593.40002441406
688.888896221129	1580.59997558594
689.624422059921	1586.19995117188
690.359856506349	1589
691.095199568354	1584.80004882813
691.830451253874	1596.19995117188
692.565611570844	1578.40002441406
693.300680527212	1589
694.03565813091	1599
694.770544389877	1623
695.505339312053	1612.40002441406
696.240042905372	1594
696.974655177772	1588
697.70917613719	1607.59997558594
698.443605791561	1608.59997558594
699.177944148826	1614.80004882813
699.912191216909	1622.80004882813
700.646347003755	1622.19995117188
701.380411517295	1604.80004882813
702.114384765465	1604
702.848266756195	1623.59997558594
703.582057497421	1625.19995117188
704.315756997074	1618.40002441406
705.049365263089	1615
705.782882303399	1612.80004882813
706.516308125936	1612.59997558594
707.249642738626	1611.59997558594
707.982886149403	1623.40002441406
708.716038366204	1605.80004882813
709.449099396949	1613.40002441406
710.182069249577	1619
710.914947932009	1587.59997558594
711.647735452181	1584
712.380431818022	1581.40002441406
713.113037037454	1583
713.845551118411	1601.40002441406
714.577974068818	1591.59997558594
715.310305896604	1602.19995117188
716.042546609694	1607.40002441406
716.774696216013	1609.59997558594
717.506754723493	1613.40002441406
718.238722140053	1623.59997558594
718.970598473624	1622.40002441406
719.702383732127	1605.59997558594
720.43407792349	1616
721.165681055634	1604.80004882813
721.897193136486	1605.40002441406
722.628614173966	1602.80004882813
723.359944175997	1609.59997558594
724.091183150505	1590.40002441406
724.822331105412	1592.59997558594
725.553388048638	1588.80004882813
726.284353988106	1578.80004882813
727.015228931734	1594.59997558594
727.746012887449	1608.40002441406
728.476705863162	1618
729.207307866803	1618.19995117188
729.937818906289	1642
730.668238989535	1633.40002441406
731.398568124459	1624.59997558594
732.128806318986	1628.40002441406
732.858953581034	1629.59997558594
733.589009918514	1608.19995117188
734.318975339348	1621.80004882813
735.048849851452	1610.80004882813
735.778633462744	1589.40002441406
736.508326181137	1600.40002441406
737.237928014549	1606.59997558594
737.967438970897	1601
738.696859058095	1600
739.426188284054	1588.19995117188
740.155426656692	1589.19995117188
740.884574183922	1594.80004882813
741.613630873659	1595
742.342596733815	1601.40002441406
743.071471772302	1605.19995117188
743.800255997034	1614.80004882813
744.528949415921	1602
745.257552036877	1614.80004882813
745.986063867811	1620.59997558594
746.714484916638	1621.19995117188
747.442815191261	1617.59997558594
748.171054699597	1611.19995117188
748.899203449554	1616
749.627261449039	1625.40002441406
750.355228705966	1637.80004882813
751.083105228239	1626.19995117188
751.810891023765	1637
752.538586100459	1624
753.266190466218	1624.80004882813
753.99370412896	1621.59997558594
754.721127096582	1627.19995117188
755.448459377	1613.40002441406
756.175700978114	1605
756.902851907828	1614
757.629912174055	1615.19995117188
758.356881784688	1609.80004882813
759.083760747639	1615.19995117188
759.810549070817	1619.80004882813
760.537246762113	1606.19995117188
761.263853829442	1620.80004882813
761.990370280698	1640.59997558594
762.716796123791	1633.40002441406
763.443131366618	1616.40002441406
764.169376017082	1634
764.895530083085	1635
765.621593572527	1640.80004882813
766.347566493312	1646.40002441406
767.073448853336	1646.40002441406
767.799240660502	1641.80004882813
768.524941922707	1657.80004882813
769.250552647854	1673.59997558594
769.976072843836	1668.80004882813
770.701502518551	1672.80004882813
771.426841679905	1697.59997558594
772.152090335793	1712.19995117188
772.877248494107	1700.19995117188
773.602316162747	1703.40002441406
774.327293349609	1707.19995117188
775.052180062592	1715.80004882813
775.776976309589	1709
776.501682098496	1712.40002441406
777.226297437206	1693.59997558594
777.950822333616	1708.40002441406
778.675256795621	1688.40002441406
779.399600831111	1696.19995117188
780.123854447983	1697.40002441406
780.84801765413	1673.19995117188
781.572090457441	1668.59997558594
782.296072865811	1665.59997558594
783.019964887131	1644.19995117188
783.743766529297	1658
784.467477800194	1650.59997558594
785.191098707719	1647.19995117188
785.914629259756	1644.19995117188
786.638069464194	1638.40002441406
787.361419328932	1635
788.084678861852	1625
788.807848070845	1618
789.530926963798	1601.19995117188
790.253915548602	1594.59997558594
790.976813833144	1605
791.699621825307	1600.19995117188
792.422339532986	1611
793.144966964061	1613
793.86750412642	1605
794.589951027946	1627.40002441406
795.312307676536	1625.80004882813
796.03457408006	1616.19995117188
796.756750246417	1628.40002441406
797.478836183477	1626.80004882813
798.200831899137	1616
798.92273740127	1611.59997558594
799.644552697769	1600.80004882813
800.36627779651	1615.40002441406
801.087912705374	1637.59997558594
801.809457432251	1640.59997558594
802.530911985017	1643.59997558594
803.252276371558	1628.59997558594
803.973550599748	1625
804.694734677472	1627.19995117188
805.415828612611	1634
806.136832413045	1632.40002441406
806.857746086646	1624
807.578569641305	1618
808.299303084892	1632.19995117188
809.019946425289	1642.59997558594
809.740499670372	1631.59997558594
810.460962828022	1640.40002441406
811.181335906114	1634.19995117188
811.901618912524	1630.19995117188
812.621811855131	1636.80004882813
813.341914741809	1616
814.061927580433	1631.19995117188
814.781850378881	1637.19995117188
815.501683145025	1631.19995117188
816.221425886743	1635.80004882813
816.941078611903	1609.59997558594
817.660641328387	1606
818.380114044065	1609
819.099496766808	1598.19995117188
819.818789504492	1596
820.53799226499	1594.80004882813
821.257105056168	1606
821.976127885904	1601.19995117188
822.695060762064	1615.19995117188
823.413903692525	1618
824.132656685151	1619
824.851319747817	1637
825.569892888388	1625.40002441406
826.288376114739	1644.40002441406
827.006769434737	1639.80004882813
827.725072856249	1632.80004882813
828.443286387142	1628.80004882813
829.161410035285	1622.40002441406
829.87944380855	1625.59997558594
830.597387714798	1620.19995117188
831.315241761898	1622.59997558594
832.033005957715	1636
832.750680310119	1632.19995117188
833.468264826969	1652.19995117188
834.18575951614	1647.40002441406
834.903164385486	1641.19995117188
835.620479442878	1636.40002441406
836.337704696181	1629.59997558594
837.054840153255	1632.59997558594
837.771885821962	1638.80004882813
838.488841710172	1610.80004882813
839.20570782574	1618.19995117188
839.922484176531	1603
840.639170770409	1610.59997558594
841.355767615231	1607.59997558594
842.072274718864	1609
842.788692089164	1608.19995117188
843.505019733993	1609
844.221257661209	1615.80004882813
844.937405878676	1625.19995117188
845.65346439425	1601
846.369433215789	1601.59997558594
847.085312351156	1594.59997558594
847.801101808205	1584.40002441406
848.516801594793	1591.40002441406
849.232411718781	1576.19995117188
849.947932188021	1591
850.663363010376	1592.19995117188
851.378704193698	1621.40002441406
852.093955745842	1617.59997558594
852.809117674669	1637.80004882813
853.524189988028	1618
854.239172693778	1621
854.954065799768	1610
855.668869313857	1622.80004882813
856.383583243899	1601.40002441406
857.098207597743	1596.40002441406
857.812742383246	1595.59997558594
858.527187608255	1599.80004882813
859.241543280628	1606.59997558594
859.955809408218	1585.59997558594
860.669985998868	1590.80004882813
861.384073060437	1603.40002441406
862.098070600772	1612
862.811978627724	1621.19995117188
863.52579714914	1644.19995117188
864.239526172873	1632.19995117188
864.953165706776	1627.19995117188
865.666715758687	1615.40002441406
866.380176336464	1618
867.093547447951	1610
867.806829100996	1602.80004882813
868.520021303444	1601.19995117188
869.233124063149	1596.19995117188
869.94613738795	1596.59997558594
870.659061285693	1593.19995117188
871.37189576423	1604.80004882813
872.084640831403	1608.19995117188
872.797296495057	1598.80004882813
873.509862763039	1621.80004882813
874.22233964319	1615.40002441406
874.934727143353	1601.80004882813
875.647025271374	1587.40002441406
876.359234035097	1594.40002441406
877.071353442361	1594
877.783383501015	1589.59997558594
878.495324218895	1603.80004882813
879.207175603844	1616.19995117188
879.918937663705	1614
880.630610406318	1626.59997558594
881.342193839524	1633.40002441406
882.053687971161	1627
882.765092809069	1614.19995117188
883.476408361091	1592.40002441406
884.187634635066	1598.59997558594
884.898771638828	1587.59997558594
885.609819380221	1569.40002441406
886.320777867076	1583.80004882813
887.031647107236	1593.80004882813
887.742427108536	1588.59997558594
888.453117878816	1603.40002441406
889.16371942591	1603.40002441406
889.874231757652	1611.40002441406
890.584654881883	1602.59997558594
891.294988806434	1599.80004882813
892.005233539141	1595.80004882813
892.715389087837	1599.40002441406
893.42545546036	1623.59997558594
894.135432664543	1613.59997558594
894.845320708216	1629.40002441406
895.555119599216	1639.59997558594
896.264829345375	1636.59997558594
896.974449954526	1638.19995117188
897.683981434496	1633.19995117188
898.393423793125	1641.19995117188
899.102777038235	1635.40002441406
899.812041177664	1631.80004882813
900.521216219239	1625.80004882813
901.230302170793	1629.80004882813
901.939299040155	1633.19995117188
902.64820683515	1648.40002441406
903.357025563612	1633.40002441406
904.065755233368	1608.19995117188
904.774395852247	1633.19995117188
905.482947428076	1624.80004882813
906.191409968682	1633.40002441406
906.899783481897	1627.80004882813
907.608067975538	1629.80004882813
908.316263457443	1640.40002441406
909.02436993543	1647.19995117188
909.732387417327	1609.59997558594
910.440315910959	1628.40002441406
911.148155424154	1626.80004882813
911.855905964731	1637
912.563567540521	1620.59997558594
913.271140159339	1618.59997558594
913.978623829017	1606
914.686018557374	1597.40002441406
915.393324352237	1615.40002441406
916.100541221421	1586.59997558594
916.807669172752	1590.19995117188
917.514708214054	1606
918.221658353142	1593.59997558594
918.928519597843	1603.80004882813
919.635291955976	1598.40002441406
920.341975435358	1595.40002441406
921.048570043813	1610.59997558594
921.75507578916	1624.19995117188
922.461492679212	1632
923.167820721795	1637.80004882813
923.874059924726	1622.40002441406
924.58021029582	1638.19995117188
925.286271842893	1630.40002441406
925.992244573769	1630.80004882813
926.698128496262	1632.80004882813
927.403923618184	1626.59997558594
928.109629947355	1616.19995117188
928.815247491593	1612.80004882813
929.520776258708	1608.40002441406
930.226216256519	1620.19995117188
930.931567492841	1621
931.636829975482	1626
932.342003712263	1625.80004882813
933.047088710995	1614
933.752084979491	1622.59997558594
934.456992525564	1600.80004882813
935.161811357024	1598.59997558594
935.866541481688	1585
936.571182907363	1566.19995117188
937.275735641861	1548.40002441406
937.980199692995	1553.19995117188
938.684575068572	1570.59997558594
939.388861776411	1572.40002441406
940.093059824311	1584.40002441406
940.797169220085	1586.80004882813
941.501189971544	1586.40002441406
942.205122086495	1578.19995117188
942.908965572751	1564.19995117188
943.612720438111	1574
944.316386690391	1569.59997558594
945.019964337391	1581.59997558594
945.723453386924	1606.40002441406
946.426853846795	1586
947.130165724808	1610.40002441406
947.83338902877	1586.59997558594
948.536523766488	1575.19995117188
949.239569945764	1560.19995117188
949.942527574402	1574
950.64539666021	1575.59997558594
951.348177210993	1567.40002441406
952.050869234548	1562.59997558594
952.753472738683	1556.40002441406
953.455987731199	1561.80004882813
954.158414219898	1568
954.860752212587	1576.80004882813
955.563001717061	1572.59997558594
956.265162741124	1563.19995117188
956.967235292576	1560.80004882813
957.669219379224	1570.19995117188
958.371115008857	1562.40002441406
959.072922189283	1554.59997558594
959.774640928301	1553
960.476271233708	1572.19995117188
961.177813113301	1568.19995117188
961.879266574882	1569.40002441406
962.580631626248	1582.80004882813
963.281908275194	1569.19995117188
963.98309652952	1575
964.684196397022	1562.40002441406
965.3852078855	1581
966.086131002745	1577.40002441406
966.786965756555	1592.59997558594
967.487712154726	1586.80004882813
968.188370205055	1596.19995117188
968.888939915331	1586.19995117188
969.589421293352	1596.80004882813
970.289814346909	1610
970.990119083801	1616.19995117188
971.690335511819	1616.19995117188
972.39046363875	1610.59997558594
973.090503472398	1607.80004882813
973.790455020545	1607
974.490318290987	1588
975.190093291516	1610
975.889780029923	1604
976.589378513998	1604.19995117188
977.288888751527	1607.59997558594
977.988310750308	1615.80004882813
978.687644518122	1590.40002441406
979.386890062767	1610.80004882813
980.086047392025	1594.40002441406
980.785116513689	1588.59997558594
981.484097435542	1591.59997558594
982.182990165377	1578.59997558594
982.88179471098	1588.59997558594
983.580511080137	1594.80004882813
984.279139280632	1592.40002441406
984.977679320253	1592.40002441406
985.67613120679	1581.19995117188
986.374494948027	1594.80004882813
987.072770551745	1590.80004882813
987.770958025731	1589.59997558594
988.469057377772	1590.40002441406
989.167068615649	1585.59997558594
989.864991747145	1575.19995117188
990.562826780047	1560.80004882813
991.260573722134	1568
991.958232581195	1574.40002441406
992.655803365003	1575.80004882813
993.353286081346	1575.80004882813
994.050680738006	1595
994.74798734276	1591.40002441406
995.44520590339	1589
996.142336427681	1598.19995117188
996.839378923407	1588.59997558594
997.536333398348	1588.59997558594
998.233199860289	1599.40002441406
998.929978317004	1572.80004882813
999.626668776274	1567.80004882813
1000.32327124587	1562
1001.01978573359	1554.59997558594
1001.71621224718	1550
1002.41255079445	1553.40002441406
1003.10880138315	1555.40002441406
1003.80496402107	1570.40002441406
1004.50103871599	1582.40002441406
1005.19702547567	1595.59997558594
1005.8929243079	1606.19995117188
1006.58873522045	1629.59997558594
1007.2844582211	1612.19995117188
1007.98009331761	1630.40002441406
1008.67564051776	1616.19995117188
1009.37109982933	1596.19995117188
1010.06647126009	1605.80004882813
1010.7617548178	1582.19995117188
1011.45695051026	1593.80004882813
1012.15205834522	1558.80004882813
1012.84707833045	1560.40002441406
1013.54201047373	1578.40002441406
1014.23685478284	1578.19995117188
1014.93161126553	1583.40002441406
1015.62627992959	1576.19995117188
1016.32086078277	1578
1017.01535383285	1584
1017.70975908761	1592
1018.40407655479	1601
1019.09830624219	1613.19995117188
1019.79244815755	1614.19995117188
1020.48650230866	1607.80004882813
1021.18046870328	1604.40002441406
1021.87434734917	1598
1022.56813825411	1590.19995117188
1023.26184142584	1607.19995117188
1023.95545687216	1601.40002441406
1024.64898460082	1585.40002441406
1025.34242461957	1590.59997558594
1026.0357769362	1582.40002441406
1026.72904155846	1595.59997558594
1027.42221849412	1582.40002441406
1028.11530775094	1586.59997558594
1028.80830933668	1580.59997558594
1029.50122325911	1582.40002441406
1030.19404952599	1574.19995117188
1030.88678814508	1586
1031.57943912414	1583
1032.27200247093	1566.80004882813
1032.96447819323	1570.19995117188
1033.65686629878	1560.40002441406
1034.34916679534	1567.19995117188
1035.04137969068	1576.80004882813
1035.73350499256	1576.19995117188
1036.42554270874	1562.40002441406
1037.11749284697	1559.19995117188
1037.80935541501	1556.19995117188
1038.50113042062	1561
1039.19281787156	1562.40002441406
1039.88441777559	1565.40002441406
1040.57593014046	1575.19995117188
1041.26735497393	1567.19995117188
1041.95869228376	1593
1042.6499420777	1574.19995117188
1043.3411043635	1567.40002441406
1044.03217914893	1561.80004882813
1044.72316644174	1571.40002441406
1045.41406624968	1570.40002441406
1046.1048785805	1575.40002441406
1046.79560344197	1581
1047.48624084182	1582.59997558594
1048.17679078783	1574
1048.86725328774	1552.19995117188
1049.55762834929	1571.40002441406
1050.24791598025	1567.59997558594
1050.93811618837	1559.40002441406
1051.62822898139	1565.80004882813
1052.31825436707	1558
1053.00819235315	1555.80004882813
1053.6980429474	1564.59997558594
1054.38780615755	1554
1055.07748199136	1564
1055.76707045658	1552.19995117188
1056.45657156095	1557.19995117188
1057.14598531222	1558.19995117188
1057.83531171814	1555.19995117188
1058.52455078646	1554.19995117188
1059.21370252494	1564
1059.90276694129	1571
1060.5917440433	1572.40002441406
1061.28063383868	1576.59997558594
1061.9694363352	1575.40002441406
1062.65815154059	1571.59997558594
1063.34677946261	1568.40002441406
1064.03532010899	1574.59997558594
1064.72377348748	1559.40002441406
1065.41213960583	1552
1066.10041847177	1559
1066.78861009306	1543.59997558594
1067.47671447743	1549.19995117188
1068.16473163263	1569.59997558594
1068.85266156639	1576.19995117188
1069.54050428647	1591
1070.2282598006	1585.59997558594
1070.91592811652	1577.40002441406
1071.60350924198	1562
1072.29100318471	1554.80004882813
1072.97840995245	1555
1073.66572955295	1551.59997558594
1074.35296199394	1559.19995117188
1075.04010728316	1560.40002441406
1075.72716542836	1579.59997558594
1076.41413643726	1572.80004882813
1077.10102031761	1567.19995117188
1077.78781707715	1549.80004882813
1078.4745267236	1556.80004882813
1079.16114926471	1566.19995117188
1079.84768470822	1564.59997558594
1080.53413306185	1570.80004882813
1081.22049433336	1585.40002441406
1081.90676853046	1585
1082.5929556609	1589.19995117188
1083.27905573241	1587.80004882813
1083.96506875272	1578.19995117188
1084.65099472957	1554.19995117188
1085.3368336707	1552
1086.02258558383	1547.19995117188
1086.70825047669	1539.19995117188
1087.39382835703	1540
1088.07931923257	1543.59997558594
1088.76472311104	1543.40002441406
1089.45004000018	1571.80004882813
1090.13526990771	1573.80004882813
1090.82041284137	1574.40002441406
1091.50546880889	1581.80004882813
1092.19043781799	1571.80004882813
1092.87531987642	1565.80004882813
1093.56011499188	1563.19995117188
1094.24482317212	1536.80004882813
1094.92944442486	1524.19995117188
1095.61397875783	1520.40002441406
1096.29842617876	1527.80004882813
1096.98278669537	1553.59997558594
1097.6670603154	1556.40002441406
1098.35124704656	1557.80004882813
1099.03534689659	1566.80004882813
1099.71935987322	1554.19995117188
1100.40328598416	1570
1101.08712523713	1567
1101.77087763988	1555.59997558594
1102.45454320012	1561
1103.13812192557	1561.80004882813
1103.82161382396	1560.80004882813
1104.50501890301	1558
1105.18833717045	1559.80004882813
1105.87156863399	1561.19995117188
1106.55471330137	1570.59997558594
1107.2377711803	1575.40002441406
1107.9207422785	1585.80004882813
1108.60362660369	1573.19995117188
1109.2864241636	1584
1109.96913496594	1585.19995117188
1110.65175901844	1566.59997558594
1111.33429632882	1558.80004882813
1112.01674690479	1555.59997558594
1112.69911075408	1549.59997558594
1113.38138788439	1549.40002441406
1114.06357830346	1540.80004882813
1114.745682019	1540.80004882813
1115.42769903872	1553.80004882813
1116.10962937035	1559
1116.7914730216	1564.19995117188
1117.47323000018	1578.80004882813
1118.15490031382	1574
1118.83648397022	1556.19995117188
1119.51798097712	1549.80004882813
1120.1993913422	1537.80004882813
1120.88071507321	1535.80004882813
1121.56195217784	1518.59997558594
1122.24310266381	1515.19995117188
1122.92416653884	1534
1123.60514381064	1546.40002441406
1124.28603448692	1545.59997558594
1124.9668385754	1556.19995117188
1125.64755608378	1570.59997558594
1126.32818701978	1578.19995117188
1127.00873139111	1576.80004882813
1127.68918920548	1581.80004882813
1128.3695604706	1577.80004882813
1129.04984519419	1573.80004882813
1129.73004338394	1557.59997558594
1130.41015504758	1551.59997558594
1131.09018019281	1548
1131.77011882734	1542.80004882813
1132.44997095888	1543.80004882813
1133.12973659514	1540
1133.80941574381	1555.19995117188
1134.48900841263	1561
1135.16851460927	1550.19995117188
1135.84793434147	1543
1136.52726761692	1537
1137.20651444333	1537
1137.8856748284	1533.40002441406
1138.56474877984	1527
1139.24373630536	1547.40002441406
1139.92263741265	1549.40002441406
1140.60145210943	1560.80004882813
1141.28018040339	1554.59997558594
1141.95882230225	1553
1142.6373778137	1547.59997558594
1143.31584694545	1559.19995117188
1143.99422970519	1554.40002441406
1144.67252610064	1571.40002441406
1145.35073613949	1548.80004882813
1146.02885982944	1539.19995117188
1146.7068971782	1541.19995117188
1147.38484819347	1525.59997558594
1148.06271288294	1536.19995117188
1148.74049125432	1549.59997558594
1149.41818331531	1555.59997558594
1150.0957890736	1552.40002441406
1150.77330853689	1559.59997558594
1151.45074171289	1553.59997558594
1152.12808860928	1536
1152.80534923378	1536.19995117188
1153.48252359407	1528
1154.15961169786	1509.80004882813
1154.83661355283	1515.19995117188
1155.51352916669	1515.80004882813
1156.19035854713	1523
1156.86710170185	1515.40002441406
1157.54375863855	1524.40002441406
1158.22032936491	1535.80004882813
1158.89681388863	1524.80004882813
1159.57321221741	1536
1160.24952435894	1539.80004882813
1160.92575032092	1528.59997558594
1161.60189011103	1545.19995117188
1162.27794373697	1535.59997558594
1162.95391120644	1533
1163.62979252712	1533.40002441406
1164.3055877067	1535.40002441406
1164.98129675288	1523.59997558594
1165.65691967336	1525.40002441406
1166.33245647581	1539.40002441406
1167.00790716792	1528.80004882813
1167.6832717574	1532.19995117188
1168.35855025193	1537.19995117188
1169.0337426592	1515.80004882813
1169.70884898689	1518.80004882813
1170.3838692427	1512.59997558594
1171.05880343431	1520.19995117188
1171.73365156941	1517.19995117188
1172.40841365569	1535.59997558594
1173.08308970083	1540
1173.75767971253	1541.40002441406
1174.43218369847	1534
1175.10660166633	1536.40002441406
1175.7809336238	1515
1176.45517957857	1519.40002441406
1177.12933953832	1513
1177.80341351073	1512.40002441406
1178.47740150349	1523.59997558594
1179.15130352429	1547.59997558594
1179.8251195808	1545.19995117188
1180.49884968071	1556
1181.1724938317	1551.40002441406
1181.84605204145	1545.40002441406
1182.51952431766	1549
1183.19291066799	1552.19995117188
1183.86621110013	1558.80004882813
1184.53942562176	1557.19995117188
1185.21255424057	1559
1185.88559696422	1557.80004882813
1186.55855380041	1558.80004882813
1187.2314247568	1555.40002441406
1187.90420984109	1541.59997558594
1188.57690906095	1561.40002441406
1189.24952242405	1572.40002441406
1189.92204993808	1562.19995117188
1190.59449161071	1568.59997558594
1191.26684744962	1561.80004882813
1191.93911746249	1562
1192.61130165699	1560.40002441406
1193.28340004081	1532
1193.95541262161	1545.40002441406
1194.62733940707	1536.80004882813
1195.29918040487	1540.40002441406
1195.97093562269	1539.59997558594
1196.64260506819	1544
1197.31418874905	1540.80004882813
1197.98568667295	1531.40002441406
1198.65709884755	1528.19995117188
1199.32842528053	1527.59997558594
1199.99966597957	1528.80004882813
1200.67082095234	1510
1201.3418902065	1518
1202.01287374974	1501.59997558594
1202.68377158971	1506.19995117188
1203.3545837341	1531.19995117188
1204.02531019057	1527.59997558594
1204.6959509668	1523.40002441406
1205.36650607045	1533.59997558594
1206.03697550919	1515
1206.70735929069	1532.19995117188
1207.37765742263	1528.80004882813
1208.04786991266	1560.19995117188
1208.71799676846	1542.19995117188
1209.38803799769	1530.40002441406
1210.05799360803	1523.40002441406
1210.72786360714	1523.80004882813
1211.39764800268	1530.19995117188
1212.06734680233	1530.19995117188
1212.73696001375	1526.19995117188
1213.4064876446	1529.59997558594
1214.07592970255	1528.59997558594
1214.74528619526	1523
1215.4145571304	1522.59997558594
1216.08374251564	1518.59997558594
1216.75284235863	1517.40002441406
1217.42185666704	1502.59997558594
1218.09078544854	1497.19995117188
1218.75962871078	1508.19995117188
1219.42838646143	1495.19995117188
1220.09705870816	1497.19995117188
1220.76564545861	1508.80004882813
1221.43414672046	1524.40002441406
1222.10256250136	1529.59997558594
1222.77089280898	1529.19995117188
1223.43913765098	1536.59997558594
1224.107297035	1525
1224.77537096873	1536.59997558594
1225.44335945981	1533
1226.1112625159	1540.59997558594
1226.77908014467	1526.40002441406
1227.44681235376	1535
1228.11445915085	1528.19995117188
1228.78202054357	1520.59997558594
1229.44949653961	1530
1230.11688714659	1511.19995117188
1230.7841923722	1508
1231.45141222407	1507.80004882813
1232.11854670988	1508
1232.78559583726	1517.80004882813
1233.45255961388	1513.40002441406
1234.1194380474	1517.19995117188
1234.78623114546	1514.80004882813
1235.45293891572	1509.59997558594
1236.11956136583	1521.59997558594
1236.78609850345	1517.19995117188
1237.45255033623	1498.80004882813
1238.11891687182	1500.40002441406
1238.78519811788	1508.40002441406
1239.45139408205	1482.19995117188
1240.11750477198	1501.80004882813
1240.78353019534	1508
1241.44947035976	1490.19995117188
1242.11532527291	1502
1242.78109494242	1488
1243.44677937595	1501.80004882813
1244.11237858115	1503.19995117188
1244.77789256567	1496
1245.44332133715	1494.80004882813
1246.10866490325	1507
1246.7739232716	1497.80004882813
1247.43909644987	1500.59997558594
1248.10418444569	1498
1248.76918726671	1504.59997558594
1249.43410492059	1506.59997558594
1250.09893741496	1494.19995117188
1250.76368475747	1490.19995117188
1251.42834695576	1495.19995117188
1252.09292401749	1498.59997558594
1252.75741595029	1490.59997558594
1253.42182276182	1504
1254.08614445971	1491.80004882813
1254.75038105161	1503.40002441406
1255.41453254515	1494.80004882813
1256.07859894799	1488.80004882813
1256.74258026777	1492.59997558594
1257.40647651213	1496.80004882813
1258.0702876887	1488.40002441406
1258.73401380514	1501.80004882813
1259.39765486908	1499.59997558594
1260.06121088817	1509.40002441406
1260.72468187004	1505.19995117188
1261.38806782233	1494.19995117188
1262.05136875269	1500.80004882813
1262.71458466875	1489.80004882813
1263.37771557815	1486.80004882813
1264.04076148854	1489.80004882813
1264.70372240753	1499.19995117188
1265.3665983428	1490.80004882813
1266.02938930195	1496.40002441406
1266.69209529263	1498.59997558594
1267.35471632249	1493
1268.01725239914	1503.40002441406
1268.67970353024	1480.40002441406
1269.34206972342	1472.40002441406
1270.00435098631	1479.19995117188
1270.66654732655	1458
1271.32865875177	1466.40002441406
1271.9906852696	1488.80004882813
1272.65262688768	1490.80004882813
1273.31448361365	1500.40002441406
1273.97625545514	1510.19995117188
1274.63794241978	1503.59997558594
1275.2995445152	1497.40002441406
1275.96106174903	1493.59997558594
1276.62249412892	1494
1277.28384166248	1509
1277.94510435735	1512.40002441406
1278.60628222116	1502.80004882813
1279.26737526155	1496.59997558594
1279.92838348613	1488.19995117188
1280.58930690255	1480.19995117188
1281.25014551842	1477.59997558594
1281.91089934139	1487.59997558594
1282.57156837907	1486.40002441406
1283.2321526391	1504.19995117188
1283.89265212911	1489.40002441406
1284.55306685671	1489
1285.21339682955	1474.19995117188
1285.87364205525	1467
1286.53380254142	1465
1287.19387829571	1458.40002441406
1287.85386932573	1471.80004882813
1288.51377563911	1481.80004882813
1289.17359724348	1487.80004882813
1289.83333414646	1487
1290.49298635567	1488.40002441406
1291.15255387874	1487.59997558594
1291.8120367233	1485.80004882813
1292.47143489696	1481.80004882813
1293.13074840736	1472.80004882813
1293.7899772621	1487.40002441406
1294.44912146882	1484.19995117188
1295.10818103513	1505.40002441406
1295.76715596866	1492.80004882813
1296.42604627704	1475
1297.08485196787	1476.40002441406
1297.74357304878	1480.80004882813
1298.4022095274	1495.80004882813
1299.06076141134	1501
1299.71922870821	1492
1300.37761142565	1500.19995117188
1301.03590957126	1498.19995117188
1301.69412315268	1496.19995117188
1302.3522521775	1493.80004882813
1303.01029665336	1487.19995117188
1303.66825658787	1497
1304.32613198865	1486
1304.98392286332	1499.59997558594
1305.64162921948	1510.40002441406
1306.29925106476	1510.59997558594
1306.95678840677	1520.19995117188
1307.61424125312	1523.59997558594
1308.27160961145	1511.59997558594
1308.92889348934	1497
1309.58609289443	1497.19995117188
1310.24320783432	1485
1310.90023831664	1489.59997558594
1311.55718434898	1481.59997558594
1312.21404593897	1490.19995117188
1312.87082309421	1481.40002441406
1313.52751582233	1484
1314.18412413092	1501.59997558594
1314.84064802761	1495.59997558594
1315.49708752	1490.40002441406
1316.1534426157	1499.19995117188
1316.80971332233	1504.19995117188
1317.46589964749	1528.59997558594
1318.1220015988	1522.40002441406
1318.77801918386	1521.19995117188
1319.43395241028	1509
1320.08980128567	1510
1320.74556581764	1494.59997558594
1321.4012460138	1515.40002441406
1322.05684188176	1508.80004882813
1322.71235342911	1494.19995117188
1323.36778066347	1483.59997558594
1324.02312359245	1500.19995117188
1324.67838222365	1497
1325.33355656468	1495.59997558594
1325.98864662314	1491.19995117188
1326.64365240663	1498.40002441406
1327.29857392277	1500.19995117188
1327.95341117915	1497.40002441406
1328.60816418339	1491.80004882813
1329.26283294308	1488.19995117188
1329.91741746582	1487
1330.57191775923	1476.19995117188
1331.2263338309	1465.59997558594
1331.88066568843	1459.59997558594
1332.53491333943	1462.19995117188
1333.1890767915	1456
1333.84315605224	1457.40002441406
1334.49715112925	1473.59997558594
1335.15106203013	1472.19995117188
1335.80488876249	1465.80004882813
1336.45863133391	1481.19995117188
1337.112289752	1473.19995117188
1337.76586402437	1462.80004882813
1338.4193541586	1479
1339.0727601623	1476
1339.72608204306	1491.40002441406
1340.37931980849	1479.59997558594
1341.03247346617	1477.59997558594
1341.68554302372	1481
1342.33852848871	1484.59997558594
1342.99142986876	1471.59997558594
1343.64424717145	1482.19995117188
1344.29698040438	1493.80004882813
1344.94962957515	1494.19995117188
1345.60219469135	1509
1346.25467576058	1496.40002441406
1346.90707279042	1503.80004882813
1347.55938578848	1503.19995117188
1348.21161476235	1479.19995117188
1348.86375971962	1490.40002441406
1349.51582066787	1493
1350.16779761472	1500
1350.81969056774	1500
1351.47149953453	1502.80004882813
1352.12322452269	1507.40002441406
1352.77486553979	1514.19995117188
1353.42642259344	1511.19995117188
1354.07789569122	1505.59997558594
1354.72928484072	1510.80004882813
1355.38059004953	1522.19995117188
1356.03181132525	1521.19995117188
1356.68294867545	1527.40002441406
1357.33400210773	1527.59997558594
1357.98497162968	1521.40002441406
1358.63585724889	1497.59997558594
1359.28665897294	1520.40002441406
1359.93737680942	1524.59997558594
1360.58801076591	1527
1361.23856085001	1539
1361.88902706929	1546
1362.53940943135	1552.19995117188
1363.18970794377	1568.80004882813
1363.83992261413	1569
1364.49005345003	1579.40002441406
1365.14010045904	1568
1365.79006364874	1551.40002441406
1366.43994302673	1566.40002441406
1367.08973860058	1545.59997558594
1367.73945037788	1547.40002441406
1368.38907836621	1536
1369.03862257315	1525.59997558594
1369.68808300629	1525.59997558594
1370.3374596732	1522
1370.98675258148	1522.59997558594
1371.63596173868	1510.40002441406
1372.28508715241	1498
1372.93412883024	1493.80004882813
1373.58308677974	1490
1374.2319610085	1464.59997558594
1374.8807515241	1462.40002441406
1375.52945833412	1459.40002441406
1376.17808144612	1465
1376.82662086771	1459.19995117188
1377.47507660644	1472.19995117188
1378.12344866989	1468.19995117188
1378.77173706565	1453.19995117188
1379.41994180129	1457.59997558594
1380.06806288439	1462.19995117188
1380.71610032252	1465
1381.36405412326	1469
1382.01192429419	1476.80004882813
1382.65971084287	1487.19995117188
1383.30741377688	1477.40002441406
1383.95503310381	1477.19995117188
1384.60256883121	1470.59997558594
1385.25002096667	1476
1385.89738951775	1471.59997558594
1386.54467449204	1464
1387.19187589709	1450
1387.8389937405	1443.40002441406
1388.48602802982	1441.80004882813
1389.13297877262	1437.59997558594
1389.77984597649	1456.80004882813
1390.42662964899	1467.59997558594
1391.07332979768	1454.59997558594
1391.71994643015	1454
1392.36647955395	1461.40002441406
1393.01292917667	1455
1393.65929530586	1475
1394.3055779491	1470
1394.95177711395	1461
1395.59789280799	1460.80004882813
1396.24392503877	1449.19995117188
1396.88987381387	1454
1397.53573914086	1445.19995117188
1398.1815210273	1432
1398.82721948075	1427
1399.47283450878	1440
1400.11836611897	1445
1400.76381431886	1444.80004882813
1401.40917911603	1423.80004882813
1402.05446051805	1425.19995117188
1402.69965853247	1420
1403.34477316686	1417
1403.98980442878	1420
1404.6347523258	1434.40002441406
1405.27961686548	1422.59997558594
1405.92439805538	1440.19995117188
1406.56909590306	1443
1407.21371041608	1447.80004882813
1407.85824160202	1430.40002441406
1408.50268946841	1436
1409.14705402284	1433.19995117188
1409.79133527285	1434.19995117188
1410.43553322601	1440.80004882813
1411.07964788987	1447.80004882813
1411.723679272	1448
1412.36762737996	1453.40002441406
1413.01149222129	1453.19995117188
1413.65527380357	1440.40002441406
1414.29897213435	1441.19995117188
1414.94258722118	1424.19995117188
1415.58611907163	1438.19995117188
1416.22956769325	1429.80004882813
1416.87293309359	1425
1417.51621528021	1428.40002441406
1418.15941426067	1434
1418.80253004253	1435.80004882813
1419.44556263333	1430.80004882813
1420.08851204063	1449.40002441406
1420.731378272	1433.59997558594
1421.37416133497	1450
1422.0168612371	1455
1422.65947798596	1456.19995117188
1423.30201158908	1459.59997558594
1423.94446205403	1452.59997558594
1424.58682938835	1439.19995117188
1425.2291135996	1443
1425.87131469532	1451.19995117188
1426.51343268308	1440.40002441406
1427.15546757042	1429.80004882813
1427.79741936488	1444.19995117188
1428.43928807403	1426.59997558594
1429.0810737054	1426.80004882813
1429.72277626656	1439.19995117188
1430.36439576504	1439.40002441406
1431.00593220841	1422
1431.64738560419	1425
1432.28875595995	1430.40002441406
1432.93004328324	1416.80004882813
1433.57124758159	1412.59997558594
1434.21236886255	1422
1434.85340713368	1421
1435.49436240252	1421.40002441406
1436.13523467661	1427.40002441406
1436.77602396349	1425
1437.41673027073	1436
1438.05735360585	1439.40002441406
1438.69789397641	1431.59997558594
1439.33835138994	1437.59997558594
1439.978725854	1438.80004882813
1440.61901737612	1431.59997558594
1441.25922596385	1431.59997558594
1441.89935162473	1422
1442.53939436631	1428.80004882813
1443.17935419612	1423.59997558594
1443.81923112171	1408.19995117188
1444.45902515061	1409.40002441406
1445.09873629038	1408
1445.73836454854	1405.59997558594
1446.37790993265	1420.59997558594
1447.01737245024	1418.19995117188
1447.65675210885	1422.80004882813
1448.29604891602	1422.40002441406
1448.93526287928	1409.59997558594
1449.57439400618	1403.80004882813
1450.21344230426	1418
1450.85240778105	1428.40002441406
1451.49129044409	1418
1452.13009030092	1421.19995117188
1452.76880735907	1444.40002441406
1453.40744162608	1431.40002441406
1454.04599310949	1444.59997558594
1454.68446181683	1439.59997558594
1455.32284775564	1429.80004882813
1455.96115093345	1425
1456.5993713578	1416.80004882813
1457.23750903623	1398.59997558594
1457.87556397626	1392.80004882813
1458.51353618543	1406.59997558594
1459.15142567127	1387.40002441406
1459.78923244132	1386.40002441406
1460.42695650311	1403
1461.06459786417	1393.80004882813
1461.70215653203	1399.59997558594
1462.33963251423	1394.80004882813
1462.97702581829	1403.40002441406
1463.61433645175	1416.80004882813
1464.25156442214	1418.40002441406
1464.88870973699	1400.19995117188
1465.52577240382	1419.19995117188
1466.16275243017	1405.59997558594
1466.79964982356	1417.19995117188
1467.43646459154	1418.80004882813
1468.07319674161	1411.40002441406
1468.70984628132	1420.80004882813
1469.34641321818	1427.59997558594
1469.98289755974	1416.40002441406
1470.6192993135	1414.59997558594
1471.25561848701	1413.19995117188
1471.89185508779	1412
1472.52800912336	1412.19995117188
1473.16408060124	1411.59997558594
1473.80006952897	1410
1474.43597591407	1410.19995117188
1475.07179976406	1405.19995117188
1475.70754108647	1406
1476.34319988883	1427.40002441406
1476.97877617865	1431.40002441406
1477.61426996345	1425.19995117188
1478.24968125077	1427.19995117188
1478.88501004812	1440.59997558594
1479.52025636303	1441.59997558594
1480.15542020302	1435.40002441406
1480.79050157561	1428.40002441406
1481.42550048832	1418.19995117188
1482.06041694867	1432.59997558594
1482.69525096418	1419.40002441406
1483.33000254237	1420.59997558594
1483.96467169077	1421.19995117188
1484.59925841689	1417
1485.23376272825	1415
1485.86818463237	1420
1486.50252413677	1421
1487.13678124896	1413
1487.77095597646	1419.19995117188
1488.4050483268	1399.19995117188
1489.03905830749	1400.80004882813
1489.67298592604	1396.80004882813
1490.30683118996	1410.19995117188
1490.9405941068	1411.80004882813
1491.57427468403	1413.40002441406
1492.2078729292	1419.80004882813
1492.84138884981	1421.40002441406
1493.47482245338	1427.80004882813
1494.10817374742	1427.80004882813
1494.74144273944	1422.40002441406
1495.37462943696	1418.19995117188
1496.0077338475	1431
1496.64075597856	1428.19995117188
1497.27369583765	1422
1497.9065534323	1405.80004882813
1498.53932877001	1395.40002441406
1499.17202185829	1390
1499.80463270465	1385
1500.43716131661	1396.80004882813
1501.06960770167	1391
1501.70197186735	1391.40002441406
1502.33425382116	1392
1502.96645357059	1392.40002441406
1503.59857112317	1404.19995117188
1504.23060648641	1400
1504.8625596678	1417.40002441406
1505.49443067486	1423.80004882813
1506.1262195151	1421
1506.75792619602	1419.19995117188
1507.38955072513	1425.19995117188
1508.02109310993	1433.80004882813
1508.65255335794	1437.80004882813
1509.28393147666	1421.19995117188
1509.91522747359	1423.19995117188
1510.54644135624	1421.19995117188
1511.17757313212	1434.80004882813
1511.80862280872	1438.19995117188
1512.43959039356	1434.19995117188
1513.07047589413	1422.40002441406
1513.70127931795	1429.80004882813
1514.33200067251	1423.59997558594
1514.96263996531	1406.80004882813
1515.59319720386	1407.80004882813
1516.22367239567	1400.19995117188
1516.85406554822	1398.80004882813
1517.48437666903	1400.19995117188
1518.1146057656	1408.40002441406
1518.74475284542	1406.80004882813
1519.374817916	1404.40002441406
1520.00480098483	1401.59997558594
1520.63470205942	1407.19995117188
1521.26452114726	1389.40002441406
1521.89425825586	1397
1522.52391339271	1388.40002441406
1523.15348656531	1391.80004882813
1523.78297778116	1392.40002441406
1524.41238704775	1394.80004882813
1525.04171437259	1387
1525.67095976317	1391.40002441406
1526.30012322699	1383
1526.92920477154	1379.19995117188
1527.55820440432	1377
1528.18712213283	1372.80004882813
1528.81595796455	1362.80004882813
1529.44471190699	1354.40002441406
1530.07338396764	1358.80004882813
1530.70197415399	1354.40002441406
1531.33048247353	1358.80004882813
1531.95890893377	1359.80004882813
1532.58725354219	1375.40002441406
1533.21551630629	1384.19995117188
1533.84369723356	1382.19995117188
1534.47179633148	1398.59997558594
1535.09981360757	1401.40002441406
1535.72774906929	1411.59997558594
1536.35560272415	1404.19995117188
1536.98337457963	1402.40002441406
1537.61106464323	1402.59997558594
1538.23867292243	1393.19995117188
1538.86619942473	1393
1539.49364415762	1395.19995117188
1540.12100712857	1394
1540.74828834509	1397
1541.37548781466	1396.19995117188
1542.00260554478	1389
1542.62964154291	1392
1543.25659581655	1380.19995117188
1543.8834683732	1386.59997558594
1544.51025922034	1384.19995117188
1545.13696836544	1378.80004882813
1545.76359581601	1389
1546.39014157952	1377.80004882813
1547.01660566345	1372.80004882813
1547.64298807531	1374.40002441406
1548.26928882255	1354.19995117188
1548.89550791269	1369.19995117188
1549.52164535318	1377
1550.14770115153	1377
1550.77367531521	1374.40002441406
1551.39956785171	1392.59997558594
1552.0253787685	1379.59997558594
1552.65110807307	1391.80004882813
1553.2767557729	1386.80004882813
1553.90232187548	1386
1554.52780638828	1384
1555.15320931879	1376.40002441406
1555.77853067447	1380.40002441406
1556.40377046282	1377.19995117188
1557.02892869132	1373.80004882813
1557.65400536744	1372.59997558594
1558.27900049866	1378.59997558594
1558.90391409247	1376.80004882813
1559.52874615633	1384.40002441406
1560.15349669773	1396
1560.77816572414	1394.59997558594
1561.40275324305	1383.59997558594
1562.02725926192	1397.19995117188
1562.65168378824	1390
1563.27602682948	1394.40002441406
1563.90028839311	1385.80004882813
1564.52446848662	1380.40002441406
1565.14856711748	1394.59997558594
1565.77258429316	1390.80004882813
1566.39652002113	1384.19995117188
1567.02037430887	1395.59997558594
1567.64414716387	1383
1568.26783859357	1383.80004882813
1568.89144860547	1394.59997558594
1569.51497720703	1394.80004882813
1570.13842440573	1380.19995117188
1570.76179020904	1388.59997558594
1571.38507462442	1384.40002441406
1572.00827765936	1370.40002441406
1572.63139932132	1373.59997558594
1573.25443961777	1375.80004882813
1573.87739855618	1378
1574.50027614402	1371.80004882813
1575.12307238877	1381.40002441406
1575.74578729789	1372.40002441406
1576.36842087885	1385.40002441406
1576.99097313912	1393
1577.61344408616	1392
1578.23583372745	1393
1578.85814207046	1385.80004882813
1579.48036912264	1368
1580.10251489147	1370
1580.72457938441	1371.19995117188
1581.34656260893	1366.40002441406
1581.9684645725	1372.19995117188
1582.59028528258	1370.59997558594
1583.21202474663	1381.40002441406
1583.83368297212	1375
1584.45525996652	1380.80004882813
1585.07675573728	1362.40002441406
1585.69817029188	1359.80004882813
1586.31950363778	1357.80004882813
1586.94075578243	1357
1587.5619267333	1358.19995117188
1588.18301649786	1354
1588.80402508357	1346
1589.42495249788	1342
1590.04579874826	1333.19995117188
1590.66656384217	1341
1591.28724778707	1335
1591.90785059042	1324.59997558594
1592.52837225968	1345.40002441406
1593.14881280232	1328.19995117188
1593.76917222578	1341.59997558594
1594.38945053753	1333.40002441406
1595.00964774502	1343.59997558594
1595.62976385573	1344.59997558594
1596.24979887709	1351.40002441406
1596.86975281657	1344.59997558594
1597.48962568164	1347.19995117188
1598.10941747974	1347.19995117188
1598.72912821832	1352.19995117188
1599.34875790486	1352.40002441406
1599.9683065468	1355.40002441406
1600.58777415159	1361.19995117188
1601.2071607267	1339.40002441406
1601.82646627958	1332
1602.44569081769	1316.40002441406
1603.06483434846	1325.40002441406
1603.68389687937	1324.80004882813
1604.30287841786	1308.59997558594
1604.92177897139	1304.59997558594
1605.54059854741	1301.80004882813
1606.15933715337	1297.80004882813
1606.77799479672	1304.59997558594
1607.39657148492	1310
1608.01506722542	1312.59997558594
1608.63348202566	1321.80004882813
1609.2518158931	1320.59997558594
1609.87006883519	1317
1610.48824085939	1315.80004882813
1611.10633197312	1328.19995117188
1611.72434218386	1317.40002441406
1612.34227149904	1319.59997558594
1612.96011992612	1326
1613.57788747254	1321.19995117188
1614.19557414575	1310.80004882813
1614.8131799532	1310.59997558594
1615.43070490234	1313
1616.04814900061	1295.40002441406
1616.66551225545	1304.59997558594
1617.28279467433	1302.19995117188
1617.89999626467	1308.80004882813
1618.51711703393	1316.40002441406
1619.13415698955	1304.19995117188
1619.75111613898	1316.59997558594
1620.36799448966	1315
1620.98479204903	1309.19995117188
1621.60150882455	1296.80004882813
1622.21814482364	1300.59997558594
1622.83470005376	1294.40002441406
1623.45117452235	1301.80004882813
1624.06756823685	1312
1624.6838812047	1304.19995117188
1625.30011343335	1290.59997558594
1625.91626493022	1302.80004882813
1626.53233570278	1301
1627.14832575845	1308.80004882813
1627.76423510468	1308.40002441406
1628.38006374891	1314.59997558594
1628.99581169857	1319.40002441406
1629.61147896111	1311.80004882813
1630.22706554397	1314.80004882813
1630.84257145457	1312
1631.45799670038	1304
1632.07334128881	1292.19995117188
1632.6886052273	1296
1633.3037885233	1284.40002441406
1633.91889118425	1287
1634.53391321757	1296
1635.1488546307	1286.19995117188
1635.76371543108	1286.19995117188
1636.37849562616	1293.40002441406
1636.99319522335	1286.40002441406
1637.60781423009	1292.19995117188
1638.22235265383	1296.40002441406
1638.83681050198	1296.59997558594
1639.451187782	1295.40002441406
1640.0654845013	1297.40002441406
1640.67970066734	1295.40002441406
1641.29383628752	1292.80004882813
1641.9078913693	1290.80004882813
1642.5218659201	1289.80004882813
1643.13575994735	1291.40002441406
1643.74957345849	1295
1644.36330646094	1293
1644.97695896213	1296.59997558594
1645.59053096951	1294
1646.20402249049	1296.80004882813
1646.8174335325	1306.19995117188
1647.43076410298	1318.59997558594
1648.04401420935	1323
1648.65718385905	1341.40002441406
1649.2702730595	1342.40002441406
1649.88328181812	1348.19995117188
1650.49621014236	1347.40002441406
1651.10905803963	1354.59997558594
1651.72182551735	1345.59997558594
1652.33451258297	1339.80004882813
1652.9471192439	1334.80004882813
1653.55964550757	1326.19995117188
1654.1720913814	1325.19995117188
1654.78445687283	1322
1655.39674198926	1320.59997558594
1656.00894673814	1315.80004882813
1656.62107112688	1315.40002441406
1657.23311516291	1312.80004882813
1657.84507885365	1307.59997558594
1658.45696220652	1295.59997558594
1659.06876522895	1285.19995117188
1659.68048792835	1279.80004882813
1660.29213031217	1275.80004882813
1660.90369238779	1279.19995117188
1661.51517416267	1280.19995117188
1662.12657564421	1278.59997558594
1662.73789683984	1286.19995117188
1663.34913775697	1271.80004882813
1663.96029840303	1266.80004882813
1664.57137878544	1251.40002441406
1665.18237891161	1247.40002441406
1665.79329878897	1253.19995117188
1666.40413842493	1253.40002441406
1667.01489782691	1235.40002441406
1667.62557700233	1248.19995117188
1668.2361759586	1254.59997558594
1668.84669470315	1247.80004882813
1669.4571332434	1232
1670.06749158675	1236
1670.67776974062	1235.59997558594
1671.28796771243	1228.80004882813
1671.8980855096	1237.59997558594
1672.50812313954	1232
1673.11808060967	1240
1673.72795792739	1240
1674.33775510013	1240
1674.9474721353	1247.40002441406
1675.55710904031	1247.19995117188
1676.16666582257	1234.80004882813
1676.7761424895	1240.19995117188
1677.38553904851	1232.40002441406
1677.99485550702	1235
1678.60409187243	1235.19995117188
1679.21324815215	1227.40002441406
1679.8223243536	1226.19995117188
1680.43132048419	1221.19995117188
1681.04023655132	1231
1681.64907256241	1237.19995117188
1682.25782852487	1226.59997558594
1682.86650444611	1223.80004882813
1683.47510033353	1222.59997558594
1684.08361619455	1235.19995117188
1684.69205203657	1232
1685.300407867	1235.59997558594
1685.90868369325	1232.59997558594
1686.51687952272	1232.40002441406
1687.12499536283	1226.19995117188
1687.73303122098	1225
1688.34098710457	1225
1688.94886302101	1234
1689.55665897772	1226.19995117188
1690.16437498208	1229.19995117188
1690.77201104152	1236.40002441406
1691.37956716342	1235.40002441406
1691.9870433552	1237.59997558594
1692.59443962426	1231.19995117188
1693.20175597801	1235.80004882813
1693.80899242384	1235
1694.41614896916	1221.80004882813
1695.02322562138	1215
1695.63022238789	1220.80004882813
1696.23713927609	1221.19995117188
1696.8439762934	1227.59997558594
1697.4507334472	1217.59997558594
1698.05741074491	1223
1698.66400819391	1218.40002441406
1699.27052580161	1220.19995117188
1699.87696357542	1212.59997558594
1700.48332152272	1205.19995117188
1701.08959965092	1202.40002441406
1701.69579796742	1196.40002441406
1702.30191647962	1200.40002441406
1702.90795519491	1194.40002441406
1703.51391412069	1202
1704.11979326437	1204.40002441406
1704.72559263332	1193
1705.33131223496	1193.80004882813
1705.93695207668	1201.19995117188
1706.54251216588	1196.40002441406
1707.14799250994	1190.19995117188
1707.75339311628	1188
1708.35871399227	1186
1708.96395514532	1181.80004882813
1709.56911658282	1184
