634.948122577771	992.599975585938
635.690341530823	993.599975585938
636.43246851086	992.799987792969
637.174503525845	1000.79998779297
637.916446583745	997.799987792969
638.658297692538	998.799987792969
639.400056860179	1001.59997558594
640.141724094637	1000.20001220703
640.883299403885	1000.59997558594
641.62478279588	1003.59997558594
642.366174278594	1001.40002441406
643.107473859989	1000
643.848681548029	994
644.589797350679	1002.79998779297
645.330821275901	1008
646.071753331665	1001.59997558594
646.812593525922	1000
647.553341866646	993.599975585938
648.293998361798	994.799987792969
649.03456301933	997.799987792969
649.775035847216	997.400024414063
650.515416853409	1003.40002441406
651.255706045874	999.200012207031
651.995903432568	1003.20001220703
652.736009021453	997.200012207031
653.476022820486	1001.59997558594
654.215944837629	1003.59997558594
654.955775080842	1004
655.695513558081	1004.20001220703
656.435160277301	997.799987792969
657.174715246465	1004.20001220703
657.914178473527	1004.40002441406
658.653549966449	1003.59997558594
659.392829733176	999
660.132017781678	999.200012207031
660.871114119901	1006.40002441406
661.610118755803	1001.59997558594
662.349031697343	1005.59997558594
663.087852952468	1004.59997558594
663.826582529139	1004.40002441406
664.565220435305	1003.40002441406
665.30376667892	1005.20001220703
666.04222126794	999.799987792969
666.780584210316	1005.20001220703
667.518855514	1002
668.25703518694	1004.40002441406
668.995123237096	1003.59997558594
669.733119672413	1005.20001220703
670.471024500842	1003
671.208837730333	1000.20001220703
671.946559368839	1008.20001220703
672.684189424308	1005
673.421727904689	994.799987792969
674.159174817929	999.400024414063
674.896530171977	997.400024414063
675.633793974786	997.599975585938
676.370966234295	1001.59997558594
677.108046958461	1006
677.845036155219	1002.59997558594
678.581933832528	1005.59997558594
679.318739998323	1008
680.055454660558	1011.40002441406
680.792077827172	1008.20001220703
681.528609506116	1014
682.265049705331	1005.40002441406
683.001398432759	1002
683.737655696349	1006
684.47382150404	1000
685.20989586378	1004.59997558594
685.945878783503	999
686.68177027116	998
687.417570334688	996
688.153278982032	1007.59997558594
688.888896221129	999.599975585938
689.624422059921	1002
690.359856506349	999.200012207031
691.095199568354	1002
691.830451253874	1001
692.565611570844	1005.40002441406
693.300680527212	1008.79998779297
694.03565813091	1007.20001220703
694.770544389877	1007.20001220703
695.505339312053	1009
696.240042905372	1008
696.974655177772	1009.79998779297
697.70917613719	1001.79998779297
698.443605791561	1004.20001220703
699.177944148826	1003.79998779297
699.912191216909	1005.20001220703
700.646347003755	1009.59997558594
701.380411517295	1005.59997558594
702.114384765465	1006.59997558594
702.848266756195	1010.40002441406
703.582057497421	1016
704.315756997074	1010.79998779297
705.049365263089	1011
705.782882303399	1015.40002441406
706.516308125936	1012.20001220703
707.249642738626	1009.59997558594
707.982886149403	1016.79998779297
708.716038366204	1016.59997558594
709.449099396949	1014.20001220703
710.182069249577	1007.40002441406
710.914947932009	1010
711.647735452181	1010.79998779297
712.380431818022	1006
713.113037037454	1002.40002441406
713.845551118411	1001.59997558594
714.577974068818	1007.40002441406
715.310305896604	1005.79998779297
716.042546609694	1008
716.774696216013	1006.79998779297
717.506754723493	1011.59997558594
718.238722140053	1012
718.970598473624	1014.59997558594
719.702383732127	1012.79998779297
720.43407792349	1008.40002441406
721.165681055634	1016.79998779297
721.897193136486	1016.59997558594
722.628614173966	1014
723.359944175997	1015.40002441406
724.091183150505	1017
724.822331105412	1009.20001220703
725.553388048638	1007.40002441406
726.284353988106	1006.20001220703
727.015228931734	1011.40002441406
727.746012887449	1012
728.476705863162	1010.20001220703
729.207307866803	1012
729.937818906289	1016
730.668238989535	1011.79998779297
731.398568124459	1012.40002441406
732.128806318986	1012.40002441406
732.858953581034	1016.59997558594
733.589009918514	1015.59997558594
734.318975339348	1011
735.048849851452	1014.40002441406
735.778633462744	1013
736.508326181137	1014.79998779297
737.237928014549	1017.40002441406
737.967438970897	1010.79998779297
738.696859058095	1010.40002441406
739.426188284054	1005.20001220703
740.155426656692	1008.59997558594
740.884574183922	1014
741.613630873659	1009.79998779297
742.342596733815	1007.40002441406
743.071471772302	1013.59997558594
743.800255997034	1013.79998779297
744.528949415921	1008
745.257552036877	1013.79998779297
745.986063867811	1007.20001220703
746.714484916638	1005.59997558594
747.442815191261	1013.20001220703
748.171054699597	1005.79998779297
748.899203449554	1011
749.627261449039	1014.20001220703
750.355228705966	1014.20001220703
751.083105228239	1023.40002441406
751.810891023765	1020.59997558594
752.538586100459	1017.79998779297
753.266190466218	1019.20001220703
753.99370412896	1016.79998779297
754.721127096582	1012.59997558594
755.448459377	1011.20001220703
756.175700978114	1012.20001220703
756.902851907828	1008.40002441406
757.629912174055	1002.59997558594
758.356881784688	1012.59997558594
759.083760747639	1012.79998779297
759.810549070817	1012.40002441406
760.537246762113	1015.20001220703
761.263853829442	1015.79998779297
761.990370280698	1016
762.716796123791	1021.20001220703
763.443131366618	1014.79998779297
764.169376017082	1009.79998779297
764.895530083085	1021.20001220703
765.621593572527	1025.19995117188
766.347566493312	1020.40002441406
767.073448853336	1020.20001220703
767.799240660502	1025.80004882813
768.524941922707	1029
769.250552647854	1029.40002441406
769.976072843836	1025.40002441406
770.701502518551	1032
771.426841679905	1027.40002441406
772.152090335793	1027.40002441406
772.877248494107	1034.59997558594
773.602316162747	1028.40002441406
774.327293349609	1033.80004882813
775.052180062592	1027.80004882813
775.776976309589	1032.19995117188
776.501682098496	1033.59997558594
777.226297437206	1028.19995117188
777.950822333616	1026.80004882813
778.675256795621	1023
779.399600831111	1021.40002441406
780.123854447983	1025
780.84801765413	1022.79998779297
781.572090457441	1020.59997558594
782.296072865811	1019.59997558594
783.019964887131	1021.40002441406
783.743766529297	1016
784.467477800194	1023.59997558594
785.191098707719	1020.79998779297
785.914629259756	1020.59997558594
786.638069464194	1021.40002441406
787.361419328932	1017
788.084678861852	1013.59997558594
788.807848070845	1013
789.530926963798	1012.40002441406
790.253915548602	1016.40002441406
790.976813833144	1015.59997558594
791.699621825307	1012.40002441406
792.422339532986	1012.40002441406
793.144966964061	1020.20001220703
793.86750412642	1007.59997558594
794.589951027946	1018
795.312307676536	1015.20001220703
796.03457408006	1010.40002441406
796.756750246417	1020.40002441406
797.478836183477	1020.79998779297
798.200831899137	1016.79998779297
798.92273740127	1013.79998779297
799.644552697769	1016.79998779297
800.36627779651	1017.59997558594
801.087912705374	1016.40002441406
801.809457432251	1023
802.530911985017	1017.20001220703
803.252276371558	1018.79998779297
803.973550599748	1013.40002441406
804.694734677472	1018.20001220703
805.415828612611	1011.79998779297
806.136832413045	1017.59997558594
806.857746086646	1024.19995117188
807.578569641305	1017.59997558594
808.299303084892	1019.40002441406
809.019946425289	1015.79998779297
809.740499670372	1013.79998779297
810.460962828022	1020.79998779297
811.181335906114	1016.59997558594
811.901618912524	1015.40002441406
812.621811855131	1018.20001220703
813.341914741809	1012
814.061927580433	1016.20001220703
814.781850378881	1012.59997558594
815.501683145025	1013.79998779297
816.221425886743	1015.40002441406
816.941078611903	1013.40002441406
817.660641328387	1007.79998779297
818.380114044065	1013.40002441406
819.099496766808	1008.59997558594
819.818789504492	1010.59997558594
820.53799226499	1010.59997558594
821.257105056168	1004.59997558594
821.976127885904	1009.79998779297
822.695060762064	1005.20001220703
823.413903692525	1006.20001220703
824.132656685151	1014.40002441406
824.851319747817	1010.40002441406
825.569892888388	1018.59997558594
826.288376114739	1014.40002441406
827.006769434737	1021.59997558594
827.725072856249	1018.40002441406
828.443286387142	1018.40002441406
829.161410035285	1011
829.87944380855	1010.59997558594
830.597387714798	1018.59997558594
831.315241761898	1015.40002441406
832.033005957715	1017
832.750680310119	1019.79998779297
833.468264826969	1022.40002441406
834.18575951614	1017.40002441406
834.903164385486	1020.40002441406
835.620479442878	1016.59997558594
836.337704696181	1018
837.054840153255	1014.20001220703
837.771885821962	1009.20001220703
838.488841710172	1010.79998779297
839.20570782574	1013.20001220703
839.922484176531	1013.20001220703
840.639170770409	1012.59997558594
841.355767615231	1014
842.072274718864	1006.40002441406
842.788692089164	1010.40002441406
843.505019733993	1006.59997558594
844.221257661209	1010.79998779297
844.937405878676	1014.59997558594
845.65346439425	1022
846.369433215789	1017.40002441406
847.085312351156	1012.79998779297
847.801101808205	1005
848.516801594793	1008
849.232411718781	1009.79998779297
849.947932188021	1009.40002441406
850.663363010376	1008.79998779297
851.378704193698	1009.20001220703
852.093955745842	1013.40002441406
852.809117674669	1011.59997558594
853.524189988028	1017.40002441406
854.239172693778	1015.79998779297
854.954065799768	1021.79998779297
855.668869313857	1016.59997558594
856.383583243899	1019.59997558594
857.098207597743	1016.40002441406
857.812742383246	1013.59997558594
858.527187608255	1015.79998779297
859.241543280628	1004
859.955809408218	1015
860.669985998868	1013.20001220703
861.384073060437	1018
862.098070600772	1010.20001220703
862.811978627724	1016
863.52579714914	1013.59997558594
864.239526172873	1015.40002441406
864.953165706776	1019.20001220703
865.666715758687	1025.19995117188
866.380176336464	1017.79998779297
867.093547447951	1016.40002441406
867.806829100996	1012
868.520021303444	1008.20001220703
869.233124063149	1009.20001220703
869.94613738795	1012.40002441406
870.659061285693	1005.79998779297
871.37189576423	1007.20001220703
872.084640831403	1009.59997558594
872.797296495057	1016.79998779297
873.509862763039	1016.59997558594
874.22233964319	1018.20001220703
874.934727143353	1011.59997558594
875.647025271374	1007.79998779297
876.359234035097	1015.59997558594
877.071353442361	1012.20001220703
877.783383501015	1017.79998779297
878.495324218895	1011.40002441406
879.207175603844	1011.79998779297
879.918937663705	1013.20001220703
880.630610406318	1019.40002441406
881.342193839524	1016.20001220703
882.053687971161	1022
882.765092809069	1017.40002441406
883.476408361091	1017.40002441406
884.187634635066	1016
884.898771638828	1012.79998779297
885.609819380221	1013.79998779297
886.320777867076	1015
887.031647107236	1013
887.742427108536	1013.20001220703
888.453117878816	1011.59997558594
889.16371942591	1014.59997558594
889.874231757652	1007.79998779297
890.584654881883	1013.79998779297
891.294988806434	1013.79998779297
892.005233539141	1011.59997558594
892.715389087837	1019.40002441406
893.42545546036	1020.79998779297
894.135432664543	1019.40002441406
894.845320708216	1031.19995117188
895.555119599216	1024
896.264829345375	1022.79998779297
896.974449954526	1023.79998779297
897.683981434496	1020
898.393423793125	1023.20001220703
899.102777038235	1017.79998779297
899.812041177664	1021.20001220703
900.521216219239	1021
901.230302170793	1022.40002441406
901.939299040155	1020
902.64820683515	1021.59997558594
903.357025563612	1022.20001220703
904.065755233368	1021.20001220703
904.774395852247	1015
905.482947428076	1021.79998779297
906.191409968682	1019.79998779297
906.899783481897	1020.40002441406
907.608067975538	1023.20001220703
908.316263457443	1023.59997558594
909.02436993543	1025
909.732387417327	1017.79998779297
910.440315910959	1012.59997558594
911.148155424154	1017
911.855905964731	1024.59997558594
912.563567540521	1019.59997558594
913.271140159339	1015
913.978623829017	1013.40002441406
914.686018557374	1011.79998779297
915.393324352237	1016.40002441406
916.100541221421	1017.40002441406
916.807669172752	1018.40002441406
917.514708214054	1019.59997558594
918.221658353142	1025
918.928519597843	1022
919.635291955976	1015.40002441406
920.341975435358	1018.20001220703
921.048570043813	1019.20001220703
921.75507578916	1019.59997558594
922.461492679212	1022.59997558594
923.167820721795	1024.59997558594
923.874059924726	1028.59997558594
924.58021029582	1021.59997558594
925.286271842893	1020.79998779297
925.992244573769	1022.79998779297
926.698128496262	1022.40002441406
927.403923618184	1021.59997558594
928.109629947355	1020.20001220703
928.815247491593	1025.59997558594
929.520776258708	1016.40002441406
930.226216256519	1021.59997558594
930.931567492841	1023
931.636829975482	1016
932.342003712263	1021.20001220703
933.047088710995	1019.59997558594
933.752084979491	1009.59997558594
934.456992525564	1013.40002441406
935.161811357024	1011.20001220703
935.866541481688	1006
936.571182907363	1008
937.275735641861	1010.59997558594
937.980199692995	1009
938.684575068572	1016.79998779297
939.388861776411	1013.79998779297
940.093059824311	1019.79998779297
940.797169220085	1014
941.501189971544	1012
942.205122086495	1009.79998779297
942.908965572751	1018.40002441406
943.612720438111	1014.59997558594
944.316386690391	1014
945.019964337391	1016.59997558594
945.723453386924	1012.79998779297
946.426853846795	1019.59997558594
947.130165724808	1017.40002441406
947.83338902877	1018.20001220703
948.536523766488	1017.79998779297
949.239569945764	1011.40002441406
949.942527574402	1014.59997558594
950.64539666021	1017.20001220703
951.348177210993	1013.40002441406
952.050869234548	1014
952.753472738683	1012
953.455987731199	1013.79998779297
954.158414219898	1009.79998779297
954.860752212587	1016.59997558594
955.563001717061	1014.40002441406
956.265162741124	1011.79998779297
956.967235292576	1015.40002441406
957.669219379224	1014.20001220703
958.371115008857	1015.59997558594
959.072922189283	1007.20001220703
959.774640928301	1009.20001220703
960.476271233708	1008
961.177813113301	1004.20001220703
961.879266574882	1007.40002441406
962.580631626248	1004.40002441406
963.281908275194	1009.59997558594
963.98309652952	1004.59997558594
964.684196397022	1010.59997558594
965.3852078855	1012.59997558594
966.086131002745	1006.40002441406
966.786965756555	1012.79998779297
967.487712154726	1011.59997558594
968.188370205055	1013.79998779297
968.888939915331	1008.40002441406
969.589421293352	1011.20001220703
970.289814346909	1015.20001220703
970.990119083801	1012.40002441406
971.690335511819	1017.59997558594
972.39046363875	1019.40002441406
973.090503472398	1017.20001220703
973.790455020545	1023.40002441406
974.490318290987	1023.59997558594
975.190093291516	1016.79998779297
975.889780029923	1015.59997558594
976.589378513998	1021.79998779297
977.288888751527	1014.79998779297
977.988310750308	1012.59997558594
978.687644518122	1012
979.386890062767	1016
980.086047392025	1015
980.785116513689	1015.79998779297
981.484097435542	1008.20001220703
982.182990165377	1015
982.88179471098	1018.40002441406
983.580511080137	1017
984.279139280632	1011.59997558594
984.977679320253	1013.79998779297
985.67613120679	1012.79998779297
986.374494948027	1016
987.072770551745	1013
987.770958025731	1013.79998779297
988.469057377772	1015
989.167068615649	1011.20001220703
989.864991747145	1006.40002441406
990.562826780047	1006.40002441406
991.260573722134	1016
991.958232581195	1010.20001220703
992.655803365003	1009.59997558594
993.353286081346	1007.20001220703
994.050680738006	1007.40002441406
994.74798734276	1011.59997558594
995.44520590339	1022.40002441406
996.142336427681	1023.59997558594
996.839378923407	1015
997.536333398348	1017.59997558594
998.233199860289	1013.20001220703
998.929978317004	1015.20001220703
999.626668776274	1010.20001220703
1000.32327124587	1014
1001.01978573359	1013.79998779297
1001.71621224718	1010.20001220703
1002.41255079445	1012.20001220703
1003.10880138315	1012.79998779297
1003.80496402107	1008.79998779297
1004.50103871599	1016
1005.19702547567	1013
1005.8929243079	1023.59997558594
1006.58873522045	1020
1007.2844582211	1024
1007.98009331761	1021.40002441406
1008.67564051776	1013.20001220703
1009.37109982933	1021.20001220703
1010.06647126009	1020
1010.7617548178	1017.59997558594
1011.45695051026	1019.40002441406
1012.15205834522	1016.59997558594
1012.84707833045	1009
1013.54201047373	1009.59997558594
1014.23685478284	1010.40002441406
1014.93161126553	1012.20001220703
1015.62627992959	1018
1016.32086078277	1011.59997558594
1017.01535383285	1017.20001220703
1017.70975908761	1011.79998779297
1018.40407655479	1016.59997558594
1019.09830624219	1016.59997558594
1019.79244815755	1014.79998779297
1020.48650230866	1015.79998779297
1021.18046870328	1012.79998779297
1021.87434734917	1021.20001220703
1022.56813825411	1021
1023.26184142584	1017.20001220703
1023.95545687216	1015.40002441406
1024.64898460082	1015.79998779297
1025.34242461957	1019.20001220703
1026.0357769362	1013.20001220703
1026.72904155846	1011.40002441406
1027.42221849412	1011
1028.11530775094	1017.59997558594
1028.80830933668	1014.59997558594
1029.50122325911	1014.40002441406
1030.19404952599	1009.20001220703
1030.88678814508	1014.20001220703
1031.57943912414	1014.20001220703
1032.27200247093	1008.79998779297
1032.96447819323	1008.79998779297
1033.65686629878	1010.40002441406
1034.34916679534	1014.59997558594
1035.04137969068	1014.40002441406
1035.73350499256	1014.59997558594
1036.42554270874	1006.59997558594
1037.11749284697	1015.20001220703
1037.80935541501	1013.20001220703
1038.50113042062	1014
1039.19281787156	1017.40002441406
1039.88441777559	1012.59997558594
1040.57593014046	1011.79998779297
1041.26735497393	1012.59997558594
1041.95869228376	1015.40002441406
1042.6499420777	1011.40002441406
1043.3411043635	1010
1044.03217914893	1010
1044.72316644174	1012.20001220703
1045.41406624968	1009.79998779297
1046.1048785805	1010
1046.79560344197	1019.59997558594
1047.48624084182	1010.59997558594
1048.17679078783	1014.79998779297
1048.86725328774	1002.79998779297
1049.55762834929	1007.40002441406
1050.24791598025	1009.20001220703
1050.93811618837	1007.20001220703
1051.62822898139	1006.79998779297
1052.31825436707	1008.40002441406
1053.00819235315	1010.20001220703
1053.6980429474	1009.20001220703
1054.38780615755	1005.79998779297
1055.07748199136	1011.20001220703
1055.76707045658	1015.20001220703
1056.45657156095	1006.59997558594
1057.14598531222	1010.59997558594
1057.83531171814	1001.59997558594
1058.52455078646	1003.20001220703
1059.21370252494	1007.40002441406
1059.90276694129	1013.20001220703
1060.5917440433	1012.79998779297
1061.28063383868	1018.59997558594
1061.9694363352	1016.20001220703
1062.65815154059	1010.40002441406
1063.34677946261	1015.40002441406
1064.03532010899	1008.79998779297
1064.72377348748	1015.20001220703
1065.41213960583	1013.20001220703
1066.10041847177	1008.20001220703
1066.78861009306	1010.79998779297
1067.47671447743	1009.20001220703
1068.16473163263	1009.79998779297
1068.85266156639	1012
1069.54050428647	1013.20001220703
1070.2282598006	1016.40002441406
1070.91592811652	1017.59997558594
1071.60350924198	1013.59997558594
1072.29100318471	1015
1072.97840995245	1014.79998779297
1073.66572955295	1011.59997558594
1074.35296199394	1011.79998779297
1075.04010728316	1017.79998779297
1075.72716542836	1009.59997558594
1076.41413643726	1008.40002441406
1077.10102031761	1012.59997558594
1077.78781707715	1012.20001220703
1078.4745267236	1010
1079.16114926471	1017.79998779297
1079.84768470822	1010.59997558594
1080.53413306185	1015.20001220703
1081.22049433336	1019.59997558594
1081.90676853046	1016.59997558594
1082.5929556609	1014.79998779297
1083.27905573241	1021
1083.96506875272	1019.59997558594
1084.65099472957	1009.79998779297
1085.3368336707	1014
1086.02258558383	1010
1086.70825047669	1015.79998779297
1087.39382835703	1009.79998779297
1088.07931923257	1011.20001220703
1088.76472311104	1010
1089.45004000018	1016.40002441406
1090.13526990771	1009.59997558594
1090.82041284137	1015.79998779297
1091.50546880889	1018.79998779297
1092.19043781799	1017.59997558594
1092.87531987642	1016.40002441406
1093.56011499188	1013.79998779297
1094.24482317212	1011.20001220703
1094.92944442486	1005.40002441406
1095.61397875783	1005.20001220703
1096.29842617876	1002.40002441406
1096.98278669537	1008.20001220703
1097.6670603154	1007.20001220703
1098.35124704656	1009.40002441406
1099.03534689659	1013.20001220703
1099.71935987322	1012
1100.40328598416	1014.59997558594
1101.08712523713	1013.59997558594
1101.77087763988	1015
1102.45454320012	1016.59997558594
1103.13812192557	1010.59997558594
1103.82161382396	1006.59997558594
1104.50501890301	1013.79998779297
1105.18833717045	1008.79998779297
1105.87156863399	1009
1106.55471330137	1016.40002441406
1107.2377711803	1014
1107.9207422785	1015.20001220703
1108.60362660369	1017
1109.2864241636	1015
1109.96913496594	1018.20001220703
1110.65175901844	1019.40002441406
1111.33429632882	1013.40002441406
1112.01674690479	1014.40002441406
1112.69911075408	1016.40002441406
1113.38138788439	1012.59997558594
1114.06357830346	1005.59997558594
1114.745682019	1009
1115.42769903872	1008.59997558594
1116.10962937035	1007.59997558594
1116.7914730216	1009.40002441406
1117.47323000018	1015.79998779297
1118.15490031382	1018.20001220703
1118.83648397022	1017
1119.51798097712	1013.79998779297
1120.1993913422	1011.40002441406
1120.88071507321	1011.40002441406
1121.56195217784	1013.79998779297
1122.24310266381	1012.79998779297
1122.92416653884	1005.40002441406
1123.60514381064	1011.59997558594
1124.28603448692	1007.20001220703
1124.9668385754	1010.20001220703
1125.64755608378	1014.20001220703
1126.32818701978	1016.79998779297
1127.00873139111	1016.40002441406
1127.68918920548	1019.20001220703
1128.3695604706	1019.79998779297
1129.04984519419	1022
1129.73004338394	1014.20001220703
1130.41015504758	1013.79998779297
1131.09018019281	1012.40002441406
1131.77011882734	1015.59997558594
1132.44997095888	1010.40002441406
1133.12973659514	1019.20001220703
1133.80941574381	1023.20001220703
1134.48900841263	1016.79998779297
1135.16851460927	1010
1135.84793434147	1011
1136.52726761692	1012.59997558594
1137.20651444333	1009.79998779297
1137.8856748284	1013
1138.56474877984	1004.20001220703
1139.24373630536	1009.59997558594
1139.92263741265	1006.40002441406
1140.60145210943	1015
1141.28018040339	1014.59997558594
1141.95882230225	1018.20001220703
1142.6373778137	1010.79998779297
1143.31584694545	1013
1143.99422970519	1018.40002441406
1144.67252610064	1016.59997558594
1145.35073613949	1012
1146.02885982944	1012.20001220703
1146.7068971782	1003.40002441406
1147.38484819347	1004.79998779297
1148.06271288294	1005
1148.74049125432	1011
1149.41818331531	1017.79998779297
1150.0957890736	1009.59997558594
1150.77330853689	1013.40002441406
1151.45074171289	1011.20001220703
1152.12808860928	1012.20001220703
1152.80534923378	1009
1153.48252359407	1016
1154.15961169786	1012.40002441406
1154.83661355283	1011.20001220703
1155.51352916669	1009.40002441406
1156.19035854713	1007.59997558594
1156.86710170185	1016.59997558594
1157.54375863855	1013.20001220703
1158.22032936491	1012.79998779297
1158.89681388863	1016.59997558594
1159.57321221741	1013.79998779297
1160.24952435894	1012.79998779297
1160.92575032092	1015.59997558594
1161.60189011103	1022
1162.27794373697	1015
1162.95391120644	1013
1163.62979252712	1018.40002441406
1164.3055877067	1013.40002441406
1164.98129675288	1013.20001220703
1165.65691967336	1022.20001220703
1166.33245647581	1015.79998779297
1167.00790716792	1016.20001220703
1167.6832717574	1014
1168.35855025193	1013
1169.0337426592	1014.59997558594
1169.70884898689	1012.79998779297
1170.3838692427	1011.20001220703
1171.05880343431	1013.20001220703
1171.73365156941	1012.40002441406
1172.40841365569	1016.59997558594
1173.08308970083	1020.40002441406
1173.75767971253	1022
1174.43218369847	1018
1175.10660166633	1017.40002441406
1175.7809336238	1011.79998779297
1176.45517957857	1015.40002441406
1177.12933953832	1018
1177.80341351073	1010.79998779297
1178.47740150349	1015.20001220703
1179.15130352429	1011.59997558594
1179.8251195808	1022.20001220703
1180.49884968071	1016.79998779297
1181.1724938317	1019
1181.84605204145	1013.59997558594
1182.51952431766	1017.40002441406
1183.19291066799	1016
1183.86621110013	1019.79998779297
1184.53942562176	1014.20001220703
1185.21255424057	1015
1185.88559696422	1016.20001220703
1186.55855380041	1020.79998779297
1187.2314247568	1012.20001220703
1187.90420984109	1016.40002441406
1188.57690906095	1016.59997558594
1189.24952242405	1023.40002441406
1189.92204993808	1025.40002441406
1190.59449161071	1025.19995117188
1191.26684744962	1023.20001220703
1191.93911746249	1026
1192.61130165699	1021.20001220703
1193.28340004081	1021
1193.95541262161	1019.40002441406
1194.62733940707	1026.19995117188
1195.29918040487	1024.40002441406
1195.97093562269	1020
1196.64260506819	1021
1197.31418874905	1024
1197.98568667295	1019
1198.65709884755	1019.79998779297
1199.32842528053	1020
1199.99966597957	1019.79998779297
1200.67082095234	1015
1201.3418902065	1015.79998779297
1202.01287374974	1008.40002441406
1202.68377158971	1013.20001220703
1203.3545837341	1017.20001220703
1204.02531019057	1016.59997558594
1204.6959509668	1012.59997558594
1205.36650607045	1020
1206.03697550919	1020.59997558594
1206.70735929069	1013.20001220703
1207.37765742263	1012.20001220703
1208.04786991266	1020.20001220703
1208.71799676846	1023.59997558594
1209.38803799769	1020.20001220703
1210.05799360803	1018.59997558594
1210.72786360714	1013.59997558594
1211.39764800268	1019
1212.06734680233	1016.20001220703
1212.73696001375	1013.59997558594
1213.4064876446	1014
1214.07592970255	1014.59997558594
1214.74528619526	1007.59997558594
1215.4145571304	1013.40002441406
1216.08374251564	1007.79998779297
1216.75284235863	1006
1217.42185666704	1007.79998779297
1218.09078544854	1006.20001220703
1218.75962871078	1010
1219.42838646143	1002.40002441406
1220.09705870816	1010.79998779297
1220.76564545861	1013.59997558594
1221.43414672046	1007
1222.10256250136	1015.59997558594
1222.77089280898	1011.20001220703
1223.43913765098	1020.20001220703
1224.107297035	1017.40002441406
1224.77537096873	1020.59997558594
1225.44335945981	1019.59997558594
1226.1112625159	1016
1226.77908014467	1012.20001220703
1227.44681235376	1014.59997558594
1228.11445915085	1015
1228.78202054357	1017.20001220703
1229.44949653961	1013.40002441406
1230.11688714659	1013.79998779297
1230.7841923722	1016.59997558594
1231.45141222407	1010.59997558594
1232.11854670988	1011.40002441406
1232.78559583726	1006.40002441406
1233.45255961388	1009.59997558594
1234.1194380474	1009.40002441406
1234.78623114546	1008
1235.45293891572	1014.59997558594
1236.11956136583	1014.20001220703
1236.78609850345	1006.79998779297
1237.45255033623	1005.79998779297
1238.11891687182	1013
1238.78519811788	1011.40002441406
1239.45139408205	1009.40002441406
1240.11750477198	1010.79998779297
1240.78353019534	1009.59997558594
1241.44947035976	1012
1242.11532527291	1007.40002441406
1242.78109494242	1008
1243.44677937595	1006.79998779297
1244.11237858115	1014.59997558594
1244.77789256567	1007.59997558594
1245.44332133715	1009
1246.10866490325	1016.20001220703
1246.7739232716	1010.40002441406
1247.43909644987	1022.40002441406
1248.10418444569	1015
1248.76918726671	1011.79998779297
1249.43410492059	1012.79998779297
1250.09893741496	1005.59997558594
1250.76368475747	1008
1251.42834695576	1007.20001220703
1252.09292401749	1011
1252.75741595029	1016
1253.42182276182	1010.20001220703
1254.08614445971	1015.20001220703
1254.75038105161	1010.59997558594
1255.41453254515	1012.59997558594
1256.07859894799	1013
1256.74258026777	1010.20001220703
1257.40647651213	1007.79998779297
1258.0702876887	1006.59997558594
1258.73401380514	1008.79998779297
1259.39765486908	1012
1260.06121088817	1011.79998779297
1260.72468187004	1014.40002441406
1261.38806782233	1014
1262.05136875269	1014.40002441406
1262.71458466875	1010.40002441406
1263.37771557815	1008.20001220703
1264.04076148854	1012.40002441406
1264.70372240753	1004.79998779297
1265.3665983428	1009.59997558594
1266.02938930195	1010.59997558594
1266.69209529263	1010
1267.35471632249	1008.20001220703
1268.01725239914	1014.59997558594
1268.67970353024	1017.20001220703
1269.34206972342	1011.79998779297
1270.00435098631	1005.59997558594
1270.66654732655	1006.79998779297
1271.32865875177	1005
1271.9906852696	1011.20001220703
1272.65262688768	1012
1273.31448361365	1010.20001220703
1273.97625545514	1013.40002441406
1274.63794241978	1013
1275.2995445152	1012.79998779297
1275.96106174903	1007.79998779297
1276.62249412892	1014.79998779297
1277.28384166248	1011.20001220703
1277.94510435735	1009
1278.60628222116	1012.40002441406
1279.26737526155	1015
1279.92838348613	1006.59997558594
1280.58930690255	1008.40002441406
1281.25014551842	1002
1281.91089934139	1012
1282.57156837907	1012.59997558594
1283.2321526391	1011.79998779297
1283.89265212911	1010.40002441406
1284.55306685671	1010
1285.21339682955	1011.40002441406
1285.87364205525	1002.79998779297
1286.53380254142	1004.40002441406
1287.19387829571	999.400024414063
1287.85386932573	1000.79998779297
1288.51377563911	1011.79998779297
1289.17359724348	1003.79998779297
1289.83333414646	1010.59997558594
1290.49298635567	1010.59997558594
1291.15255387874	1010.59997558594
1291.8120367233	1013.20001220703
1292.47143489696	1010.40002441406
1293.13074840736	1011
1293.7899772621	1013.79998779297
1294.44912146882	1009.59997558594
1295.10818103513	1006.40002441406
1295.76715596866	1011.59997558594
1296.42604627704	1012.79998779297
1297.08485196787	1013.20001220703
1297.74357304878	1015.20001220703
1298.4022095274	1014
1299.06076141134	1016
1299.71922870821	1007.79998779297
1300.37761142565	1011.79998779297
1301.03590957126	1015.40002441406
1301.69412315268	1009.20001220703
1302.3522521775	1013.59997558594
1303.01029665336	1011.40002441406
1303.66825658787	1015
1304.32613198865	1014.40002441406
1304.98392286332	1009
1305.64162921948	1016.79998779297
1306.29925106476	1017.79998779297
1306.95678840677	1021.79998779297
1307.61424125312	1020.20001220703
1308.27160961145	1021.20001220703
1308.92889348934	1014.40002441406
1309.58609289443	1011
1310.24320783432	1019.79998779297
1310.90023831664	1015.40002441406
1311.55718434898	1008.79998779297
1312.21404593897	1010.79998779297
1312.87082309421	1017.40002441406
1313.52751582233	1013.40002441406
1314.18412413092	1014.59997558594
1314.84064802761	1015
1315.49708752	1018
1316.1534426157	1018.40002441406
1316.80971332233	1020.20001220703
1317.46589964749	1017.20001220703
1318.1220015988	1020.40002441406
1318.77801918386	1016.40002441406
1319.43395241028	1016.79998779297
1320.08980128567	1013.79998779297
1320.74556581764	1015.59997558594
1321.4012460138	1015.59997558594
1322.05684188176	1017.20001220703
1322.71235342911	1011.79998779297
1323.36778066347	1014.59997558594
1324.02312359245	1015.20001220703
1324.67838222365	1018.79998779297
1325.33355656468	1020.40002441406
1325.98864662314	1014.20001220703
1326.64365240663	1015.40002441406
1327.29857392277	1012.59997558594
1327.95341117915	1013
1328.60816418339	1012
1329.26283294308	1016.20001220703
1329.91741746582	1015.40002441406
1330.57191775923	1010.59997558594
1331.2263338309	1008.59997558594
1331.88066568843	1006.20001220703
1332.53491333943	1007.79998779297
1333.1890767915	1011.40002441406
1333.84315605224	1009.59997558594
1334.49715112925	1010.59997558594
1335.15106203013	1015.59997558594
1335.80488876249	1018.79998779297
1336.45863133391	1021.40002441406
1337.112289752	1014
1337.76586402437	1013.40002441406
1338.4193541586	1014.20001220703
1339.0727601623	1013.79998779297
1339.72608204306	1017.20001220703
1340.37931980849	1015.59997558594
1341.03247346617	1011.20001220703
1341.68554302372	1017.20001220703
1342.33852848871	1009.59997558594
1342.99142986876	1003.20001220703
1343.64424717145	1006.59997558594
1344.29698040438	1011.59997558594
1344.94962957515	1015.20001220703
1345.60219469135	1016.40002441406
1346.25467576058	1017
1346.90707279042	1020
1347.55938578848	1021
1348.21161476235	1019.20001220703
1348.86375971962	1015
1349.51582066787	1015
1350.16779761472	1020.59997558594
1350.81969056774	1022
1351.47149953453	1024.59997558594
1352.12322452269	1026.59997558594
1352.77486553979	1029.59997558594
1353.42642259344	1023.40002441406
1354.07789569122	1030
1354.72928484072	1026.59997558594
1355.38059004953	1029.80004882813
1356.03181132525	1028.40002441406
1356.68294867545	1027
1357.33400210773	1030.40002441406
1357.98497162968	1034.19995117188
1358.63585724889	1017.59997558594
1359.28665897294	1025.19995117188
1359.93737680942	1025.40002441406
1360.58801076591	1023.79998779297
1361.23856085001	1033
1361.88902706929	1025.40002441406
1362.53940943135	1027
1363.18970794377	1031
1363.83992261413	1032.40002441406
1364.49005345003	1027
1365.14010045904	1028
1365.79006364874	1031.80004882813
1366.43994302673	1028
1367.08973860058	1027.40002441406
1367.73945037788	1025.80004882813
1368.38907836621	1021
1369.03862257315	1019.79998779297
1369.68808300629	1019.79998779297
1370.3374596732	1021.79998779297
1370.98675258148	1021.20001220703
1371.63596173868	1018.20001220703
1372.28508715241	1016.20001220703
1372.93412883024	1017.40002441406
1373.58308677974	1014
1374.2319610085	1009.79998779297
1374.8807515241	1014
1375.52945833412	1012.59997558594
1376.17808144612	1007.40002441406
1376.82662086771	1008.40002441406
1377.47507660644	1006.79998779297
1378.12344866989	1007
1378.77173706565	1012.40002441406
1379.41994180129	1009.59997558594
1380.06806288439	1003
1380.71610032252	1009.79998779297
1381.36405412326	1006.20001220703
1382.01192429419	1008.40002441406
1382.65971084287	1008.79998779297
1383.30741377688	1013.40002441406
1383.95503310381	1007.40002441406
1384.60256883121	1010.20001220703
1385.25002096667	1011.40002441406
1385.89738951775	1010
1386.54467449204	1013
1387.19187589709	1003.40002441406
1387.8389937405	1015.20001220703
1388.48602802982	1012.20001220703
1389.13297877262	1008.40002441406
1389.77984597649	1008.79998779297
1390.42662964899	1010
1391.07332979768	1009.20001220703
1391.71994643015	1010.20001220703
1392.36647955395	1012.79998779297
1393.01292917667	1005.20001220703
1393.65929530586	1006.20001220703
1394.3055779491	1007.40002441406
1394.95177711395	1013.40002441406
1395.59789280799	1006
1396.24392503877	1009.20001220703
1396.88987381387	1002.79998779297
1397.53573914086	1002.79998779297
1398.1815210273	1005.20001220703
1398.82721948075	1008.79998779297
1399.47283450878	1013.20001220703
1400.11836611897	1005.40002441406
1400.76381431886	1011.59997558594
1401.40917911603	1002.59997558594
1402.05446051805	999.799987792969
1402.69965853247	1004.79998779297
1403.34477316686	998
1403.98980442878	996.799987792969
1404.6347523258	999.400024414063
1405.27961686548	1005.40002441406
1405.92439805538	1004.20001220703
1406.56909590306	1001.20001220703
1407.21371041608	1002
1407.85824160202	1005
1408.50268946841	996.799987792969
1409.14705402284	1002
1409.79133527285	1003.79998779297
1410.43553322601	1000.59997558594
1411.07964788987	1010.59997558594
1411.723679272	1006
1412.36762737996	1006
1413.01149222129	1005.59997558594
1413.65527380357	1003.20001220703
1414.29897213435	1008.59997558594
1414.94258722118	1008
1415.58611907163	1007
1416.22956769325	1002.79998779297
1416.87293309359	1003.79998779297
1417.51621528021	1005.20001220703
1418.15941426067	1009.79998779297
1418.80253004253	1003
1419.44556263333	1006.59997558594
1420.08851204063	999
1420.731378272	1007
1421.37416133497	1010.20001220703
1422.0168612371	1014.79998779297
1422.65947798596	1010
1423.30201158908	1013
1423.94446205403	1014.20001220703
1424.58682938835	1009.40002441406
1425.2291135996	1013.59997558594
1425.87131469532	1009
1426.51343268308	1006.79998779297
1427.15546757042	1010.79998779297
1427.79741936488	1006.59997558594
1428.43928807403	1010.59997558594
1429.0810737054	1009.20001220703
1429.72277626656	1012.59997558594
1430.36439576504	1006.40002441406
1431.00593220841	1000.79998779297
1431.64738560419	998.400024414063
1432.28875595995	998.400024414063
1432.93004328324	997.799987792969
1433.57124758159	997.400024414063
1434.21236886255	1005.40002441406
1434.85340713368	1002.20001220703
1435.49436240252	1000.79998779297
1436.13523467661	1009
1436.77602396349	1009
1437.41673027073	1008.40002441406
1438.05735360585	1004
1438.69789397641	1014.79998779297
1439.33835138994	1007.79998779297
1439.978725854	1004.79998779297
1440.61901737612	1002.79998779297
1441.25922596385	1004.59997558594
1441.89935162473	999.599975585938
1442.53939436631	1004
1443.17935419612	1003.40002441406
1443.81923112171	1004.40002441406
1444.45902515061	997.400024414063
1445.09873629038	1002.79998779297
1445.73836454854	996.599975585938
1446.37790993265	998.400024414063
1447.01737245024	1002.20001220703
1447.65675210885	1005
1448.29604891602	999.599975585938
1448.93526287928	1001
1449.57439400618	1002.20001220703
1450.21344230426	1000.79998779297
1450.85240778105	1005.59997558594
1451.49129044409	1004
1452.13009030092	1002.40002441406
1452.76880735907	1001.59997558594
1453.40744162608	1011.79998779297
1454.04599310949	1009
1454.68446181683	1004.79998779297
1455.32284775564	1008.20001220703
1455.96115093345	1009.59997558594
1456.5993713578	1011.40002441406
1457.23750903623	1006.20001220703
1457.87556397626	1002.79998779297
1458.51353618543	1002.59997558594
1459.15142567127	1002.40002441406
1459.78923244132	1002
1460.42695650311	1004
1461.06459786417	999.599975585938
1461.70215653203	1003.79998779297
1462.33963251423	1001.79998779297
1462.97702581829	1004.79998779297
1463.61433645175	1005.20001220703
1464.25156442214	1001.59997558594
1464.88870973699	1002.40002441406
1465.52577240382	1003.79998779297
1466.16275243017	999
1466.79964982356	1000
1467.43646459154	1003.40002441406
1468.07319674161	1003.20001220703
1468.70984628132	1007.59997558594
1469.34641321818	1005.40002441406
1469.98289755974	1000.20001220703
1470.6192993135	1002.59997558594
1471.25561848701	1000
1471.89185508779	1004.59997558594
1472.52800912336	1004
1473.16408060124	1003.59997558594
1473.80006952897	1007
1474.43597591407	1001.20001220703
1475.07179976406	1003.40002441406
1475.70754108647	995.599975585938
1476.34319988883	1011
1476.97877617865	1003.20001220703
1477.61426996345	1007
1478.24968125077	1010.79998779297
1478.88501004812	1013
1479.52025636303	1012.40002441406
1480.15542020302	1011
1480.79050157561	1013.79998779297
1481.42550048832	1009
1482.06041694867	1009.79998779297
1482.69525096418	1008.20001220703
1483.33000254237	1008.59997558594
1483.96467169077	1004.79998779297
1484.59925841689	1005
1485.23376272825	1005.40002441406
1485.86818463237	1005
1486.50252413677	1004.59997558594
1487.13678124896	1002.40002441406
1487.77095597646	1003.79998779297
1488.4050483268	1002.79998779297
1489.03905830749	1004
1489.67298592604	1003
1490.30683118996	1004.79998779297
1490.9405941068	1004
1491.57427468403	1009.20001220703
1492.2078729292	1005.20001220703
1492.84138884981	1006.40002441406
1493.47482245338	1012.40002441406
1494.10817374742	1008
1494.74144273944	1011.79998779297
1495.37462943696	1022
1496.0077338475	1008.79998779297
1496.64075597856	1013.59997558594
1497.27369583765	1014.59997558594
1497.9065534323	1012.20001220703
1498.53932877001	999.599975585938
1499.17202185829	996.200012207031
1499.80463270465	996.799987792969
1500.43716131661	999.599975585938
1501.06960770167	991.200012207031
1501.70197186735	996.799987792969
1502.33425382116	996.599975585938
1502.96645357059	999.200012207031
1503.59857112317	1001.20001220703
1504.23060648641	998
1504.8625596678	1001
1505.49443067486	1002
1506.1262195151	1002.20001220703
1506.75792619602	1003.79998779297
1507.38955072513	998.400024414063
1508.02109310993	1004.59997558594
1508.65255335794	998.400024414063
1509.28393147666	1001
1509.91522747359	1000.79998779297
1510.54644135624	997.400024414063
1511.17757313212	999.599975585938
1511.80862280872	1005.20001220703
1512.43959039356	1006.20001220703
1513.07047589413	1004
1513.70127931795	1001.79998779297
1514.33200067251	1005
1514.96263996531	1006.59997558594
1515.59319720386	999.799987792969
1516.22367239567	1003.59997558594
1516.85406554822	1000
1517.48437666903	1003.20001220703
1518.1146057656	1005
1518.74475284542	1005.59997558594
1519.374817916	1000.20001220703
1520.00480098483	1002
1520.63470205942	1002.40002441406
1521.26452114726	999.599975585938
1521.89425825586	1006.20001220703
1522.52391339271	1003.20001220703
1523.15348656531	1009.40002441406
1523.78297778116	1005.20001220703
1524.41238704775	999.599975585938
1525.04171437259	1002
1525.67095976317	1005.79998779297
1526.30012322699	1002
1526.92920477154	999.799987792969
1527.55820440432	997
1528.18712213283	997.599975585938
1528.81595796455	991.599975585938
1529.44471190699	997.599975585938
1530.07338396764	990.799987792969
1530.70197415399	991.599975585938
1531.33048247353	989
1531.95890893377	991.200012207031
1532.58725354219	988.200012207031
1533.21551630629	996.200012207031
1533.84369723356	998.599975585938
1534.47179633148	996.799987792969
1535.09981360757	994.200012207031
1535.72774906929	1000
1536.35560272415	1005
1536.98337457963	1002
1537.61106464323	1005.40002441406
1538.23867292243	1004
1538.86619942473	1002.79998779297
1539.49364415762	1000.79998779297
1540.12100712857	1006
1540.74828834509	1006.40002441406
1541.37548781466	1000.59997558594
1542.00260554478	998
1542.62964154291	996.599975585938
1543.25659581655	1000
1543.8834683732	997
1544.51025922034	999.200012207031
1545.13696836544	998.400024414063
1545.76359581601	994.400024414063
1546.39014157952	993.599975585938
1547.01660566345	992.599975585938
1547.64298807531	994
1548.26928882255	996.799987792969
1548.89550791269	996.599975585938
1549.52164535318	994.799987792969
1550.14770115153	997.400024414063
1550.77367531521	996.200012207031
1551.39956785171	992.599975585938
1552.0253787685	991.799987792969
1552.65110807307	1003.59997558594
1553.2767557729	997.599975585938
1553.90232187548	996.400024414063
1554.52780638828	998.200012207031
1555.15320931879	999.799987792969
1555.77853067447	999.599975585938
1556.40377046282	999.599975585938
1557.02892869132	996.799987792969
1557.65400536744	1001
1558.27900049866	1000.59997558594
1558.90391409247	995.200012207031
1559.52874615633	997.599975585938
1560.15349669773	999.200012207031
1560.77816572414	1000
1561.40275324305	1000.79998779297
1562.02725926192	1000.20001220703
1562.65168378824	1006.20001220703
1563.27602682948	1001.79998779297
1563.90028839311	999.799987792969
1564.52446848662	999.400024414063
1565.14856711748	999.799987792969
1565.77258429316	1006.40002441406
1566.39652002113	1002.59997558594
1567.02037430887	998.599975585938
1567.64414716387	999
1568.26783859357	1004.40002441406
1568.89144860547	1000.59997558594
1569.51497720703	1001.20001220703
1570.13842440573	999
1570.76179020904	994.200012207031
1571.38507462442	1002.20001220703
1572.00827765936	994.200012207031
1572.63139932132	995.799987792969
1573.25443961777	996.400024414063
1573.87739855618	996.200012207031
1574.50027614402	996
1575.12307238877	987.400024414063
1575.74578729789	992.200012207031
1576.36842087885	993.400024414063
1576.99097313912	998.799987792969
1577.61344408616	999.799987792969
1578.23583372745	998
1578.85814207046	995.200012207031
1579.48036912264	996.400024414063
1580.10251489147	998.599975585938
1580.72457938441	988.799987792969
1581.34656260893	991.799987792969
1581.9684645725	995.400024414063
1582.59028528258	996
1583.21202474663	991.599975585938
1583.83368297212	998.400024414063
1584.45525996652	989
1585.07675573728	991.200012207031
1585.69817029188	990.599975585938
1586.31950363778	995.200012207031
1586.94075578243	992.799987792969
1587.5619267333	994.400024414063
1588.18301649786	989.599975585938
1588.80402508357	990
1589.42495249788	988.400024414063
1590.04579874826	989.400024414063
1590.66656384217	988.200012207031
1591.28724778707	989.200012207031
1591.90785059042	990.200012207031
1592.52837225968	987.599975585938
1593.14881280232	982.599975585938
1593.76917222578	985.400024414063
1594.38945053753	987.200012207031
1595.00964774502	988.599975585938
1595.62976385573	987.200012207031
1596.24979887709	984
1596.86975281657	987.400024414063
1597.48962568164	986.400024414063
1598.10941747974	982.799987792969
1598.72912821832	985.400024414063
1599.34875790486	985.400024414063
1599.9683065468	991.200012207031
1600.58777415159	980.599975585938
1601.2071607267	985
1601.82646627958	991.799987792969
1602.44569081769	982.400024414063
1603.06483434846	986.400024414063
1603.68389687937	984.799987792969
1604.30287841786	981.799987792969
1604.92177897139	985
1605.54059854741	978
1606.15933715337	981.400024414063
1606.77799479672	983.599975585938
1607.39657148492	978.599975585938
1608.01506722542	982.200012207031
1608.63348202566	981
1609.2518158931	983.400024414063
1609.87006883519	983.799987792969
1610.48824085939	981.799987792969
1611.10633197312	986.400024414063
1611.72434218386	982.599975585938
1612.34227149904	983.200012207031
1612.96011992612	981
1613.57788747254	980.400024414063
1614.19557414575	981
1614.8131799532	980
1615.43070490234	976.200012207031
1616.04814900061	978
1616.66551225545	981.799987792969
1617.28279467433	973.400024414063
1617.89999626467	979.400024414063
1618.51711703393	976.599975585938
1619.13415698955	981.799987792969
1619.75111613898	977.400024414063
1620.36799448966	976.799987792969
1620.98479204903	979.799987792969
1621.60150882455	977
1622.21814482364	974.400024414063
1622.83470005376	979.400024414063
1623.45117452235	973.799987792969
1624.06756823685	973.599975585938
1624.6838812047	975
1625.30011343335	972.799987792969
1625.91626493022	974.599975585938
1626.53233570278	978.400024414063
1627.14832575845	976.599975585938
1627.76423510468	975.799987792969
1628.38006374891	971.599975585938
1628.99581169857	979
1629.61147896111	976.599975585938
1630.22706554397	978.200012207031
1630.84257145457	978.200012207031
1631.45799670038	984.799987792969
1632.07334128881	975.799987792969
1632.6886052273	972.200012207031
1633.3037885233	970.799987792969
1633.91889118425	972.200012207031
1634.53391321757	977.200012207031
1635.1488546307	971.400024414063
1635.76371543108	974
1636.37849562616	976.799987792969
1636.99319522335	973.400024414063
1637.60781423009	974.200012207031
1638.22235265383	975
1638.83681050198	975.400024414063
1639.451187782	975.200012207031
1640.0654845013	977.599975585938
1640.67970066734	981.200012207031
1641.29383628752	976.799987792969
1641.9078913693	976.799987792969
1642.5218659201	980.400024414063
1643.13575994735	977
1643.74957345849	974
1644.36330646094	973.799987792969
1644.97695896213	969.799987792969
1645.59053096951	970
1646.20402249049	974.599975585938
1646.8174335325	972.200012207031
1647.43076410298	974.799987792969
1648.04401420935	977.400024414063
1648.65718385905	978.599975585938
1649.2702730595	977.799987792969
1649.88328181812	984.200012207031
1650.49621014236	982
1651.10905803963	979.799987792969
1651.72182551735	972.400024414063
1652.33451258297	977.400024414063
1652.9471192439	971
1653.55964550757	976.400024414063
1654.1720913814	967
1654.78445687283	974.200012207031
1655.39674198926	972.599975585938
1656.00894673814	968.400024414063
1656.62107112688	967.799987792969
1657.23311516291	968
1657.84507885365	969.400024414063
1658.45696220652	967.400024414063
1659.06876522895	962.799987792969
1659.68048792835	972.599975585938
1660.29213031217	961.599975585938
1660.90369238779	965.599975585938
1661.51517416267	961.200012207031
1662.12657564421	963.599975585938
1662.73789683984	966.400024414063
1663.34913775697	964.799987792969
1663.96029840303	964.400024414063
1664.57137878544	962.200012207031
1665.18237891161	958.200012207031
1665.79329878897	961
1666.40413842493	959.599975585938
1667.01489782691	960.400024414063
1667.62557700233	960.799987792969
1668.2361759586	963.400024414063
1668.84669470315	961.799987792969
1669.4571332434	963
1670.06749158675	958.400024414063
1670.67776974062	960
1671.28796771243	957.400024414063
1671.8980855096	958.599975585938
1672.50812313954	958
1673.11808060967	958.200012207031
1673.72795792739	964.799987792969
1674.33775510013	956.799987792969
1674.9474721353	959.599975585938
1675.55710904031	961.599975585938
1676.16666582257	957.400024414063
1676.7761424895	954.400024414063
1677.38553904851	955
1677.99485550702	952.400024414063
1678.60409187243	951
1679.21324815215	948.799987792969
1679.8223243536	948.799987792969
1680.43132048419	954.799987792969
1681.04023655132	950.200012207031
1681.64907256241	953.599975585938
1682.25782852487	954.200012207031
1682.86650444611	950.400024414063
1683.47510033353	951.400024414063
1684.08361619455	949.799987792969
1684.69205203657	953.799987792969
1685.300407867	951.400024414063
1685.90868369325	953.400024414063
1686.51687952272	953
1687.12499536283	953.200012207031
1687.73303122098	949.599975585938
1688.34098710457	952
1688.94886302101	952.200012207031
1689.55665897772	950.599975585938
1690.16437498208	950.200012207031
1690.77201104152	955.599975585938
1691.37956716342	952.200012207031
1691.9870433552	948
1692.59443962426	947.799987792969
1693.20175597801	956.599975585938
1693.80899242384	950
1694.41614896916	949.799987792969
1695.02322562138	951
1695.63022238789	947.200012207031
1696.23713927609	951.400024414063
1696.8439762934	948
1697.4507334472	954.200012207031
1698.05741074491	949.400024414063
1698.66400819391	949.799987792969
1699.27052580161	944.799987792969
1699.87696357542	945.200012207031
1700.48332152272	946.799987792969
1701.08959965092	947.400024414063
1701.69579796742	944.200012207031
1702.30191647962	943
1702.90795519491	942.200012207031
1703.51391412069	941.599975585938
1704.11979326437	941.400024414063
1704.72559263332	943.200012207031
1705.33131223496	941.599975585938
1705.93695207668	939.200012207031
1706.54251216588	945.200012207031
1707.14799250994	944.400024414063
1707.75339311628	945.200012207031
1708.35871399227	937
1708.96395514532	941
1709.56911658282	942.200012207031
