634.948122577771	1453
635.690341530823	1449.19995117188
636.43246851086	1461
637.174503525845	1461.40002441406
637.916446583745	1483.19995117188
638.658297692538	1478.80004882813
639.400056860179	1499.80004882813
640.141724094637	1498.19995117188
640.883299403885	1501.19995117188
641.62478279588	1505.40002441406
642.366174278594	1499
643.107473859989	1508.59997558594
643.848681548029	1514.59997558594
644.589797350679	1518.59997558594
645.330821275901	1499.40002441406
646.071753331665	1500.59997558594
646.812593525922	1480.19995117188
647.553341866646	1473.80004882813
648.293998361798	1485.19995117188
649.03456301933	1495.80004882813
649.775035847216	1490.59997558594
650.515416853409	1491.80004882813
651.255706045874	1506.59997558594
651.995903432568	1514.40002441406
652.736009021453	1511
653.476022820486	1507.19995117188
654.215944837629	1502.59997558594
654.955775080842	1513.40002441406
655.695513558081	1514.19995117188
656.435160277301	1504.19995117188
657.174715246465	1518
657.914178473527	1530.19995117188
658.653549966449	1533.80004882813
659.392829733176	1524.40002441406
660.132017781678	1509
660.871114119901	1506.19995117188
661.610118755803	1492.80004882813
662.349031697343	1502.19995117188
663.087852952468	1504.19995117188
663.826582529139	1497
664.565220435305	1498.80004882813
665.30376667892	1492.59997558594
666.04222126794	1497.59997558594
666.780584210316	1503.19995117188
667.518855514	1494.59997558594
668.25703518694	1504
668.995123237096	1514.80004882813
669.733119672413	1516.80004882813
670.471024500842	1513.19995117188
671.208837730333	1510.19995117188
671.946559368839	1512.19995117188
672.684189424308	1500
673.421727904689	1495.59997558594
674.159174817929	1501.19995117188
674.896530171977	1494
675.633793974786	1494.59997558594
676.370966234295	1510
677.108046958461	1502.19995117188
677.845036155219	1497.19995117188
678.581933832528	1503.59997558594
679.318739998323	1501.80004882813
680.055454660558	1522.40002441406
680.792077827172	1530.59997558594
681.528609506116	1540
682.265049705331	1520.59997558594
683.001398432759	1514.19995117188
683.737655696349	1497
684.47382150404	1498.80004882813
685.20989586378	1497.40002441406
685.945878783503	1504.19995117188
686.68177027116	1502.40002441406
687.417570334688	1498.40002441406
688.153278982032	1495.40002441406
688.888896221129	1501.40002441406
689.624422059921	1499.59997558594
690.359856506349	1501.80004882813
691.095199568354	1514
691.830451253874	1508.80004882813
692.565611570844	1498.40002441406
693.300680527212	1507.40002441406
694.03565813091	1512.40002441406
694.770544389877	1525
695.505339312053	1516.59997558594
696.240042905372	1523
696.974655177772	1526.19995117188
697.70917613719	1518.59997558594
698.443605791561	1524.80004882813
699.177944148826	1539.19995117188
699.912191216909	1525.80004882813
700.646347003755	1536.40002441406
701.380411517295	1542.19995117188
702.114384765465	1546.19995117188
702.848266756195	1554.59997558594
703.582057497421	1550.59997558594
704.315756997074	1552.40002441406
705.049365263089	1550.40002441406
705.782882303399	1545.40002441406
706.516308125936	1561.19995117188
707.249642738626	1555.80004882813
707.982886149403	1563.40002441406
708.716038366204	1559
709.449099396949	1559.19995117188
710.182069249577	1565.80004882813
710.914947932009	1553.80004882813
711.647735452181	1529.59997558594
712.380431818022	1530.59997558594
713.113037037454	1520.19995117188
713.845551118411	1522.40002441406
714.577974068818	1521.80004882813
715.310305896604	1521
716.042546609694	1522.19995117188
716.774696216013	1531.19995117188
717.506754723493	1552
718.238722140053	1551.80004882813
718.970598473624	1559.80004882813
719.702383732127	1565
720.43407792349	1565.40002441406
721.165681055634	1568.59997558594
721.897193136486	1562.59997558594
722.628614173966	1561
723.359944175997	1563.19995117188
724.091183150505	1549.59997558594
724.822331105412	1558
725.553388048638	1547.40002441406
726.284353988106	1541.40002441406
727.015228931734	1545
727.746012887449	1551.80004882813
728.476705863162	1545.59997558594
729.207307866803	1567
729.937818906289	1558
730.668238989535	1565.80004882813
731.398568124459	1555.40002441406
732.128806318986	1551
732.858953581034	1551.59997558594
733.589009918514	1557.80004882813
734.318975339348	1567.40002441406
735.048849851452	1569.40002441406
735.778633462744	1555.19995117188
736.508326181137	1563.59997558594
737.237928014549	1553
737.967438970897	1538.40002441406
738.696859058095	1543.40002441406
739.426188284054	1542.80004882813
740.155426656692	1519.40002441406
740.884574183922	1531.40002441406
741.613630873659	1539.80004882813
742.342596733815	1529.40002441406
743.071471772302	1545.80004882813
743.800255997034	1532.80004882813
744.528949415921	1550.59997558594
745.257552036877	1548.80004882813
745.986063867811	1528.40002441406
746.714484916638	1549.40002441406
747.442815191261	1550.80004882813
748.171054699597	1549.59997558594
748.899203449554	1547.80004882813
749.627261449039	1560.19995117188
750.355228705966	1571.19995117188
751.083105228239	1563.80004882813
751.810891023765	1569
752.538586100459	1579.19995117188
753.266190466218	1576.19995117188
753.99370412896	1576.59997558594
754.721127096582	1566.40002441406
755.448459377	1555.19995117188
756.175700978114	1543.19995117188
756.902851907828	1551.59997558594
757.629912174055	1551.19995117188
758.356881784688	1557
759.083760747639	1561.19995117188
759.810549070817	1555
760.537246762113	1563.80004882813
761.263853829442	1562.40002441406
761.990370280698	1577.19995117188
762.716796123791	1545.59997558594
763.443131366618	1544.40002441406
764.169376017082	1562
764.895530083085	1575
765.621593572527	1582.80004882813
766.347566493312	1592.40002441406
767.073448853336	1614.59997558594
767.799240660502	1603.59997558594
768.524941922707	1621
769.250552647854	1619.40002441406
769.976072843836	1639
770.701502518551	1631.80004882813
771.426841679905	1657.80004882813
772.152090335793	1670.40002441406
772.877248494107	1667.59997558594
773.602316162747	1667
774.327293349609	1660.80004882813
775.052180062592	1653.59997558594
775.776976309589	1662.59997558594
776.501682098496	1644.80004882813
777.226297437206	1635.59997558594
777.950822333616	1618.80004882813
778.675256795621	1625.80004882813
779.399600831111	1612.59997558594
780.123854447983	1606
780.84801765413	1600
781.572090457441	1589.19995117188
782.296072865811	1583.59997558594
783.019964887131	1586.80004882813
783.743766529297	1596
784.467477800194	1583
785.191098707719	1592
785.914629259756	1582.59997558594
786.638069464194	1567.40002441406
787.361419328932	1575.80004882813
788.084678861852	1571.19995117188
788.807848070845	1557.40002441406
789.530926963798	1564.40002441406
790.253915548602	1556.59997558594
790.976813833144	1554.80004882813
791.699621825307	1565
792.422339532986	1570.59997558594
793.144966964061	1561.59997558594
793.86750412642	1562.80004882813
794.589951027946	1551
795.312307676536	1565.19995117188
796.03457408006	1549.59997558594
796.756750246417	1547.59997558594
797.478836183477	1554.40002441406
798.200831899137	1552.80004882813
798.92273740127	1545.19995117188
799.644552697769	1562
800.36627779651	1559.80004882813
801.087912705374	1573.40002441406
801.809457432251	1574.80004882813
802.530911985017	1568.59997558594
803.252276371558	1565
803.973550599748	1575.80004882813
804.694734677472	1560.40002441406
805.415828612611	1573.40002441406
806.136832413045	1591.19995117188
806.857746086646	1570
807.578569641305	1564
808.299303084892	1560.80004882813
809.019946425289	1564
809.740499670372	1568.19995117188
810.460962828022	1558.19995117188
811.181335906114	1555.59997558594
811.901618912524	1570.19995117188
812.621811855131	1555.80004882813
813.341914741809	1548.40002441406
814.061927580433	1553
814.781850378881	1550.59997558594
815.501683145025	1565.59997558594
816.221425886743	1555
816.941078611903	1536
817.660641328387	1544.40002441406
818.380114044065	1531.59997558594
819.099496766808	1522.40002441406
819.818789504492	1532
820.53799226499	1522.80004882813
821.257105056168	1505
821.976127885904	1512.40002441406
822.695060762064	1529.40002441406
823.413903692525	1533.80004882813
824.132656685151	1538.80004882813
824.851319747817	1563
825.569892888388	1566.59997558594
826.288376114739	1579.40002441406
827.006769434737	1586
827.725072856249	1577.40002441406
828.443286387142	1556.19995117188
829.161410035285	1565.59997558594
829.87944380855	1547.59997558594
830.597387714798	1544.80004882813
831.315241761898	1563
832.033005957715	1571.80004882813
832.750680310119	1572.40002441406
833.468264826969	1589.40002441406
834.18575951614	1574
834.903164385486	1573.80004882813
835.620479442878	1587.80004882813
836.337704696181	1571.59997558594
837.054840153255	1563
837.771885821962	1558.40002441406
838.488841710172	1547.59997558594
839.20570782574	1553.19995117188
839.922484176531	1555.19995117188
840.639170770409	1544.59997558594
841.355767615231	1545.59997558594
842.072274718864	1560.40002441406
842.788692089164	1552
843.505019733993	1554.80004882813
844.221257661209	1559
844.937405878676	1571.40002441406
845.65346439425	1561.19995117188
846.369433215789	1552
847.085312351156	1536.80004882813
847.801101808205	1539.40002441406
848.516801594793	1528.40002441406
849.232411718781	1533.19995117188
849.947932188021	1510.40002441406
850.663363010376	1509.80004882813
851.378704193698	1525.59997558594
852.093955745842	1537
852.809117674669	1553.40002441406
853.524189988028	1565.80004882813
854.239172693778	1566.59997558594
854.954065799768	1561
855.668869313857	1560.19995117188
856.383583243899	1560.59997558594
857.098207597743	1565.59997558594
857.812742383246	1551.40002441406
858.527187608255	1551
859.241543280628	1546.59997558594
859.955809408218	1544.80004882813
860.669985998868	1550.80004882813
861.384073060437	1552.40002441406
862.098070600772	1569.19995117188
862.811978627724	1557.59997558594
863.52579714914	1560
864.239526172873	1558.19995117188
864.953165706776	1567.59997558594
865.666715758687	1548.80004882813
866.380176336464	1550.19995117188
867.093547447951	1544.19995117188
867.806829100996	1535.40002441406
868.520021303444	1544.19995117188
869.233124063149	1546
869.94613738795	1514.19995117188
870.659061285693	1528.80004882813
871.37189576423	1526.59997558594
872.084640831403	1533.19995117188
872.797296495057	1558.59997558594
873.509862763039	1556.80004882813
874.22233964319	1561.80004882813
874.934727143353	1539.80004882813
875.647025271374	1551.80004882813
876.359234035097	1542.80004882813
877.071353442361	1548.19995117188
877.783383501015	1539
878.495324218895	1560.59997558594
879.207175603844	1567.59997558594
879.918937663705	1563.40002441406
880.630610406318	1566.40002441406
881.342193839524	1568.59997558594
882.053687971161	1562.40002441406
882.765092809069	1569.40002441406
883.476408361091	1557.40002441406
884.187634635066	1539.80004882813
884.898771638828	1532.40002441406
885.609819380221	1540.40002441406
886.320777867076	1529
887.031647107236	1540
887.742427108536	1538.59997558594
888.453117878816	1546
889.16371942591	1551.59997558594
889.874231757652	1559.80004882813
890.584654881883	1558
891.294988806434	1554.40002441406
892.005233539141	1559.40002441406
892.715389087837	1550.80004882813
893.42545546036	1557
894.135432664543	1554.19995117188
894.845320708216	1559
895.555119599216	1569.19995117188
896.264829345375	1575.59997558594
896.974449954526	1579
897.683981434496	1586.19995117188
898.393423793125	1579.59997558594
899.102777038235	1581.80004882813
899.812041177664	1576.40002441406
900.521216219239	1571
901.230302170793	1558.80004882813
901.939299040155	1586.59997558594
902.64820683515	1574.59997558594
903.357025563612	1575.19995117188
904.065755233368	1581
904.774395852247	1577.40002441406
905.482947428076	1581
906.191409968682	1577.59997558594
906.899783481897	1570.19995117188
907.608067975538	1580.80004882813
908.316263457443	1583.40002441406
909.02436993543	1576.59997558594
909.732387417327	1570.19995117188
910.440315910959	1570.19995117188
911.148155424154	1562.80004882813
911.855905964731	1569.40002441406
912.563567540521	1563
913.271140159339	1565.59997558594
913.978623829017	1551.19995117188
914.686018557374	1555.19995117188
915.393324352237	1567.80004882813
916.100541221421	1558.59997558594
916.807669172752	1551
917.514708214054	1562.40002441406
918.221658353142	1557.80004882813
918.928519597843	1554.40002441406
919.635291955976	1551.40002441406
920.341975435358	1546.80004882813
921.048570043813	1559.59997558594
921.75507578916	1558.80004882813
922.461492679212	1558
923.167820721795	1564.80004882813
923.874059924726	1564.19995117188
924.58021029582	1562.59997558594
925.286271842893	1576
925.992244573769	1572
926.698128496262	1573.59997558594
927.403923618184	1575
928.109629947355	1567.59997558594
928.815247491593	1578.80004882813
929.520776258708	1571.19995117188
930.226216256519	1575.40002441406
930.931567492841	1566.80004882813
931.636829975482	1576.40002441406
932.342003712263	1560.40002441406
933.047088710995	1556.80004882813
933.752084979491	1543.19995117188
934.456992525564	1525.19995117188
935.161811357024	1518
935.866541481688	1516.59997558594
936.571182907363	1518.80004882813
937.275735641861	1531.59997558594
937.980199692995	1531.40002441406
938.684575068572	1535.19995117188
939.388861776411	1545.19995117188
940.093059824311	1559.59997558594
940.797169220085	1565
941.501189971544	1544.40002441406
942.205122086495	1537
942.908965572751	1534.40002441406
943.612720438111	1541.80004882813
944.316386690391	1546.80004882813
945.019964337391	1544.40002441406
945.723453386924	1544.59997558594
946.426853846795	1553
947.130165724808	1566.40002441406
947.83338902877	1549.40002441406
948.536523766488	1549
949.239569945764	1538.40002441406
949.942527574402	1552.40002441406
950.64539666021	1540.80004882813
951.348177210993	1547
952.050869234548	1521.80004882813
952.753472738683	1516.59997558594
953.455987731199	1529.40002441406
954.158414219898	1527.40002441406
954.860752212587	1541.19995117188
955.563001717061	1540.40002441406
956.265162741124	1536.40002441406
956.967235292576	1534.80004882813
957.669219379224	1535
958.371115008857	1525.40002441406
959.072922189283	1514.19995117188
959.774640928301	1508.40002441406
960.476271233708	1521
961.177813113301	1513.59997558594
961.879266574882	1508.59997558594
962.580631626248	1518.80004882813
963.281908275194	1513.40002441406
963.98309652952	1515.80004882813
964.684196397022	1516
965.3852078855	1514.40002441406
966.086131002745	1523
966.786965756555	1521.59997558594
967.487712154726	1534
968.188370205055	1526.19995117188
968.888939915331	1534
969.589421293352	1540.80004882813
970.289814346909	1551.80004882813
970.990119083801	1549.19995117188
971.690335511819	1560.40002441406
972.39046363875	1561.80004882813
973.090503472398	1556.80004882813
973.790455020545	1566
974.490318290987	1559
975.190093291516	1560.19995117188
975.889780029923	1548.19995117188
976.589378513998	1558.40002441406
977.288888751527	1573.59997558594
977.988310750308	1554.19995117188
978.687644518122	1555.40002441406
979.386890062767	1559
980.086047392025	1538.59997558594
980.785116513689	1537
981.484097435542	1531
982.182990165377	1543.80004882813
982.88179471098	1538.80004882813
983.580511080137	1535.80004882813
984.279139280632	1531
984.977679320253	1531
985.67613120679	1524.59997558594
986.374494948027	1531.19995117188
987.072770551745	1529.19995117188
987.770958025731	1532.40002441406
988.469057377772	1532.80004882813
989.167068615649	1527.19995117188
989.864991747145	1515.19995117188
990.562826780047	1516.80004882813
991.260573722134	1520
991.958232581195	1529.19995117188
992.655803365003	1526
993.353286081346	1523.19995117188
994.050680738006	1535.80004882813
994.74798734276	1547.19995117188
995.44520590339	1555.59997558594
996.142336427681	1553.59997558594
996.839378923407	1551
997.536333398348	1563
998.233199860289	1549.80004882813
998.929978317004	1529.19995117188
999.626668776274	1520
1000.32327124587	1533.59997558594
1001.01978573359	1528
1001.71621224718	1530.40002441406
1002.41255079445	1537.59997558594
1003.10880138315	1524
1003.80496402107	1531.40002441406
1004.50103871599	1542.19995117188
1005.19702547567	1552.19995117188
1005.8929243079	1565.19995117188
1006.58873522045	1570.19995117188
1007.2844582211	1558.80004882813
1007.98009331761	1562.59997558594
1008.67564051776	1551.40002441406
1009.37109982933	1544.40002441406
1010.06647126009	1554.80004882813
1010.7617548178	1545.59997558594
1011.45695051026	1540.80004882813
1012.15205834522	1533
1012.84707833045	1528.19995117188
1013.54201047373	1523.59997558594
1014.23685478284	1528
1014.93161126553	1529.59997558594
1015.62627992959	1543.40002441406
1016.32086078277	1525.19995117188
1017.01535383285	1530
1017.70975908761	1526.40002441406
1018.40407655479	1552
1019.09830624219	1529.59997558594
1019.79244815755	1528.80004882813
1020.48650230866	1531.80004882813
1021.18046870328	1531.59997558594
1021.87434734917	1533.59997558594
1022.56813825411	1526.59997558594
1023.26184142584	1544.80004882813
1023.95545687216	1546.80004882813
1024.64898460082	1527.40002441406
1025.34242461957	1525.19995117188
1026.0357769362	1520.59997558594
1026.72904155846	1516.40002441406
1027.42221849412	1532
1028.11530775094	1532
1028.80830933668	1539.19995117188
1029.50122325911	1539.59997558594
1030.19404952599	1538.40002441406
1030.88678814508	1540.19995117188
1031.57943912414	1529
1032.27200247093	1525
1032.96447819323	1513.80004882813
1033.65686629878	1512.59997558594
1034.34916679534	1521.80004882813
1035.04137969068	1527.59997558594
1035.73350499256	1529.80004882813
1036.42554270874	1515.40002441406
1037.11749284697	1517.80004882813
1037.80935541501	1521
1038.50113042062	1524.19995117188
1039.19281787156	1534.19995117188
1039.88441777559	1523.80004882813
1040.57593014046	1540.40002441406
1041.26735497393	1538
1041.95869228376	1539.59997558594
1042.6499420777	1543
1043.3411043635	1529.19995117188
1044.03217914893	1528.40002441406
1044.72316644174	1524.80004882813
1045.41406624968	1536.80004882813
1046.1048785805	1534.40002441406
1046.79560344197	1525.40002441406
1047.48624084182	1518.59997558594
1048.17679078783	1504.80004882813
1048.86725328774	1518.40002441406
1049.55762834929	1494
1050.24791598025	1505.19995117188
1050.93811618837	1497
1051.62822898139	1505.40002441406
1052.31825436707	1523.19995117188
1053.00819235315	1501.40002441406
1053.6980429474	1508.80004882813
1054.38780615755	1499.59997558594
1055.07748199136	1511.19995117188
1055.76707045658	1503.19995117188
1056.45657156095	1501.59997558594
1057.14598531222	1492.80004882813
1057.83531171814	1492.19995117188
1058.52455078646	1502.40002441406
1059.21370252494	1507.40002441406
1059.90276694129	1528.80004882813
1060.5917440433	1528.59997558594
1061.28063383868	1539.59997558594
1061.9694363352	1532.19995117188
1062.65815154059	1517
1063.34677946261	1512.59997558594
1064.03532010899	1501.80004882813
1064.72377348748	1491.59997558594
1065.41213960583	1493.80004882813
1066.10041847177	1489.80004882813
1066.78861009306	1487.80004882813
1067.47671447743	1498
1068.16473163263	1493.80004882813
1068.85266156639	1501.40002441406
1069.54050428647	1522.59997558594
1070.2282598006	1522.80004882813
1070.91592811652	1527.19995117188
1071.60350924198	1522.40002441406
1072.29100318471	1530.59997558594
1072.97840995245	1512.40002441406
1073.66572955295	1507.80004882813
1074.35296199394	1522.19995117188
1075.04010728316	1501.59997558594
1075.72716542836	1505.19995117188
1076.41413643726	1510
1077.10102031761	1520.19995117188
1077.78781707715	1505.19995117188
1078.4745267236	1507.40002441406
1079.16114926471	1518.80004882813
1079.84768470822	1512.40002441406
1080.53413306185	1529.19995117188
1081.22049433336	1524.80004882813
1081.90676853046	1516.40002441406
1082.5929556609	1537.80004882813
1083.27905573241	1532.19995117188
1083.96506875272	1525.19995117188
1084.65099472957	1520.80004882813
1085.3368336707	1509.59997558594
1086.02258558383	1509.19995117188
1086.70825047669	1495.59997558594
1087.39382835703	1498.40002441406
1088.07931923257	1509.80004882813
1088.76472311104	1503.59997558594
1089.45004000018	1525.40002441406
1090.13526990771	1530.80004882813
1090.82041284137	1535.80004882813
1091.50546880889	1546.80004882813
1092.19043781799	1556.19995117188
1092.87531987642	1546.19995117188
1093.56011499188	1536.59997558594
1094.24482317212	1514.19995117188
1094.92944442486	1480.59997558594
1095.61397875783	1485
1096.29842617876	1483.59997558594
1096.98278669537	1470.59997558594
1097.6670603154	1485
1098.35124704656	1491.40002441406
1099.03534689659	1499.40002441406
1099.71935987322	1521.40002441406
1100.40328598416	1516.19995117188
1101.08712523713	1526.80004882813
1101.77087763988	1527.80004882813
1102.45454320012	1531.59997558594
1103.13812192557	1537.19995117188
1103.82161382396	1538
1104.50501890301	1523.19995117188
1105.18833717045	1521.19995117188
1105.87156863399	1526.19995117188
1106.55471330137	1504.59997558594
1107.2377711803	1525
1107.9207422785	1546.19995117188
1108.60362660369	1549.40002441406
1109.2864241636	1553.19995117188
1109.96913496594	1538.80004882813
1110.65175901844	1533.59997558594
1111.33429632882	1529.59997558594
1112.01674690479	1530.59997558594
1112.69911075408	1521.59997558594
1113.38138788439	1518.19995117188
1114.06357830346	1511.40002441406
1114.745682019	1502.19995117188
1115.42769903872	1519.59997558594
1116.10962937035	1524.59997558594
1116.7914730216	1545.19995117188
1117.47323000018	1530.40002441406
1118.15490031382	1531.59997558594
1118.83648397022	1538.40002441406
1119.51798097712	1541.80004882813
1120.1993913422	1526.19995117188
1120.88071507321	1519.40002441406
1121.56195217784	1501.19995117188
1122.24310266381	1490.80004882813
1122.92416653884	1498.19995117188
1123.60514381064	1513.80004882813
1124.28603448692	1518.19995117188
1124.9668385754	1543.19995117188
1125.64755608378	1547
1126.32818701978	1538.19995117188
1127.00873139111	1538
1127.68918920548	1537.19995117188
1128.3695604706	1550.80004882813
1129.04984519419	1549.40002441406
1129.73004338394	1537.19995117188
1130.41015504758	1522
1131.09018019281	1518.59997558594
1131.77011882734	1513.19995117188
1132.44997095888	1505.59997558594
1133.12973659514	1511.19995117188
1133.80941574381	1514.59997558594
1134.48900841263	1511.80004882813
1135.16851460927	1512.59997558594
1135.84793434147	1513.59997558594
1136.52726761692	1500.19995117188
1137.20651444333	1491.19995117188
1137.8856748284	1485.59997558594
1138.56474877984	1478.40002441406
1139.24373630536	1489.80004882813
1139.92263741265	1478
1140.60145210943	1501.40002441406
1141.28018040339	1522.40002441406
1141.95882230225	1518.19995117188
1142.6373778137	1529.40002441406
1143.31584694545	1524.40002441406
1143.99422970519	1526.40002441406
1144.67252610064	1536.80004882813
1145.35073613949	1524.80004882813
1146.02885982944	1518.59997558594
1146.7068971782	1503
1147.38484819347	1502.80004882813
1148.06271288294	1500.19995117188
1148.74049125432	1501
1149.41818331531	1512.40002441406
1150.0957890736	1522.59997558594
1150.77330853689	1517.40002441406
1151.45074171289	1520.40002441406
1152.12808860928	1512.59997558594
1152.80534923378	1521.19995117188
1153.48252359407	1510.59997558594
1154.15961169786	1485.59997558594
1154.83661355283	1492.59997558594
1155.51352916669	1479
1156.19035854713	1487.40002441406
1156.86710170185	1503.40002441406
1157.54375863855	1504.59997558594
1158.22032936491	1501
1158.89681388863	1501
1159.57321221741	1516.19995117188
1160.24952435894	1515.59997558594
1160.92575032092	1530.80004882813
1161.60189011103	1533.59997558594
1162.27794373697	1518.19995117188
1162.95391120644	1499.19995117188
1163.62979252712	1502
1164.3055877067	1496.19995117188
1164.98129675288	1505.40002441406
1165.65691967336	1511.40002441406
1166.33245647581	1507.40002441406
1167.00790716792	1521.40002441406
1167.6832717574	1506.40002441406
1168.35855025193	1503.80004882813
1169.0337426592	1497.19995117188
1169.70884898689	1487
1170.3838692427	1492.40002441406
1171.05880343431	1485.59997558594
1171.73365156941	1494.40002441406
1172.40841365569	1504.19995117188
1173.08308970083	1515.80004882813
1173.75767971253	1534.59997558594
1174.43218369847	1535.40002441406
1175.10660166633	1523.59997558594
1175.7809336238	1503.59997558594
1176.45517957857	1522
1177.12933953832	1514.40002441406
1177.80341351073	1498.19995117188
1178.47740150349	1496
1179.15130352429	1504.59997558594
1179.8251195808	1525.80004882813
1180.49884968071	1537.40002441406
1181.1724938317	1538.59997558594
1181.84605204145	1537
1182.51952431766	1522.40002441406
1183.19291066799	1518.80004882813
1183.86621110013	1530
1184.53942562176	1535.80004882813
1185.21255424057	1522.19995117188
1185.88559696422	1516.40002441406
1186.55855380041	1527.59997558594
1187.2314247568	1522.40002441406
1187.90420984109	1523.40002441406
1188.57690906095	1532
1189.24952242405	1560.80004882813
1189.92204993808	1537.19995117188
1190.59449161071	1544.40002441406
1191.26684744962	1544.59997558594
1191.93911746249	1534.19995117188
1192.61130165699	1521.40002441406
1193.28340004081	1524.80004882813
1193.95541262161	1520.59997558594
1194.62733940707	1509.19995117188
1195.29918040487	1515.19995117188
1195.97093562269	1512
1196.64260506819	1523.19995117188
1197.31418874905	1521
1197.98568667295	1507.40002441406
1198.65709884755	1520.59997558594
1199.32842528053	1513.40002441406
1199.99966597957	1505.40002441406
1200.67082095234	1497.19995117188
1201.3418902065	1476.80004882813
1202.01287374974	1483.40002441406
1202.68377158971	1480.80004882813
1203.3545837341	1495
1204.02531019057	1507.40002441406
1204.6959509668	1491.59997558594
1205.36650607045	1494.19995117188
1206.03697550919	1505.40002441406
1206.70735929069	1506.80004882813
1207.37765742263	1493
1208.04786991266	1511.19995117188
1208.71799676846	1512.40002441406
1209.38803799769	1512.59997558594
1210.05799360803	1511.40002441406
1210.72786360714	1516
1211.39764800268	1510.80004882813
1212.06734680233	1499.80004882813
1212.73696001375	1502.80004882813
1213.4064876446	1493
1214.07592970255	1501.19995117188
1214.74528619526	1503.19995117188
1215.4145571304	1503.59997558594
1216.08374251564	1516
1216.75284235863	1499.80004882813
1217.42185666704	1495.80004882813
1218.09078544854	1468.40002441406
1218.75962871078	1469
1219.42838646143	1465.80004882813
1220.09705870816	1451
1220.76564545861	1472.80004882813
1221.43414672046	1479.59997558594
1222.10256250136	1495.40002441406
1222.77089280898	1499.19995117188
1223.43913765098	1497.80004882813
1224.107297035	1507.19995117188
1224.77537096873	1506.19995117188
1225.44335945981	1496.59997558594
1226.1112625159	1506.59997558594
1226.77908014467	1482
1227.44681235376	1473.59997558594
1228.11445915085	1476
1228.78202054357	1473.80004882813
1229.44949653961	1495.40002441406
1230.11688714659	1477.80004882813
1230.7841923722	1479.80004882813
1231.45141222407	1471.40002441406
1232.11854670988	1484.59997558594
1232.78559583726	1464.80004882813
1233.45255961388	1477.19995117188
1234.1194380474	1485
1234.78623114546	1493.19995117188
1235.45293891572	1493.80004882813
1236.11956136583	1493
1236.78609850345	1505
1237.45255033623	1476.59997558594
1238.11891687182	1481.40002441406
1238.78519811788	1479
1239.45139408205	1467.59997558594
1240.11750477198	1481.80004882813
1240.78353019534	1490.19995117188
1241.44947035976	1473.19995117188
1242.11532527291	1468.80004882813
1242.78109494242	1472.40002441406
1243.44677937595	1467.19995117188
1244.11237858115	1468
1244.77789256567	1468
1245.44332133715	1469.59997558594
1246.10866490325	1468.59997558594
1246.7739232716	1474.80004882813
1247.43909644987	1490
1248.10418444569	1478.80004882813
1248.76918726671	1485.59997558594
1249.43410492059	1479.80004882813
1250.09893741496	1463.80004882813
1250.76368475747	1453.19995117188
1251.42834695576	1477.40002441406
1252.09292401749	1469.80004882813
1252.75741595029	1479.40002441406
1253.42182276182	1476
1254.08614445971	1481.59997558594
1254.75038105161	1476
1255.41453254515	1492.80004882813
1256.07859894799	1487.80004882813
1256.74258026777	1465.59997558594
1257.40647651213	1457.80004882813
1258.0702876887	1467
1258.73401380514	1469.40002441406
1259.39765486908	1466.40002441406
1260.06121088817	1479.40002441406
1260.72468187004	1474.40002441406
1261.38806782233	1480.19995117188
1262.05136875269	1490
1262.71458466875	1477.59997558594
1263.37771557815	1481.59997558594
1264.04076148854	1476.40002441406
1264.70372240753	1476
1265.3665983428	1478.40002441406
1266.02938930195	1472.80004882813
1266.69209529263	1469.19995117188
1267.35471632249	1469.80004882813
1268.01725239914	1483.19995117188
1268.67970353024	1477.80004882813
1269.34206972342	1471.19995117188
1270.00435098631	1465
1270.66654732655	1463.80004882813
1271.32865875177	1457.59997558594
1271.9906852696	1457.40002441406
1272.65262688768	1457.40002441406
1273.31448361365	1474.19995117188
1273.97625545514	1483.19995117188
1274.63794241978	1473.40002441406
1275.2995445152	1464.19995117188
1275.96106174903	1474
1276.62249412892	1489.59997558594
1277.28384166248	1483.59997558594
1277.94510435735	1482.40002441406
1278.60628222116	1493.19995117188
1279.26737526155	1481.59997558594
1279.92838348613	1476
1280.58930690255	1476.19995117188
1281.25014551842	1464.40002441406
1281.91089934139	1464.19995117188
1282.57156837907	1464.80004882813
1283.2321526391	1464.40002441406
1283.89265212911	1468
1284.55306685671	1470.59997558594
1285.21339682955	1448.59997558594
1285.87364205525	1446
1286.53380254142	1433.59997558594
1287.19387829571	1443
1287.85386932573	1436.19995117188
1288.51377563911	1459.40002441406
1289.17359724348	1469.59997558594
1289.83333414646	1481
1290.49298635567	1472.40002441406
1291.15255387874	1473
1291.8120367233	1488.19995117188
1292.47143489696	1479.59997558594
1293.13074840736	1473.19995117188
1293.7899772621	1474
1294.44912146882	1463.19995117188
1295.10818103513	1450.80004882813
1295.76715596866	1451.80004882813
1296.42604627704	1462.80004882813
1297.08485196787	1474.19995117188
1297.74357304878	1487.19995117188
1298.4022095274	1483.40002441406
1299.06076141134	1490.59997558594
1299.71922870821	1498.59997558594
1300.37761142565	1501.19995117188
1301.03590957126	1504.19995117188
1301.69412315268	1502.80004882813
1302.3522521775	1493.19995117188
1303.01029665336	1494
1303.66825658787	1478.19995117188
1304.32613198865	1484.59997558594
1304.98392286332	1485.59997558594
1305.64162921948	1496
1306.29925106476	1517.40002441406
1306.95678840677	1508.80004882813
1307.61424125312	1507
1308.27160961145	1500.59997558594
1308.92889348934	1487.80004882813
1309.58609289443	1492.19995117188
1310.24320783432	1486.40002441406
1310.90023831664	1491.40002441406
1311.55718434898	1482.59997558594
1312.21404593897	1481.19995117188
1312.87082309421	1484.59997558594
1313.52751582233	1484.40002441406
1314.18412413092	1482.80004882813
1314.84064802761	1480.40002441406
1315.49708752	1468.19995117188
1316.1534426157	1477.59997558594
1316.80971332233	1489.40002441406
1317.46589964749	1490
1318.1220015988	1486.19995117188
1318.77801918386	1492.40002441406
1319.43395241028	1488
1320.08980128567	1495.19995117188
1320.74556581764	1488.80004882813
1321.4012460138	1483.59997558594
1322.05684188176	1492.40002441406
1322.71235342911	1476.80004882813
1323.36778066347	1472.40002441406
1324.02312359245	1473
1324.67838222365	1482.19995117188
1325.33355656468	1493.59997558594
1325.98864662314	1488.59997558594
1326.64365240663	1487.19995117188
1327.29857392277	1482.19995117188
1327.95341117915	1468
1328.60816418339	1478.59997558594
1329.26283294308	1476.19995117188
1329.91741746582	1470
1330.57191775923	1453.59997558594
1331.2263338309	1449.59997558594
1331.88066568843	1444
1332.53491333943	1435.59997558594
1333.1890767915	1442
1333.84315605224	1447.80004882813
1334.49715112925	1463.19995117188
1335.15106203013	1467
1335.80488876249	1453.40002441406
1336.45863133391	1455.40002441406
1337.112289752	1462.19995117188
1337.76586402437	1452.40002441406
1338.4193541586	1457.59997558594
1339.0727601623	1465.19995117188
1339.72608204306	1471.40002441406
1340.37931980849	1461.19995117188
1341.03247346617	1460.19995117188
1341.68554302372	1449.80004882813
1342.33852848871	1442.40002441406
1342.99142986876	1447.19995117188
1343.64424717145	1444.59997558594
1344.29698040438	1458.80004882813
1344.94962957515	1447.40002441406
1345.60219469135	1460
1346.25467576058	1475.40002441406
1346.90707279042	1482.40002441406
1347.55938578848	1480.80004882813
1348.21161476235	1475.19995117188
1348.86375971962	1480.80004882813
1349.51582066787	1483.19995117188
1350.16779761472	1496
1350.81969056774	1496.80004882813
1351.47149953453	1517
1352.12322452269	1521.80004882813
1352.77486553979	1520.59997558594
1353.42642259344	1507.80004882813
1354.07789569122	1515.80004882813
1354.72928484072	1517.40002441406
1355.38059004953	1550.80004882813
1356.03181132525	1542.80004882813
1356.68294867545	1557.40002441406
1357.33400210773	1551.59997558594
1357.98497162968	1542
1358.63585724889	1545.40002441406
1359.28665897294	1544.80004882813
1359.93737680942	1545.80004882813
1360.58801076591	1555.80004882813
1361.23856085001	1548.80004882813
1361.88902706929	1549.59997558594
1362.53940943135	1548.59997558594
1363.18970794377	1545.40002441406
1363.83992261413	1557.19995117188
1364.49005345003	1561.19995117188
1365.14010045904	1543.19995117188
1365.79006364874	1554.80004882813
1366.43994302673	1549.80004882813
1367.08973860058	1550
1367.73945037788	1539.59997558594
1368.38907836621	1537
1369.03862257315	1528.80004882813
1369.68808300629	1512.40002441406
1370.3374596732	1511.19995117188
1370.98675258148	1512.59997558594
1371.63596173868	1509.40002441406
1372.28508715241	1498
1372.93412883024	1490.40002441406
1373.58308677974	1482
1374.2319610085	1462.40002441406
1374.8807515241	1458.19995117188
1375.52945833412	1455
1376.17808144612	1444.40002441406
1376.82662086771	1424
1377.47507660644	1426.59997558594
1378.12344866989	1430.59997558594
1378.77173706565	1440.80004882813
1379.41994180129	1434
1380.06806288439	1442.40002441406
1380.71610032252	1436.80004882813
1381.36405412326	1438
1382.01192429419	1440.59997558594
1382.65971084287	1448
1383.30741377688	1455.19995117188
1383.95503310381	1440.40002441406
1384.60256883121	1456.59997558594
1385.25002096667	1453.19995117188
1385.89738951775	1453.19995117188
1386.54467449204	1429.59997558594
1387.19187589709	1438.59997558594
1387.8389937405	1419.80004882813
1388.48602802982	1425
1389.13297877262	1440
1389.77984597649	1439
1390.42662964899	1437.40002441406
1391.07332979768	1436.80004882813
1391.71994643015	1439.59997558594
1392.36647955395	1443.59997558594
1393.01292917667	1432.80004882813
1393.65929530586	1440.19995117188
1394.3055779491	1444.59997558594
1394.95177711395	1439.40002441406
1395.59789280799	1440.40002441406
1396.24392503877	1443.59997558594
1396.88987381387	1439.19995117188
1397.53573914086	1438.80004882813
1398.1815210273	1438
1398.82721948075	1415.80004882813
1399.47283450878	1433.80004882813
1400.11836611897	1431.59997558594
1400.76381431886	1427.59997558594
1401.40917911603	1414
1402.05446051805	1396
1402.69965853247	1388.19995117188
1403.34477316686	1394.59997558594
1403.98980442878	1384.19995117188
1404.6347523258	1409.80004882813
1405.27961686548	1403.80004882813
1405.92439805538	1409.40002441406
1406.56909590306	1415.40002441406
1407.21371041608	1416
1407.85824160202	1421
1408.50268946841	1426.19995117188
1409.14705402284	1421.40002441406
1409.79133527285	1416.19995117188
1410.43553322601	1430
1411.07964788987	1436.19995117188
1411.723679272	1445
1412.36762737996	1432
1413.01149222129	1434.80004882813
1413.65527380357	1452
1414.29897213435	1441
1414.94258722118	1436.80004882813
1415.58611907163	1427.40002441406
1416.22956769325	1439.19995117188
1416.87293309359	1422.19995117188
1417.51621528021	1423
1418.15941426067	1439.59997558594
1418.80253004253	1428.40002441406
1419.44556263333	1428.19995117188
1420.08851204063	1431.59997558594
1420.731378272	1441.19995117188
1421.37416133497	1440
1422.0168612371	1458
1422.65947798596	1439.40002441406
1423.30201158908	1443
1423.94446205403	1440.40002441406
1424.58682938835	1436.19995117188
1425.2291135996	1444.19995117188
1425.87131469532	1445.80004882813
1426.51343268308	1440.19995117188
1427.15546757042	1443.80004882813
1427.79741936488	1445
1428.43928807403	1437.80004882813
1429.0810737054	1424.40002441406
1429.72277626656	1412.59997558594
1430.36439576504	1411
1431.00593220841	1402
1431.64738560419	1403.19995117188
1432.28875595995	1411.59997558594
1432.93004328324	1403.80004882813
1433.57124758159	1409
1434.21236886255	1411.19995117188
1434.85340713368	1415.59997558594
1435.49436240252	1422
1436.13523467661	1419.40002441406
1436.77602396349	1431
1437.41673027073	1436.40002441406
1438.05735360585	1438.40002441406
1438.69789397641	1434.80004882813
1439.33835138994	1416.59997558594
1439.978725854	1432.59997558594
1440.61901737612	1414.80004882813
1441.25922596385	1418.59997558594
1441.89935162473	1427
1442.53939436631	1418.40002441406
1443.17935419612	1392
1443.81923112171	1392
1444.45902515061	1391
1445.09873629038	1396.19995117188
1445.73836454854	1396.40002441406
1446.37790993265	1385.40002441406
1447.01737245024	1383.80004882813
1447.65675210885	1379
1448.29604891602	1389.59997558594
1448.93526287928	1396.59997558594
1449.57439400618	1403
1450.21344230426	1390.80004882813
1450.85240778105	1391.19995117188
1451.49129044409	1404.59997558594
1452.13009030092	1412.80004882813
1452.76880735907	1415.59997558594
1453.40744162608	1421.59997558594
1454.04599310949	1425.19995117188
1454.68446181683	1422.59997558594
1455.32284775564	1423.40002441406
1455.96115093345	1433.40002441406
1456.5993713578	1415
1457.23750903623	1412.40002441406
1457.87556397626	1389.40002441406
1458.51353618543	1405.59997558594
1459.15142567127	1390.80004882813
1459.78923244132	1400.19995117188
1460.42695650311	1409.40002441406
1461.06459786417	1402.80004882813
1461.70215653203	1394.80004882813
1462.33963251423	1394.80004882813
1462.97702581829	1398.80004882813
1463.61433645175	1391.40002441406
1464.25156442214	1393.19995117188
1464.88870973699	1412.19995117188
1465.52577240382	1400.19995117188
1466.16275243017	1395
1466.79964982356	1383.80004882813
1467.43646459154	1399.19995117188
1468.07319674161	1395.59997558594
1468.70984628132	1403
1469.34641321818	1408.80004882813
1469.98289755974	1406.59997558594
1470.6192993135	1408.19995117188
1471.25561848701	1406.19995117188
1471.89185508779	1423.80004882813
1472.52800912336	1414.59997558594
1473.16408060124	1417.59997558594
1473.80006952897	1413.40002441406
1474.43597591407	1405.80004882813
1475.07179976406	1392.59997558594
1475.70754108647	1397.19995117188
1476.34319988883	1403.59997558594
1476.97877617865	1418.80004882813
1477.61426996345	1414.19995117188
1478.24968125077	1415.19995117188
1478.88501004812	1428
1479.52025636303	1423.80004882813
1480.15542020302	1423.40002441406
1480.79050157561	1426
1481.42550048832	1417.80004882813
1482.06041694867	1410
1482.69525096418	1414.19995117188
1483.33000254237	1410.59997558594
1483.96467169077	1408.19995117188
1484.59925841689	1404.40002441406
1485.23376272825	1399.19995117188
1485.86818463237	1404.40002441406
1486.50252413677	1401.80004882813
1487.13678124896	1404.19995117188
1487.77095597646	1407.40002441406
1488.4050483268	1421
1489.03905830749	1397.19995117188
1489.67298592604	1412.40002441406
1490.30683118996	1422
1490.9405941068	1410
1491.57427468403	1413.59997558594
1492.2078729292	1418.59997558594
1492.84138884981	1416.40002441406
1493.47482245338	1426.40002441406
1494.10817374742	1419.80004882813
1494.74144273944	1421.19995117188
1495.37462943696	1421
1496.0077338475	1429.19995117188
1496.64075597856	1427
1497.27369583765	1433.19995117188
1497.9065534323	1426.59997558594
1498.53932877001	1418.80004882813
1499.17202185829	1400.80004882813
1499.80463270465	1392.19995117188
1500.43716131661	1389.40002441406
1501.06960770167	1382
1501.70197186735	1394.80004882813
1502.33425382116	1395.59997558594
1502.96645357059	1391.59997558594
1503.59857112317	1405.59997558594
1504.23060648641	1391.40002441406
1504.8625596678	1396.40002441406
1505.49443067486	1422.19995117188
1506.1262195151	1414
1506.75792619602	1408.80004882813
1507.38955072513	1426.59997558594
1508.02109310993	1433
1508.65255335794	1425.59997558594
1509.28393147666	1426.80004882813
1509.91522747359	1419.19995117188
1510.54644135624	1390
1511.17757313212	1410.19995117188
1511.80862280872	1405.80004882813
1512.43959039356	1410.59997558594
1513.07047589413	1420.19995117188
1513.70127931795	1422
1514.33200067251	1426.19995117188
1514.96263996531	1409.80004882813
1515.59319720386	1411.19995117188
1516.22367239567	1395.40002441406
1516.85406554822	1404.19995117188
1517.48437666903	1383.59997558594
1518.1146057656	1394.59997558594
1518.74475284542	1391.80004882813
1519.374817916	1390
1520.00480098483	1396
1520.63470205942	1401.80004882813
1521.26452114726	1394.80004882813
1521.89425825586	1397.59997558594
1522.52391339271	1373.80004882813
1523.15348656531	1390.40002441406
1523.78297778116	1382.59997558594
1524.41238704775	1373.40002441406
1525.04171437259	1375.80004882813
1525.67095976317	1361.40002441406
1526.30012322699	1367.40002441406
1526.92920477154	1361.59997558594
1527.55820440432	1372.19995117188
1528.18712213283	1351.19995117188
1528.81595796455	1341.59997558594
1529.44471190699	1346.19995117188
1530.07338396764	1338.80004882813
1530.70197415399	1343.59997558594
1531.33048247353	1343.59997558594
1531.95890893377	1359.40002441406
1532.58725354219	1357
1533.21551630629	1358.19995117188
1533.84369723356	1373.80004882813
1534.47179633148	1372
1535.09981360757	1378.59997558594
1535.72774906929	1386.40002441406
1536.35560272415	1385.80004882813
1536.98337457963	1386
1537.61106464323	1391
1538.23867292243	1409.19995117188
1538.86619942473	1387
1539.49364415762	1387
1540.12100712857	1379.59997558594
1540.74828834509	1381.19995117188
1541.37548781466	1386.59997558594
1542.00260554478	1386.59997558594
1542.62964154291	1383.59997558594
1543.25659581655	1371.59997558594
1543.8834683732	1372.59997558594
1544.51025922034	1354.19995117188
1545.13696836544	1366.40002441406
1545.76359581601	1366.40002441406
1546.39014157952	1367.19995117188
1547.01660566345	1362.80004882813
1547.64298807531	1353
1548.26928882255	1363.80004882813
1548.89550791269	1370.19995117188
1549.52164535318	1373
1550.14770115153	1377.19995117188
1550.77367531521	1361.80004882813
1551.39956785171	1359.19995117188
1552.0253787685	1361.40002441406
1552.65110807307	1374.59997558594
1553.2767557729	1373.80004882813
1553.90232187548	1369.19995117188
1554.52780638828	1372.80004882813
1555.15320931879	1376.19995117188
1555.77853067447	1383.59997558594
1556.40377046282	1375.80004882813
1557.02892869132	1383.40002441406
1557.65400536744	1373.59997558594
1558.27900049866	1367.59997558594
1558.90391409247	1375.19995117188
1559.52874615633	1373.80004882813
1560.15349669773	1380.59997558594
1560.77816572414	1388.19995117188
1561.40275324305	1394.19995117188
1562.02725926192	1389.19995117188
1562.65168378824	1398.19995117188
1563.27602682948	1388.40002441406
1563.90028839311	1386.19995117188
1564.52446848662	1388.59997558594
1565.14856711748	1400.40002441406
1565.77258429316	1397
1566.39652002113	1393.80004882813
1567.02037430887	1403.19995117188
1567.64414716387	1397.59997558594
1568.26783859357	1405.80004882813
1568.89144860547	1399
1569.51497720703	1395.40002441406
1570.13842440573	1380
1570.76179020904	1380.59997558594
1571.38507462442	1384.19995117188
1572.00827765936	1386.59997558594
1572.63139932132	1382.19995117188
1573.25443961777	1381.59997558594
1573.87739855618	1375
1574.50027614402	1370.59997558594
1575.12307238877	1375
1575.74578729789	1376.59997558594
1576.36842087885	1379
1576.99097313912	1391
1577.61344408616	1394.59997558594
1578.23583372745	1396.80004882813
1578.85814207046	1385.80004882813
1579.48036912264	1375
1580.10251489147	1373
1580.72457938441	1362
1581.34656260893	1362.59997558594
1581.9684645725	1356.40002441406
1582.59028528258	1364
1583.21202474663	1371.80004882813
1583.83368297212	1368.40002441406
1584.45525996652	1355
1585.07675573728	1352.19995117188
1585.69817029188	1353.59997558594
1586.31950363778	1347.19995117188
1586.94075578243	1346.59997558594
1587.5619267333	1339
1588.18301649786	1342.40002441406
1588.80402508357	1345.59997558594
1589.42495249788	1341.40002441406
1590.04579874826	1345.19995117188
1590.66656384217	1338.80004882813
1591.28724778707	1317.40002441406
1591.90785059042	1308.40002441406
1592.52837225968	1322.19995117188
1593.14881280232	1322.59997558594
1593.76917222578	1323
1594.38945053753	1329.19995117188
1595.00964774502	1333.19995117188
1595.62976385573	1337.19995117188
1596.24979887709	1348.80004882813
1596.86975281657	1338.80004882813
1597.48962568164	1347.19995117188
1598.10941747974	1349
1598.72912821832	1350.80004882813
1599.34875790486	1341.19995117188
1599.9683065468	1328.80004882813
1600.58777415159	1335.80004882813
1601.2071607267	1336.80004882813
1601.82646627958	1326.80004882813
1602.44569081769	1328.59997558594
1603.06483434846	1326.19995117188
1603.68389687937	1320
1604.30287841786	1310.19995117188
1604.92177897139	1310.40002441406
1605.54059854741	1296.80004882813
1606.15933715337	1292.19995117188
1606.77799479672	1298.80004882813
1607.39657148492	1309
1608.01506722542	1317.40002441406
1608.63348202566	1313
1609.2518158931	1319.59997558594
1609.87006883519	1312.19995117188
1610.48824085939	1312
1611.10633197312	1309.80004882813
1611.72434218386	1320.19995117188
1612.34227149904	1321.19995117188
1612.96011992612	1326.19995117188
1613.57788747254	1314.59997558594
1614.19557414575	1300.19995117188
1614.8131799532	1298.80004882813
1615.43070490234	1304
1616.04814900061	1300.19995117188
1616.66551225545	1288.80004882813
1617.28279467433	1290
1617.89999626467	1293.40002441406
1618.51711703393	1295.80004882813
1619.13415698955	1295
1619.75111613898	1294.59997558594
1620.36799448966	1301.40002441406
1620.98479204903	1304.40002441406
1621.60150882455	1293.59997558594
1622.21814482364	1293
1622.83470005376	1294.19995117188
1623.45117452235	1303.19995117188
1624.06756823685	1302.19995117188
1624.6838812047	1294.40002441406
1625.30011343335	1301.80004882813
1625.91626493022	1303.59997558594
1626.53233570278	1300
1627.14832575845	1298.40002441406
1627.76423510468	1312.59997558594
1628.38006374891	1302.40002441406
1628.99581169857	1307.59997558594
1629.61147896111	1307.19995117188
1630.22706554397	1311.19995117188
1630.84257145457	1310.59997558594
1631.45799670038	1294.40002441406
1632.07334128881	1291.40002441406
1632.6886052273	1285.59997558594
1633.3037885233	1284
1633.91889118425	1281.19995117188
1634.53391321757	1288.40002441406
1635.1488546307	1285.40002441406
1635.76371543108	1291.59997558594
1636.37849562616	1288.80004882813
1636.99319522335	1281.40002441406
1637.60781423009	1284.19995117188
1638.22235265383	1292.40002441406
1638.83681050198	1299.40002441406
1639.451187782	1306.40002441406
1640.0654845013	1313.19995117188
1640.67970066734	1310.40002441406
1641.29383628752	1304.19995117188
1641.9078913693	1315
1642.5218659201	1312.40002441406
1643.13575994735	1303.40002441406
1643.74957345849	1310.40002441406
1644.36330646094	1300
1644.97695896213	1305.40002441406
1645.59053096951	1307
1646.20402249049	1304.80004882813
1646.8174335325	1319.59997558594
1647.43076410298	1327
1648.04401420935	1318
1648.65718385905	1325
1649.2702730595	1339
1649.88328181812	1344.80004882813
1650.49621014236	1345.19995117188
1651.10905803963	1338.19995117188
1651.72182551735	1328.19995117188
1652.33451258297	1330.80004882813
1652.9471192439	1316.40002441406
1653.55964550757	1309.59997558594
1654.1720913814	1313.19995117188
1654.78445687283	1312.80004882813
1655.39674198926	1310.59997558594
1656.00894673814	1305
1656.62107112688	1305.19995117188
1657.23311516291	1302
1657.84507885365	1302
1658.45696220652	1280.80004882813
1659.06876522895	1275.59997558594
1659.68048792835	1275.40002441406
1660.29213031217	1278.59997558594
1660.90369238779	1272
1661.51517416267	1270.80004882813
1662.12657564421	1266.80004882813
1662.73789683984	1277.59997558594
1663.34913775697	1274.40002441406
1663.96029840303	1273.19995117188
1664.57137878544	1266.59997558594
1665.18237891161	1267.40002441406
1665.79329878897	1270
1666.40413842493	1263
1667.01489782691	1267.19995117188
1667.62557700233	1255.40002441406
1668.2361759586	1255.40002441406
1668.84669470315	1266.59997558594
1669.4571332434	1253.80004882813
1670.06749158675	1253.19995117188
1670.67776974062	1261.40002441406
1671.28796771243	1244.59997558594
1671.8980855096	1244.80004882813
1672.50812313954	1247.19995117188
1673.11808060967	1249.40002441406
1673.72795792739	1245.59997558594
1674.33775510013	1246.19995117188
1674.9474721353	1236.19995117188
1675.55710904031	1248
1676.16666582257	1235
1676.7761424895	1227.19995117188
1677.38553904851	1230.59997558594
1677.99485550702	1235.59997558594
1678.60409187243	1241.19995117188
1679.21324815215	1237
1679.8223243536	1236.19995117188
1680.43132048419	1233
1681.04023655132	1233.59997558594
1681.64907256241	1233
1682.25782852487	1224.40002441406
1682.86650444611	1217.40002441406
1683.47510033353	1214.59997558594
1684.08361619455	1222
1684.69205203657	1222.19995117188
1685.300407867	1227
1685.90868369325	1217.59997558594
1686.51687952272	1228.40002441406
1687.12499536283	1218
1687.73303122098	1216
1688.34098710457	1221.19995117188
1688.94886302101	1217.19995117188
1689.55665897772	1217.19995117188
1690.16437498208	1211.59997558594
1690.77201104152	1226.40002441406
1691.37956716342	1216.80004882813
1691.9870433552	1217.40002441406
1692.59443962426	1216.80004882813
1693.20175597801	1222.19995117188
1693.80899242384	1217.80004882813
1694.41614896916	1221.40002441406
1695.02322562138	1226.40002441406
1695.63022238789	1220.19995117188
1696.23713927609	1208.19995117188
1696.8439762934	1212.19995117188
1697.4507334472	1215.19995117188
1698.05741074491	1217.40002441406
1698.66400819391	1201.40002441406
1699.27052580161	1212
1699.87696357542	1205.59997558594
1700.48332152272	1203.40002441406
1701.08959965092	1207
1701.69579796742	1208.80004882813
1702.30191647962	1206
1702.90795519491	1202
1703.51391412069	1203.59997558594
1704.11979326437	1202
1704.72559263332	1201
1705.33131223496	1200.80004882813
1705.93695207668	1194
1706.54251216588	1199
1707.14799250994	1199.40002441406
1707.75339311628	1185.59997558594
1708.35871399227	1189.59997558594
1708.96395514532	1183.59997558594
1709.56911658282	1186
