634.948122577771	1504.40002441406
635.690341530823	1504.80004882813
636.43246851086	1499.80004882813
637.174503525845	1522.19995117188
637.916446583745	1526.80004882813
638.658297692538	1542.40002441406
639.400056860179	1536.80004882813
640.141724094637	1548.80004882813
640.883299403885	1556.19995117188
641.62478279588	1554.80004882813
642.366174278594	1548
643.107473859989	1558.40002441406
643.848681548029	1557.80004882813
644.589797350679	1558.40002441406
645.330821275901	1555
646.071753331665	1534
646.812593525922	1528.19995117188
647.553341866646	1517.59997558594
648.293998361798	1511.59997558594
649.03456301933	1535.80004882813
649.775035847216	1528.19995117188
650.515416853409	1536.19995117188
651.255706045874	1532.40002441406
651.995903432568	1555.19995117188
652.736009021453	1572.40002441406
653.476022820486	1550.40002441406
654.215944837629	1547
654.955775080842	1549
655.695513558081	1541.80004882813
656.435160277301	1549
657.174715246465	1564.80004882813
657.914178473527	1549.40002441406
658.653549966449	1544.80004882813
659.392829733176	1554.80004882813
660.132017781678	1551.40002441406
660.871114119901	1543.59997558594
661.610118755803	1540.19995117188
662.349031697343	1545.19995117188
663.087852952468	1544.59997558594
663.826582529139	1548.59997558594
664.565220435305	1549.19995117188
665.30376667892	1545
666.04222126794	1532.40002441406
666.780584210316	1547.80004882813
667.518855514	1526.59997558594
668.25703518694	1537.59997558594
668.995123237096	1540.40002441406
669.733119672413	1547.80004882813
670.471024500842	1548
671.208837730333	1548.19995117188
671.946559368839	1533.19995117188
672.684189424308	1533.40002441406
673.421727904689	1535.59997558594
674.159174817929	1533.80004882813
674.896530171977	1529
675.633793974786	1534.19995117188
676.370966234295	1537
677.108046958461	1543.19995117188
677.845036155219	1547.59997558594
678.581933832528	1547.59997558594
679.318739998323	1557.59997558594
680.055454660558	1551.80004882813
680.792077827172	1561.80004882813
681.528609506116	1569.80004882813
682.265049705331	1567.59997558594
683.001398432759	1557.19995117188
683.737655696349	1545.40002441406
684.47382150404	1538
685.20989586378	1540
685.945878783503	1537
686.68177027116	1544.19995117188
687.417570334688	1529.40002441406
688.153278982032	1547
688.888896221129	1560.59997558594
689.624422059921	1547
690.359856506349	1547
691.095199568354	1545.19995117188
691.830451253874	1544.40002441406
692.565611570844	1541
693.300680527212	1545.40002441406
694.03565813091	1558.80004882813
694.770544389877	1556.59997558594
695.505339312053	1555.19995117188
696.240042905372	1549.40002441406
696.974655177772	1557.59997558594
697.70917613719	1549.40002441406
698.443605791561	1549.40002441406
699.177944148826	1554.19995117188
699.912191216909	1570.19995117188
700.646347003755	1568
701.380411517295	1564.59997558594
702.114384765465	1568.59997558594
702.848266756195	1573.59997558594
703.582057497421	1569
704.315756997074	1575
705.049365263089	1575.59997558594
705.782882303399	1580.19995117188
706.516308125936	1579
707.249642738626	1588.19995117188
707.982886149403	1597.40002441406
708.716038366204	1591.80004882813
709.449099396949	1583.40002441406
710.182069249577	1588.59997558594
710.914947932009	1577.59997558594
711.647735452181	1556
712.380431818022	1552.59997558594
713.113037037454	1543.19995117188
713.845551118411	1551.19995117188
714.577974068818	1546.19995117188
715.310305896604	1541.80004882813
716.042546609694	1561.40002441406
716.774696216013	1571.40002441406
717.506754723493	1583.59997558594
718.238722140053	1609.80004882813
718.970598473624	1590.80004882813
719.702383732127	1590.19995117188
720.43407792349	1591.59997558594
721.165681055634	1584.19995117188
721.897193136486	1605.19995117188
722.628614173966	1596.40002441406
723.359944175997	1598.40002441406
724.091183150505	1578.40002441406
724.822331105412	1576.19995117188
725.553388048638	1582.19995117188
726.284353988106	1572
727.015228931734	1570.80004882813
727.746012887449	1577
728.476705863162	1581
729.207307866803	1599.80004882813
729.937818906289	1594.59997558594
730.668238989535	1591.19995117188
731.398568124459	1597.80004882813
732.128806318986	1568
732.858953581034	1579.40002441406
733.589009918514	1591.40002441406
734.318975339348	1584.40002441406
735.048849851452	1595.40002441406
735.778633462744	1584.59997558594
736.508326181137	1572.80004882813
737.237928014549	1560.19995117188
737.967438970897	1558
738.696859058095	1567.40002441406
739.426188284054	1550
740.155426656692	1547.80004882813
740.884574183922	1544.59997558594
741.613630873659	1536.19995117188
742.342596733815	1549.80004882813
743.071471772302	1557.80004882813
743.800255997034	1559.59997558594
744.528949415921	1573
745.257552036877	1567.59997558594
745.986063867811	1575.59997558594
746.714484916638	1561.19995117188
747.442815191261	1568.80004882813
748.171054699597	1567.80004882813
748.899203449554	1567.40002441406
749.627261449039	1578
750.355228705966	1583
751.083105228239	1591
751.810891023765	1592.59997558594
752.538586100459	1612.19995117188
753.266190466218	1589.19995117188
753.99370412896	1604.19995117188
754.721127096582	1595
755.448459377	1578.40002441406
756.175700978114	1577.19995117188
756.902851907828	1568
757.629912174055	1559.80004882813
758.356881784688	1565.59997558594
759.083760747639	1590.40002441406
759.810549070817	1587
760.537246762113	1585.80004882813
761.263853829442	1583.19995117188
761.990370280698	1585.80004882813
762.716796123791	1580.19995117188
763.443131366618	1564
764.169376017082	1577.40002441406
764.895530083085	1584.40002441406
765.621593572527	1590.80004882813
766.347566493312	1602.59997558594
767.073448853336	1618.19995117188
767.799240660502	1634.80004882813
768.524941922707	1635.40002441406
769.250552647854	1662
769.976072843836	1672.80004882813
770.701502518551	1677
771.426841679905	1683.40002441406
772.152090335793	1691
772.877248494107	1699
773.602316162747	1688.80004882813
774.327293349609	1695.19995117188
775.052180062592	1696.19995117188
775.776976309589	1695.59997558594
776.501682098496	1678.80004882813
777.226297437206	1664
777.950822333616	1661.59997558594
778.675256795621	1645.19995117188
779.399600831111	1635
780.123854447983	1638.19995117188
780.84801765413	1625.59997558594
781.572090457441	1611
782.296072865811	1600.19995117188
783.019964887131	1601.40002441406
783.743766529297	1607
784.467477800194	1616.59997558594
785.191098707719	1604.19995117188
785.914629259756	1596.59997558594
786.638069464194	1604.80004882813
787.361419328932	1584
788.084678861852	1588.59997558594
788.807848070845	1577.80004882813
789.530926963798	1588.19995117188
790.253915548602	1586
790.976813833144	1588.19995117188
791.699621825307	1583.59997558594
792.422339532986	1582
793.144966964061	1572.80004882813
793.86750412642	1586.19995117188
794.589951027946	1594.80004882813
795.312307676536	1574.80004882813
796.03457408006	1571.59997558594
796.756750246417	1575.59997558594
797.478836183477	1567
798.200831899137	1577.19995117188
798.92273740127	1567.80004882813
799.644552697769	1558.40002441406
800.36627779651	1563
801.087912705374	1588
801.809457432251	1588.59997558594
802.530911985017	1605.59997558594
803.252276371558	1592
803.973550599748	1587.19995117188
804.694734677472	1580.59997558594
805.415828612611	1579
806.136832413045	1579.80004882813
806.857746086646	1584
807.578569641305	1574.80004882813
808.299303084892	1579
809.019946425289	1588.40002441406
809.740499670372	1590.80004882813
810.460962828022	1593.80004882813
811.181335906114	1561
811.901618912524	1574.59997558594
812.621811855131	1574.19995117188
813.341914741809	1578
814.061927580433	1567.59997558594
814.781850378881	1567.40002441406
815.501683145025	1577.80004882813
816.221425886743	1572.80004882813
816.941078611903	1557
817.660641328387	1557.80004882813
818.380114044065	1554.59997558594
819.099496766808	1554
819.818789504492	1555.59997558594
820.53799226499	1555
821.257105056168	1551.59997558594
821.976127885904	1555.59997558594
822.695060762064	1539
823.413903692525	1539.40002441406
824.132656685151	1556.19995117188
824.851319747817	1571.59997558594
825.569892888388	1579.80004882813
826.288376114739	1589.40002441406
827.006769434737	1595.19995117188
827.725072856249	1576.59997558594
828.443286387142	1561
829.161410035285	1545.59997558594
829.87944380855	1548.40002441406
830.597387714798	1552.59997558594
831.315241761898	1548.59997558594
832.033005957715	1561.40002441406
832.750680310119	1570.40002441406
833.468264826969	1573
834.18575951614	1577.59997558594
834.903164385486	1568.19995117188
835.620479442878	1576.80004882813
836.337704696181	1577
837.054840153255	1557.19995117188
837.771885821962	1562.59997558594
838.488841710172	1553.80004882813
839.20570782574	1547.80004882813
839.922484176531	1549.19995117188
840.639170770409	1550
841.355767615231	1548.19995117188
842.072274718864	1534.80004882813
842.788692089164	1539.59997558594
843.505019733993	1556.40002441406
844.221257661209	1556.40002441406
844.937405878676	1558.40002441406
845.65346439425	1544.80004882813
846.369433215789	1541
847.085312351156	1537.19995117188
847.801101808205	1527.59997558594
848.516801594793	1526.80004882813
849.232411718781	1527.40002441406
849.947932188021	1526.59997558594
850.663363010376	1524
851.378704193698	1524.80004882813
852.093955745842	1539.59997558594
852.809117674669	1549.40002441406
853.524189988028	1560.19995117188
854.239172693778	1568.40002441406
854.954065799768	1583.59997558594
855.668869313857	1564.19995117188
856.383583243899	1557.80004882813
857.098207597743	1551.80004882813
857.812742383246	1558.19995117188
858.527187608255	1539.80004882813
859.241543280628	1529.40002441406
859.955809408218	1522.59997558594
860.669985998868	1538.40002441406
861.384073060437	1544.40002441406
862.098070600772	1563
862.811978627724	1556
863.52579714914	1549.59997558594
864.239526172873	1565.19995117188
864.953165706776	1570.19995117188
865.666715758687	1566.80004882813
866.380176336464	1554.59997558594
867.093547447951	1557.40002441406
867.806829100996	1551.19995117188
868.520021303444	1550.40002441406
869.233124063149	1535.59997558594
869.94613738795	1544.19995117188
870.659061285693	1536.40002441406
871.37189576423	1539.80004882813
872.084640831403	1544.80004882813
872.797296495057	1559.19995117188
873.509862763039	1558.59997558594
874.22233964319	1553.40002441406
874.934727143353	1556.80004882813
875.647025271374	1534.59997558594
876.359234035097	1549
877.071353442361	1549.59997558594
877.783383501015	1553.40002441406
878.495324218895	1548.59997558594
879.207175603844	1554.80004882813
879.918937663705	1561.59997558594
880.630610406318	1569.40002441406
881.342193839524	1564.80004882813
882.053687971161	1570.40002441406
882.765092809069	1562.59997558594
883.476408361091	1549.80004882813
884.187634635066	1533
884.898771638828	1529.40002441406
885.609819380221	1530.19995117188
886.320777867076	1538.19995117188
887.031647107236	1554.40002441406
887.742427108536	1545.40002441406
888.453117878816	1550.80004882813
889.16371942591	1551.19995117188
889.874231757652	1557.80004882813
890.584654881883	1555.40002441406
891.294988806434	1555
892.005233539141	1542.59997558594
892.715389087837	1548.59997558594
893.42545546036	1566.19995117188
894.135432664543	1553.40002441406
894.845320708216	1573
895.555119599216	1576.80004882813
896.264829345375	1587.80004882813
896.974449954526	1568.59997558594
897.683981434496	1586.59997558594
898.393423793125	1598.80004882813
899.102777038235	1574
899.812041177664	1565.59997558594
900.521216219239	1566.19995117188
901.230302170793	1557.40002441406
901.939299040155	1558.19995117188
902.64820683515	1569.80004882813
903.357025563612	1578
904.065755233368	1577.80004882813
904.774395852247	1592
905.482947428076	1561.19995117188
906.191409968682	1569.40002441406
906.899783481897	1570.40002441406
907.608067975538	1555.40002441406
908.316263457443	1565.59997558594
909.02436993543	1567
909.732387417327	1566.59997558594
910.440315910959	1556.40002441406
911.148155424154	1557.19995117188
911.855905964731	1555.40002441406
912.563567540521	1552.80004882813
913.271140159339	1551.59997558594
913.978623829017	1548
914.686018557374	1546.80004882813
915.393324352237	1544.40002441406
916.100541221421	1561.19995117188
916.807669172752	1565.19995117188
917.514708214054	1562.19995117188
918.221658353142	1562.59997558594
918.928519597843	1552
919.635291955976	1561.59997558594
920.341975435358	1551.40002441406
921.048570043813	1540.59997558594
921.75507578916	1555.80004882813
922.461492679212	1554.40002441406
923.167820721795	1560
923.874059924726	1563
924.58021029582	1559.80004882813
925.286271842893	1553.80004882813
925.992244573769	1561
926.698128496262	1559.40002441406
927.403923618184	1568
928.109629947355	1557.19995117188
928.815247491593	1565
929.520776258708	1572.80004882813
930.226216256519	1557
930.931567492841	1561.19995117188
931.636829975482	1554
932.342003712263	1554.59997558594
933.047088710995	1537.40002441406
933.752084979491	1535.59997558594
934.456992525564	1530.59997558594
935.161811357024	1518.80004882813
935.866541481688	1499.59997558594
936.571182907363	1495.59997558594
937.275735641861	1501.80004882813
937.980199692995	1516
938.684575068572	1518.80004882813
939.388861776411	1521
940.093059824311	1530
940.797169220085	1535.40002441406
941.501189971544	1525
942.205122086495	1528.40002441406
942.908965572751	1525.80004882813
943.612720438111	1526
944.316386690391	1527.80004882813
945.019964337391	1534.19995117188
945.723453386924	1529.40002441406
946.426853846795	1530
947.130165724808	1535.59997558594
947.83338902877	1525
948.536523766488	1538.19995117188
949.239569945764	1531
949.942527574402	1514.59997558594
950.64539666021	1533.80004882813
951.348177210993	1524
952.050869234548	1508.80004882813
952.753472738683	1508.59997558594
953.455987731199	1492.19995117188
954.158414219898	1503
954.860752212587	1512.59997558594
955.563001717061	1525.19995117188
956.265162741124	1531.19995117188
956.967235292576	1516.19995117188
957.669219379224	1513.80004882813
958.371115008857	1519.59997558594
959.072922189283	1503
959.774640928301	1490
960.476271233708	1495.80004882813
961.177813113301	1491.40002441406
961.879266574882	1516.40002441406
962.580631626248	1503
963.281908275194	1502.19995117188
963.98309652952	1504.59997558594
964.684196397022	1498.80004882813
965.3852078855	1506.19995117188
966.086131002745	1513.19995117188
966.786965756555	1515
967.487712154726	1505.19995117188
968.188370205055	1516.19995117188
968.888939915331	1513.59997558594
969.589421293352	1520.19995117188
970.289814346909	1530
970.990119083801	1528
971.690335511819	1529.19995117188
972.39046363875	1531.59997558594
973.090503472398	1538
973.790455020545	1542.19995117188
974.490318290987	1535.19995117188
975.190093291516	1533.59997558594
975.889780029923	1523.40002441406
976.589378513998	1534.19995117188
977.288888751527	1540.59997558594
977.988310750308	1526.59997558594
978.687644518122	1531.19995117188
979.386890062767	1543
980.086047392025	1537.59997558594
980.785116513689	1503.59997558594
981.484097435542	1508.80004882813
982.182990165377	1517.80004882813
982.88179471098	1514.40002441406
983.580511080137	1519.40002441406
984.279139280632	1513.19995117188
984.977679320253	1509
985.67613120679	1514.80004882813
986.374494948027	1524.59997558594
987.072770551745	1518.40002441406
987.770958025731	1525
988.469057377772	1514.80004882813
989.167068615649	1506.40002441406
989.864991747145	1500.59997558594
990.562826780047	1494.59997558594
991.260573722134	1499
991.958232581195	1491.40002441406
992.655803365003	1493.40002441406
993.353286081346	1489
994.050680738006	1515
994.74798734276	1521.80004882813
995.44520590339	1518.59997558594
996.142336427681	1533
996.839378923407	1522.80004882813
997.536333398348	1502.19995117188
998.233199860289	1508.80004882813
998.929978317004	1500.40002441406
999.626668776274	1510
1000.32327124587	1500
1001.01978573359	1508.40002441406
1001.71621224718	1508
1002.41255079445	1491.40002441406
1003.10880138315	1490.59997558594
1003.80496402107	1509.19995117188
1004.50103871599	1519.19995117188
1005.19702547567	1528.80004882813
1005.8929243079	1551.80004882813
1006.58873522045	1539.80004882813
1007.2844582211	1530.80004882813
1007.98009331761	1529.80004882813
1008.67564051776	1529.40002441406
1009.37109982933	1515.59997558594
1010.06647126009	1502.19995117188
1010.7617548178	1509.59997558594
1011.45695051026	1503.19995117188
1012.15205834522	1493
1012.84707833045	1487.59997558594
1013.54201047373	1490.40002441406
1014.23685478284	1499
1014.93161126553	1515.19995117188
1015.62627992959	1501.19995117188
1016.32086078277	1503
1017.01535383285	1479.59997558594
1017.70975908761	1491.80004882813
1018.40407655479	1513
1019.09830624219	1504.40002441406
1019.79244815755	1504.59997558594
1020.48650230866	1512.19995117188
1021.18046870328	1505.59997558594
1021.87434734917	1501
1022.56813825411	1502.19995117188
1023.26184142584	1506.59997558594
1023.95545687216	1500.19995117188
1024.64898460082	1487.59997558594
1025.34242461957	1492.19995117188
1026.0357769362	1485.59997558594
1026.72904155846	1498.80004882813
1027.42221849412	1496.59997558594
1028.11530775094	1505.40002441406
1028.80830933668	1499.80004882813
1029.50122325911	1494.19995117188
1030.19404952599	1496.40002441406
1030.88678814508	1504
1031.57943912414	1507
1032.27200247093	1490.40002441406
1032.96447819323	1484.19995117188
1033.65686629878	1495.59997558594
1034.34916679534	1497
1035.04137969068	1507
1035.73350499256	1492.59997558594
1036.42554270874	1492.59997558594
1037.11749284697	1491.19995117188
1037.80935541501	1507.59997558594
1038.50113042062	1495.59997558594
1039.19281787156	1488.40002441406
1039.88441777559	1495
1040.57593014046	1497.40002441406
1041.26735497393	1498.59997558594
1041.95869228376	1501.59997558594
1042.6499420777	1504
1043.3411043635	1502
1044.03217914893	1488.59997558594
1044.72316644174	1482.40002441406
1045.41406624968	1495
1046.1048785805	1495.59997558594
1046.79560344197	1510.19995117188
1047.48624084182	1488.80004882813
1048.17679078783	1477.19995117188
1048.86725328774	1478.59997558594
1049.55762834929	1473.80004882813
1050.24791598025	1462.59997558594
1050.93811618837	1468.59997558594
1051.62822898139	1464.19995117188
1052.31825436707	1461.59997558594
1053.00819235315	1458.19995117188
1053.6980429474	1476.40002441406
1054.38780615755	1471.40002441406
1055.07748199136	1462.59997558594
1055.76707045658	1469.19995117188
1056.45657156095	1457.40002441406
1057.14598531222	1458.80004882813
1057.83531171814	1455.19995117188
1058.52455078646	1453.59997558594
1059.21370252494	1478
1059.90276694129	1479.80004882813
1060.5917440433	1491.19995117188
1061.28063383868	1491.19995117188
1061.9694363352	1491.40002441406
1062.65815154059	1474.40002441406
1063.34677946261	1469.80004882813
1064.03532010899	1467.40002441406
1064.72377348748	1457.40002441406
1065.41213960583	1457.59997558594
1066.10041847177	1463.59997558594
1066.78861009306	1465
1067.47671447743	1473
1068.16473163263	1475.59997558594
1068.85266156639	1480.19995117188
1069.54050428647	1478.40002441406
1070.2282598006	1493.40002441406
1070.91592811652	1479.59997558594
1071.60350924198	1474.59997558594
1072.29100318471	1470.59997558594
1072.97840995245	1474.59997558594
1073.66572955295	1477.80004882813
1074.35296199394	1466
1075.04010728316	1481.19995117188
1075.72716542836	1474.19995117188
1076.41413643726	1474.40002441406
1077.10102031761	1472
1077.78781707715	1477.40002441406
1078.4745267236	1477.40002441406
1079.16114926471	1486.40002441406
1079.84768470822	1487
1080.53413306185	1495
1081.22049433336	1497.80004882813
1081.90676853046	1486.80004882813
1082.5929556609	1505.40002441406
1083.27905573241	1505.19995117188
1083.96506875272	1498.40002441406
1084.65099472957	1483.59997558594
1085.3368336707	1473.19995117188
1086.02258558383	1457.59997558594
1086.70825047669	1459.40002441406
1087.39382835703	1457.59997558594
1088.07931923257	1448.59997558594
1088.76472311104	1470.19995117188
1089.45004000018	1463.80004882813
1090.13526990771	1468.59997558594
1090.82041284137	1495
1091.50546880889	1500.40002441406
1092.19043781799	1500.59997558594
1092.87531987642	1504.19995117188
1093.56011499188	1495.19995117188
1094.24482317212	1470.80004882813
1094.92944442486	1457
1095.61397875783	1441.59997558594
1096.29842617876	1443.40002441406
1096.98278669537	1437.59997558594
1097.6670603154	1456.19995117188
1098.35124704656	1463.40002441406
1099.03534689659	1451.40002441406
1099.71935987322	1464.40002441406
1100.40328598416	1483.59997558594
1101.08712523713	1489.19995117188
1101.77087763988	1484.40002441406
1102.45454320012	1474.40002441406
1103.13812192557	1479.59997558594
1103.82161382396	1482.19995117188
1104.50501890301	1473.40002441406
1105.18833717045	1468
1105.87156863399	1467
1106.55471330137	1473.40002441406
1107.2377711803	1483.19995117188
1107.9207422785	1482.80004882813
1108.60362660369	1501
1109.2864241636	1486.80004882813
1109.96913496594	1506
1110.65175901844	1487.59997558594
1111.33429632882	1467
1112.01674690479	1479.40002441406
1112.69911075408	1466.19995117188
1113.38138788439	1470.19995117188
1114.06357830346	1454.19995117188
1114.745682019	1456.80004882813
1115.42769903872	1472.19995117188
1116.10962937035	1473.59997558594
1116.7914730216	1462.80004882813
1117.47323000018	1485.80004882813
1118.15490031382	1482.40002441406
1118.83648397022	1468.59997558594
1119.51798097712	1480.59997558594
1120.1993913422	1477
1120.88071507321	1483.59997558594
1121.56195217784	1454.80004882813
1122.24310266381	1447.59997558594
1122.92416653884	1453.19995117188
1123.60514381064	1461.59997558594
1124.28603448692	1479
1124.9668385754	1481.59997558594
1125.64755608378	1476.80004882813
1126.32818701978	1474.19995117188
1127.00873139111	1486.19995117188
1127.68918920548	1491.40002441406
1128.3695604706	1490.59997558594
1129.04984519419	1480.59997558594
1129.73004338394	1482.80004882813
1130.41015504758	1478.80004882813
1131.09018019281	1467.59997558594
1131.77011882734	1471.59997558594
1132.44997095888	1462.19995117188
1133.12973659514	1460.19995117188
1133.80941574381	1466.59997558594
1134.48900841263	1472.59997558594
1135.16851460927	1469
1135.84793434147	1459.80004882813
1136.52726761692	1458.40002441406
1137.20651444333	1457
1137.8856748284	1443
1138.56474877984	1437.40002441406
1139.24373630536	1445.19995117188
1139.92263741265	1445.59997558594
1140.60145210943	1443.19995117188
1141.28018040339	1458.19995117188
1141.95882230225	1476
1142.6373778137	1481.80004882813
1143.31584694545	1487.40002441406
1143.99422970519	1500.59997558594
1144.67252610064	1482
1145.35073613949	1474.59997558594
1146.02885982944	1478.19995117188
1146.7068971782	1460.80004882813
1147.38484819347	1455.19995117188
1148.06271288294	1456.40002441406
1148.74049125432	1458.80004882813
1149.41818331531	1473
1150.0957890736	1474.80004882813
1150.77330853689	1456.59997558594
1151.45074171289	1456.80004882813
1152.12808860928	1460.40002441406
1152.80534923378	1446.59997558594
1153.48252359407	1466
1154.15961169786	1448.19995117188
1154.83661355283	1456.80004882813
1155.51352916669	1446.19995117188
1156.19035854713	1438.19995117188
1156.86710170185	1466.19995117188
1157.54375863855	1458.40002441406
1158.22032936491	1452.80004882813
1158.89681388863	1464.80004882813
1159.57321221741	1474.59997558594
1160.24952435894	1468.19995117188
1160.92575032092	1480.40002441406
1161.60189011103	1471
1162.27794373697	1461.59997558594
1162.95391120644	1453.59997558594
1163.62979252712	1452.59997558594
1164.3055877067	1454
1164.98129675288	1454.40002441406
1165.65691967336	1458.19995117188
1166.33245647581	1459.59997558594
1167.00790716792	1450.19995117188
1167.6832717574	1461.59997558594
1168.35855025193	1458.80004882813
1169.0337426592	1456.40002441406
1169.70884898689	1461.40002441406
1170.3838692427	1443.19995117188
1171.05880343431	1444.59997558594
1171.73365156941	1437.59997558594
1172.40841365569	1452.80004882813
1173.08308970083	1469
1173.75767971253	1475.80004882813
1174.43218369847	1499.59997558594
1175.10660166633	1482.19995117188
1175.7809336238	1462
1176.45517957857	1461.40002441406
1177.12933953832	1444.59997558594
1177.80341351073	1441.59997558594
1178.47740150349	1452.80004882813
1179.15130352429	1446
1179.8251195808	1463.19995117188
1180.49884968071	1476.59997558594
1181.1724938317	1474.80004882813
1181.84605204145	1479
1182.51952431766	1474.19995117188
1183.19291066799	1481
1183.86621110013	1474.59997558594
1184.53942562176	1480.59997558594
1185.21255424057	1465.40002441406
1185.88559696422	1461.59997558594
1186.55855380041	1473.19995117188
1187.2314247568	1460
1187.90420984109	1466.40002441406
1188.57690906095	1462.40002441406
1189.24952242405	1476.59997558594
1189.92204993808	1494.59997558594
1190.59449161071	1488.59997558594
1191.26684744962	1476
1191.93911746249	1468
1192.61130165699	1469.40002441406
1193.28340004081	1470
1193.95541262161	1455.59997558594
1194.62733940707	1459.19995117188
1195.29918040487	1462
1195.97093562269	1463.59997558594
1196.64260506819	1457
1197.31418874905	1468.40002441406
1197.98568667295	1462.80004882813
1198.65709884755	1469.40002441406
1199.32842528053	1459.40002441406
1199.99966597957	1452
1200.67082095234	1449
1201.3418902065	1442
1202.01287374974	1433.19995117188
1202.68377158971	1453.59997558594
1203.3545837341	1444.19995117188
1204.02531019057	1460.19995117188
1204.6959509668	1458.80004882813
1205.36650607045	1445.40002441406
1206.03697550919	1456
1206.70735929069	1451.40002441406
1207.37765742263	1458.59997558594
1208.04786991266	1466.19995117188
1208.71799676846	1455.59997558594
1209.38803799769	1450.19995117188
1210.05799360803	1461.40002441406
1210.72786360714	1458.59997558594
1211.39764800268	1452.40002441406
1212.06734680233	1446.19995117188
1212.73696001375	1447
1213.4064876446	1444.19995117188
1214.07592970255	1451.19995117188
1214.74528619526	1448
1215.4145571304	1439.59997558594
1216.08374251564	1441
1216.75284235863	1427
1217.42185666704	1426.59997558594
1218.09078544854	1427.80004882813
1218.75962871078	1414.80004882813
1219.42838646143	1396.19995117188
1220.09705870816	1412.59997558594
1220.76564545861	1408
1221.43414672046	1423.19995117188
1222.10256250136	1438
1222.77089280898	1425
1223.43913765098	1443.19995117188
1224.107297035	1431.40002441406
1224.77537096873	1440.40002441406
1225.44335945981	1450.59997558594
1226.1112625159	1444
1226.77908014467	1426.80004882813
1227.44681235376	1426.40002441406
1228.11445915085	1428
1228.78202054357	1445
1229.44949653961	1439.59997558594
1230.11688714659	1429.40002441406
1230.7841923722	1432.40002441406
1231.45141222407	1432.80004882813
1232.11854670988	1421.80004882813
1232.78559583726	1420.59997558594
1233.45255961388	1422.80004882813
1234.1194380474	1431.40002441406
1234.78623114546	1428.59997558594
1235.45293891572	1443
1236.11956136583	1429.80004882813
1236.78609850345	1438.19995117188
1237.45255033623	1424.59997558594
1238.11891687182	1429.40002441406
1238.78519811788	1435
1239.45139408205	1422
1240.11750477198	1409.40002441406
1240.78353019534	1413.40002441406
1241.44947035976	1411.59997558594
1242.11532527291	1410.19995117188
1242.78109494242	1425.40002441406
1243.44677937595	1406.40002441406
1244.11237858115	1426.19995117188
1244.77789256567	1404
1245.44332133715	1424
1246.10866490325	1429.80004882813
1246.7739232716	1416.59997558594
1247.43909644987	1426.59997558594
1248.10418444569	1435.40002441406
1248.76918726671	1434.40002441406
1249.43410492059	1428.59997558594
1250.09893741496	1426.19995117188
1250.76368475747	1418.40002441406
1251.42834695576	1409.59997558594
1252.09292401749	1418
1252.75741595029	1415.59997558594
1253.42182276182	1420.59997558594
1254.08614445971	1419.40002441406
1254.75038105161	1414
1255.41453254515	1410.80004882813
1256.07859894799	1418.59997558594
1256.74258026777	1407
1257.40647651213	1404
1258.0702876887	1407.59997558594
1258.73401380514	1406.19995117188
1259.39765486908	1425
1260.06121088817	1419.19995117188
1260.72468187004	1415.40002441406
1261.38806782233	1428.80004882813
1262.05136875269	1423.80004882813
1262.71458466875	1416
1263.37771557815	1413.59997558594
1264.04076148854	1421.40002441406
1264.70372240753	1421.80004882813
1265.3665983428	1407
1266.02938930195	1405
1266.69209529263	1413.40002441406
1267.35471632249	1408.19995117188
1268.01725239914	1411.40002441406
1268.67970353024	1410.80004882813
1269.34206972342	1409.59997558594
1270.00435098631	1412.40002441406
1270.66654732655	1407.80004882813
1271.32865875177	1409
1271.9906852696	1392.80004882813
1272.65262688768	1408
1273.31448361365	1403.59997558594
1273.97625545514	1409.19995117188
1274.63794241978	1415.19995117188
1275.2995445152	1421.59997558594
1275.96106174903	1417.59997558594
1276.62249412892	1417
1277.28384166248	1426.40002441406
1277.94510435735	1435
1278.60628222116	1427.19995117188
1279.26737526155	1428.19995117188
1279.92838348613	1421
1280.58930690255	1413.80004882813
1281.25014551842	1422.59997558594
1281.91089934139	1412
1282.57156837907	1405
1283.2321526391	1394.40002441406
1283.89265212911	1410.40002441406
1284.55306685671	1404.80004882813
1285.21339682955	1399.59997558594
1285.87364205525	1389.80004882813
1286.53380254142	1380.40002441406
1287.19387829571	1382.80004882813
1287.85386932573	1394.59997558594
1288.51377563911	1399.19995117188
1289.17359724348	1417.80004882813
1289.83333414646	1410.59997558594
1290.49298635567	1409.59997558594
1291.15255387874	1424.80004882813
1291.8120367233	1432.40002441406
1292.47143489696	1413.19995117188
1293.13074840736	1408.59997558594
1293.7899772621	1406.80004882813
1294.44912146882	1397.40002441406
1295.10818103513	1393.59997558594
1295.76715596866	1410.40002441406
1296.42604627704	1402.19995117188
1297.08485196787	1399.40002441406
1297.74357304878	1409.59997558594
1298.4022095274	1404
1299.06076141134	1419.80004882813
1299.71922870821	1422.19995117188
1300.37761142565	1427.40002441406
1301.03590957126	1427
1301.69412315268	1434.80004882813
1302.3522521775	1431
1303.01029665336	1428.40002441406
1303.66825658787	1425.40002441406
1304.32613198865	1425.80004882813
1304.98392286332	1425
1305.64162921948	1424.19995117188
1306.29925106476	1449.19995117188
1306.95678840677	1438.40002441406
1307.61424125312	1437
1308.27160961145	1432.19995117188
1308.92889348934	1432.80004882813
1309.58609289443	1428
1310.24320783432	1423.40002441406
1310.90023831664	1418.40002441406
1311.55718434898	1422.59997558594
1312.21404593897	1417.59997558594
1312.87082309421	1432.59997558594
1313.52751582233	1430.40002441406
1314.18412413092	1428.19995117188
1314.84064802761	1431
1315.49708752	1423.59997558594
1316.1534426157	1433.19995117188
1316.80971332233	1426.80004882813
1317.46589964749	1429.19995117188
1318.1220015988	1418.40002441406
1318.77801918386	1419.40002441406
1319.43395241028	1424
1320.08980128567	1425.40002441406
1320.74556581764	1409.59997558594
1321.4012460138	1427.80004882813
1322.05684188176	1428.80004882813
1322.71235342911	1413.59997558594
1323.36778066347	1403.40002441406
1324.02312359245	1416
1324.67838222365	1419.59997558594
1325.33355656468	1424
1325.98864662314	1429
1326.64365240663	1412
1327.29857392277	1409
1327.95341117915	1411.40002441406
1328.60816418339	1417.40002441406
1329.26283294308	1397
1329.91741746582	1401.40002441406
1330.57191775923	1387.19995117188
1331.2263338309	1389
1331.88066568843	1375
1332.53491333943	1377
1333.1890767915	1384
1333.84315605224	1385.59997558594
1334.49715112925	1397.40002441406
1335.15106203013	1398.19995117188
1335.80488876249	1386.40002441406
1336.45863133391	1383.59997558594
1337.112289752	1394
1337.76586402437	1384.19995117188
1338.4193541586	1391.59997558594
1339.0727601623	1397.80004882813
1339.72608204306	1399
1340.37931980849	1400
1341.03247346617	1398
1341.68554302372	1379.40002441406
1342.33852848871	1387.40002441406
1342.99142986876	1381.59997558594
1343.64424717145	1385.19995117188
1344.29698040438	1394.40002441406
1344.94962957515	1402.40002441406
1345.60219469135	1401.80004882813
1346.25467576058	1407
1346.90707279042	1413
1347.55938578848	1405.40002441406
1348.21161476235	1401.40002441406
1348.86375971962	1406.59997558594
1349.51582066787	1413.80004882813
1350.16779761472	1429
1350.81969056774	1434.19995117188
1351.47149953453	1443.40002441406
1352.12322452269	1450.80004882813
1352.77486553979	1446.59997558594
1353.42642259344	1455.80004882813
1354.07789569122	1443.59997558594
1354.72928484072	1464.59997558594
1355.38059004953	1466
1356.03181132525	1460.19995117188
1356.68294867545	1461
1357.33400210773	1475.80004882813
1357.98497162968	1473.80004882813
1358.63585724889	1468.59997558594
1359.28665897294	1465.59997558594
1359.93737680942	1471.19995117188
1360.58801076591	1476.80004882813
1361.23856085001	1481.80004882813
1361.88902706929	1479.19995117188
1362.53940943135	1483.19995117188
1363.18970794377	1499
1363.83992261413	1483.59997558594
1364.49005345003	1488.59997558594
1365.14010045904	1479.59997558594
1365.79006364874	1480.80004882813
1366.43994302673	1479.19995117188
1367.08973860058	1477.19995117188
1367.73945037788	1462.59997558594
1368.38907836621	1463.19995117188
1369.03862257315	1453.80004882813
1369.68808300629	1441.40002441406
1370.3374596732	1447.19995117188
1370.98675258148	1433.80004882813
1371.63596173868	1422.40002441406
1372.28508715241	1424
1372.93412883024	1408.80004882813
1373.58308677974	1410
1374.2319610085	1400
1374.8807515241	1386.59997558594
1375.52945833412	1397
1376.17808144612	1374.80004882813
1376.82662086771	1366.59997558594
1377.47507660644	1372.59997558594
1378.12344866989	1367.59997558594
1378.77173706565	1375.80004882813
1379.41994180129	1373.80004882813
1380.06806288439	1379.59997558594
1380.71610032252	1367.40002441406
1381.36405412326	1384
1382.01192429419	1382
1382.65971084287	1382.40002441406
1383.30741377688	1381
1383.95503310381	1384.40002441406
1384.60256883121	1390.80004882813
1385.25002096667	1386.19995117188
1385.89738951775	1379.40002441406
1386.54467449204	1386.59997558594
1387.19187589709	1386.40002441406
1387.8389937405	1361.80004882813
1388.48602802982	1382.59997558594
1389.13297877262	1373.19995117188
1389.77984597649	1376.19995117188
1390.42662964899	1373.59997558594
1391.07332979768	1371.80004882813
1391.71994643015	1371.59997558594
1392.36647955395	1375.59997558594
1393.01292917667	1375.19995117188
1393.65929530586	1375.59997558594
1394.3055779491	1378.19995117188
1394.95177711395	1381.80004882813
1395.59789280799	1367.19995117188
1396.24392503877	1368
1396.88987381387	1367.19995117188
1397.53573914086	1372.19995117188
1398.1815210273	1364.40002441406
1398.82721948075	1374.19995117188
1399.47283450878	1361.80004882813
1400.11836611897	1370
1400.76381431886	1365.80004882813
1401.40917911603	1356.80004882813
1402.05446051805	1345.59997558594
1402.69965853247	1339.19995117188
1403.34477316686	1339.59997558594
1403.98980442878	1339.80004882813
1404.6347523258	1353.59997558594
1405.27961686548	1347.59997558594
1405.92439805538	1347
1406.56909590306	1358.19995117188
1407.21371041608	1347
1407.85824160202	1349.19995117188
1408.50268946841	1346.19995117188
1409.14705402284	1345.19995117188
1409.79133527285	1351
1410.43553322601	1354.40002441406
1411.07964788987	1361.19995117188
1411.723679272	1365.40002441406
1412.36762737996	1366.19995117188
1413.01149222129	1379.19995117188
1413.65527380357	1368.80004882813
1414.29897213435	1367.40002441406
1414.94258722118	1364.19995117188
1415.58611907163	1373
1416.22956769325	1373.59997558594
1416.87293309359	1366.80004882813
1417.51621528021	1361
1418.15941426067	1365.19995117188
1418.80253004253	1352
1419.44556263333	1357.80004882813
1420.08851204063	1364.19995117188
1420.731378272	1380
1421.37416133497	1371.59997558594
1422.0168612371	1380.19995117188
1422.65947798596	1368.19995117188
1423.30201158908	1377.40002441406
1423.94446205403	1385
1424.58682938835	1375.80004882813
1425.2291135996	1373.59997558594
1425.87131469532	1383.59997558594
1426.51343268308	1380.59997558594
1427.15546757042	1374.59997558594
1427.79741936488	1389.19995117188
1428.43928807403	1377.59997558594
1429.0810737054	1372.40002441406
1429.72277626656	1363.80004882813
1430.36439576504	1354.59997558594
1431.00593220841	1339.59997558594
1431.64738560419	1352
1432.28875595995	1341.80004882813
1432.93004328324	1356.19995117188
1433.57124758159	1343.19995117188
1434.21236886255	1335.59997558594
1434.85340713368	1340.80004882813
1435.49436240252	1352.59997558594
1436.13523467661	1363.40002441406
1436.77602396349	1363.80004882813
1437.41673027073	1372.59997558594
1438.05735360585	1362.19995117188
1438.69789397641	1359.80004882813
1439.33835138994	1363.40002441406
1439.978725854	1356.40002441406
1440.61901737612	1352.40002441406
1441.25922596385	1369.19995117188
1441.89935162473	1351.80004882813
1442.53939436631	1338.59997558594
1443.17935419612	1342.40002441406
1443.81923112171	1334.59997558594
1444.45902515061	1331.40002441406
1445.09873629038	1326.80004882813
1445.73836454854	1335.59997558594
1446.37790993265	1318.19995117188
1447.01737245024	1317
1447.65675210885	1332.19995117188
1448.29604891602	1332.40002441406
1448.93526287928	1335
1449.57439400618	1330
1450.21344230426	1317.80004882813
1450.85240778105	1330.40002441406
1451.49129044409	1345.59997558594
1452.13009030092	1341.40002441406
1452.76880735907	1355
1453.40744162608	1354.80004882813
1454.04599310949	1359.19995117188
1454.68446181683	1360.19995117188
1455.32284775564	1372
1455.96115093345	1362.59997558594
1456.5993713578	1345
1457.23750903623	1359.40002441406
1457.87556397626	1340.80004882813
1458.51353618543	1328.59997558594
1459.15142567127	1334
1459.78923244132	1329.80004882813
1460.42695650311	1333.80004882813
1461.06459786417	1336.59997558594
1461.70215653203	1336.59997558594
1462.33963251423	1344
1462.97702581829	1337.59997558594
1463.61433645175	1336.59997558594
1464.25156442214	1343.40002441406
1464.88870973699	1346.59997558594
1465.52577240382	1345
1466.16275243017	1347
1466.79964982356	1342.19995117188
1467.43646459154	1334.19995117188
1468.07319674161	1332.40002441406
1468.70984628132	1343.80004882813
1469.34641321818	1350.40002441406
1469.98289755974	1355.19995117188
1470.6192993135	1343.80004882813
1471.25561848701	1344.59997558594
1471.89185508779	1342
1472.52800912336	1352
1473.16408060124	1345.40002441406
1473.80006952897	1346.59997558594
1474.43597591407	1344.19995117188
1475.07179976406	1335
1475.70754108647	1339.80004882813
1476.34319988883	1344
1476.97877617865	1353.59997558594
1477.61426996345	1360.80004882813
1478.24968125077	1351.80004882813
1478.88501004812	1364.19995117188
1479.52025636303	1366.59997558594
1480.15542020302	1346.40002441406
1480.79050157561	1357.40002441406
1481.42550048832	1353.40002441406
1482.06041694867	1340.59997558594
1482.69525096418	1345
1483.33000254237	1337
1483.96467169077	1336.40002441406
1484.59925841689	1332
1485.23376272825	1333.19995117188
1485.86818463237	1340.40002441406
1486.50252413677	1349.19995117188
1487.13678124896	1334.40002441406
1487.77095597646	1329
1488.4050483268	1340
1489.03905830749	1337.80004882813
1489.67298592604	1338
1490.30683118996	1327.80004882813
1490.9405941068	1348.59997558594
1491.57427468403	1336.59997558594
1492.2078729292	1356.80004882813
1492.84138884981	1345.19995117188
1493.47482245338	1351.40002441406
1494.10817374742	1348
1494.74144273944	1346
1495.37462943696	1359.19995117188
1496.0077338475	1359.19995117188
1496.64075597856	1371
1497.27369583765	1359.40002441406
1497.9065534323	1353.59997558594
1498.53932877001	1334.40002441406
1499.17202185829	1321.59997558594
1499.80463270465	1323.80004882813
1500.43716131661	1327
1501.06960770167	1319
1501.70197186735	1326.59997558594
1502.33425382116	1326.80004882813
1502.96645357059	1339.40002441406
1503.59857112317	1338.19995117188
1504.23060648641	1338.59997558594
1504.8625596678	1341.80004882813
1505.49443067486	1339.59997558594
1506.1262195151	1343.40002441406
1506.75792619602	1343.19995117188
1507.38955072513	1352.19995117188
1508.02109310993	1358
1508.65255335794	1372.40002441406
1509.28393147666	1356.59997558594
1509.91522747359	1349.80004882813
1510.54644135624	1342.40002441406
1511.17757313212	1339
1511.80862280872	1348.59997558594
1512.43959039356	1344.40002441406
1513.07047589413	1353.59997558594
1513.70127931795	1341.59997558594
1514.33200067251	1346.80004882813
1514.96263996531	1335.80004882813
1515.59319720386	1338.80004882813
1516.22367239567	1344.19995117188
1516.85406554822	1333.80004882813
1517.48437666903	1334.80004882813
1518.1146057656	1325.40002441406
1518.74475284542	1329.19995117188
1519.374817916	1338.59997558594
1520.00480098483	1342.40002441406
1520.63470205942	1340.40002441406
1521.26452114726	1329
1521.89425825586	1333
1522.52391339271	1319
1523.15348656531	1334.80004882813
1523.78297778116	1320.19995117188
1524.41238704775	1324
1525.04171437259	1319
1525.67095976317	1319.59997558594
1526.30012322699	1319.59997558594
1526.92920477154	1324.80004882813
1527.55820440432	1321.19995117188
1528.18712213283	1311.19995117188
1528.81595796455	1305.59997558594
1529.44471190699	1301.19995117188
1530.07338396764	1292.59997558594
1530.70197415399	1287.80004882813
1531.33048247353	1286.80004882813
1531.95890893377	1307.19995117188
1532.58725354219	1314.59997558594
1533.21551630629	1306.19995117188
1533.84369723356	1315.59997558594
1534.47179633148	1308.80004882813
1535.09981360757	1317.19995117188
1535.72774906929	1334.19995117188
1536.35560272415	1312.19995117188
1536.98337457963	1325.80004882813
1537.61106464323	1330.59997558594
1538.23867292243	1339.19995117188
1538.86619942473	1337.59997558594
1539.49364415762	1328
1540.12100712857	1329.19995117188
1540.74828834509	1331
1541.37548781466	1327.80004882813
1542.00260554478	1322.19995117188
1542.62964154291	1324.40002441406
1543.25659581655	1313.40002441406
1543.8834683732	1310.40002441406
1544.51025922034	1322.40002441406
1545.13696836544	1316.40002441406
1545.76359581601	1301.19995117188
1546.39014157952	1294.19995117188
1547.01660566345	1293
1547.64298807531	1290.19995117188
1548.26928882255	1304.19995117188
1548.89550791269	1290.59997558594
1549.52164535318	1295.40002441406
1550.14770115153	1296.80004882813
1550.77367531521	1292.40002441406
1551.39956785171	1293.80004882813
1552.0253787685	1299.80004882813
1552.65110807307	1304.80004882813
1553.2767557729	1307.19995117188
1553.90232187548	1314.80004882813
1554.52780638828	1307.40002441406
1555.15320931879	1310.80004882813
1555.77853067447	1301.19995117188
1556.40377046282	1303.80004882813
1557.02892869132	1307.80004882813
1557.65400536744	1297.59997558594
1558.27900049866	1303.40002441406
1558.90391409247	1306.19995117188
1559.52874615633	1310.59997558594
1560.15349669773	1306.40002441406
1560.77816572414	1315.40002441406
1561.40275324305	1308.80004882813
1562.02725926192	1313.59997558594
1562.65168378824	1316.19995117188
1563.27602682948	1326
1563.90028839311	1323.40002441406
1564.52446848662	1313
1565.14856711748	1315.59997558594
1565.77258429316	1320.80004882813
1566.39652002113	1314
1567.02037430887	1316.80004882813
1567.64414716387	1312.40002441406
1568.26783859357	1321.19995117188
1568.89144860547	1320
1569.51497720703	1308
1570.13842440573	1318.80004882813
1570.76179020904	1318.19995117188
1571.38507462442	1308.59997558594
1572.00827765936	1300
1572.63139932132	1311.19995117188
1573.25443961777	1302.80004882813
1573.87739855618	1302.40002441406
1574.50027614402	1300.59997558594
1575.12307238877	1296
1575.74578729789	1306
1576.36842087885	1312.40002441406
1576.99097313912	1306.80004882813
1577.61344408616	1314.59997558594
1578.23583372745	1315.40002441406
1578.85814207046	1304.59997558594
1579.48036912264	1304.19995117188
1580.10251489147	1304.59997558594
1580.72457938441	1297.40002441406
1581.34656260893	1294.80004882813
1581.9684645725	1298
1582.59028528258	1292.80004882813
1583.21202474663	1307.40002441406
1583.83368297212	1310.59997558594
1584.45525996652	1298.19995117188
1585.07675573728	1290.80004882813
1585.69817029188	1287
1586.31950363778	1285.19995117188
1586.94075578243	1286.80004882813
1587.5619267333	1288.19995117188
1588.18301649786	1285.59997558594
1588.80402508357	1284.40002441406
1589.42495249788	1282.59997558594
1590.04579874826	1278.19995117188
1590.66656384217	1269.80004882813
1591.28724778707	1263.19995117188
1591.90785059042	1267.80004882813
1592.52837225968	1264.40002441406
1593.14881280232	1265.59997558594
1593.76917222578	1258.19995117188
1594.38945053753	1261.40002441406
1595.00964774502	1276
1595.62976385573	1278.80004882813
1596.24979887709	1285.19995117188
1596.86975281657	1278
1597.48962568164	1267.40002441406
1598.10941747974	1282.40002441406
1598.72912821832	1273.40002441406
1599.34875790486	1280.19995117188
1599.9683065468	1275
1600.58777415159	1279.80004882813
1601.2071607267	1270.19995117188
1601.82646627958	1272
1602.44569081769	1270.80004882813
1603.06483434846	1265.59997558594
1603.68389687937	1258.59997558594
1604.30287841786	1260.19995117188
1604.92177897139	1249.80004882813
1605.54059854741	1254.40002441406
1606.15933715337	1252
1606.77799479672	1257.80004882813
1607.39657148492	1250.19995117188
1608.01506722542	1258.59997558594
1608.63348202566	1259.19995117188
1609.2518158931	1250.40002441406
1609.87006883519	1255.80004882813
1610.48824085939	1252.59997558594
1611.10633197312	1256.80004882813
1611.72434218386	1261
1612.34227149904	1281.59997558594
1612.96011992612	1255.80004882813
1613.57788747254	1253
1614.19557414575	1255.80004882813
1614.8131799532	1260.19995117188
1615.43070490234	1248.80004882813
1616.04814900061	1256
1616.66551225545	1257
1617.28279467433	1248.80004882813
1617.89999626467	1253.40002441406
1618.51711703393	1247.59997558594
1619.13415698955	1256.19995117188
1619.75111613898	1245.59997558594
1620.36799448966	1252
1620.98479204903	1254.19995117188
1621.60150882455	1247.40002441406
1622.21814482364	1241.80004882813
1622.83470005376	1241.59997558594
1623.45117452235	1257.59997558594
1624.06756823685	1263
1624.6838812047	1254.80004882813
1625.30011343335	1249
1625.91626493022	1252.59997558594
1626.53233570278	1244.40002441406
1627.14832575845	1252.19995117188
1627.76423510468	1265.59997558594
1628.38006374891	1264
1628.99581169857	1259.19995117188
1629.61147896111	1269.40002441406
1630.22706554397	1267.19995117188
1630.84257145457	1268.59997558594
1631.45799670038	1250.19995117188
1632.07334128881	1241
1632.6886052273	1236.80004882813
1633.3037885233	1220.59997558594
1633.91889118425	1219.19995117188
1634.53391321757	1237.80004882813
1635.1488546307	1230.59997558594
1635.76371543108	1233
1636.37849562616	1228.80004882813
1636.99319522335	1220.80004882813
1637.60781423009	1219.59997558594
1638.22235265383	1224
1638.83681050198	1233.40002441406
1639.451187782	1239.80004882813
1640.0654845013	1238
1640.67970066734	1248
1641.29383628752	1248
1641.9078913693	1240.59997558594
1642.5218659201	1226.80004882813
1643.13575994735	1230.80004882813
1643.74957345849	1231.40002441406
1644.36330646094	1231.59997558594
1644.97695896213	1238.59997558594
1645.59053096951	1238.59997558594
1646.20402249049	1239.19995117188
1646.8174335325	1251.40002441406
1647.43076410298	1244.80004882813
1648.04401420935	1255
1648.65718385905	1258.19995117188
1649.2702730595	1269.40002441406
1649.88328181812	1268.80004882813
1650.49621014236	1271.80004882813
1651.10905803963	1271.19995117188
1651.72182551735	1260
1652.33451258297	1251
1652.9471192439	1246.59997558594
1653.55964550757	1248.40002441406
1654.1720913814	1240.19995117188
1654.78445687283	1249.19995117188
1655.39674198926	1250.40002441406
1656.00894673814	1245.59997558594
1656.62107112688	1236.40002441406
1657.23311516291	1226
1657.84507885365	1239
1658.45696220652	1225.19995117188
1659.06876522895	1213.80004882813
1659.68048792835	1208.19995117188
1660.29213031217	1203.19995117188
1660.90369238779	1219
1661.51517416267	1212.59997558594
1662.12657564421	1210.19995117188
1662.73789683984	1212.19995117188
1663.34913775697	1214.40002441406
1663.96029840303	1212.80004882813
1664.57137878544	1206
1665.18237891161	1196.19995117188
1665.79329878897	1196.40002441406
1666.40413842493	1191.19995117188
1667.01489782691	1197.59997558594
1667.62557700233	1199.59997558594
1668.2361759586	1193.40002441406
1668.84669470315	1193.19995117188
1669.4571332434	1208.59997558594
1670.06749158675	1193.80004882813
1670.67776974062	1185
1671.28796771243	1186.80004882813
1671.8980855096	1182.80004882813
1672.50812313954	1184.19995117188
1673.11808060967	1180.80004882813
1673.72795792739	1181.19995117188
1674.33775510013	1178
1674.9474721353	1175.59997558594
1675.55710904031	1181
1676.16666582257	1171.19995117188
1676.7761424895	1172.19995117188
1677.38553904851	1175
1677.99485550702	1176
1678.60409187243	1170.40002441406
1679.21324815215	1167.80004882813
1679.8223243536	1162.80004882813
1680.43132048419	1171
1681.04023655132	1174.19995117188
1681.64907256241	1174
1682.25782852487	1166
1682.86650444611	1162.80004882813
1683.47510033353	1163.59997558594
1684.08361619455	1167.19995117188
1684.69205203657	1174.19995117188
1685.300407867	1164.19995117188
1685.90868369325	1164.19995117188
1686.51687952272	1167.19995117188
1687.12499536283	1155.40002441406
1687.73303122098	1161.80004882813
1688.34098710457	1168.59997558594
1688.94886302101	1167
1689.55665897772	1157.19995117188
1690.16437498208	1152.59997558594
1690.77201104152	1155.59997558594
1691.37956716342	1155.80004882813
1691.9870433552	1164.19995117188
1692.59443962426	1166.80004882813
1693.20175597801	1161.40002441406
1693.80899242384	1154.80004882813
1694.41614896916	1166.59997558594
1695.02322562138	1167.19995117188
1695.63022238789	1146.80004882813
1696.23713927609	1157.40002441406
1696.8439762934	1162.40002441406
1697.4507334472	1160.40002441406
1698.05741074491	1151.40002441406
1698.66400819391	1162.19995117188
1699.27052580161	1151.80004882813
1699.87696357542	1156.19995117188
1700.48332152272	1139.80004882813
1701.08959965092	1138.80004882813
1701.69579796742	1151.19995117188
1702.30191647962	1151
1702.90795519491	1147.80004882813
1703.51391412069	1149.19995117188
1704.11979326437	1145
1704.72559263332	1142.80004882813
1705.33131223496	1145
1705.93695207668	1154
1706.54251216588	1145.59997558594
1707.14799250994	1143.40002441406
1707.75339311628	1144.59997558594
1708.35871399227	1144.40002441406
1708.96395514532	1128.19995117188
1709.56911658282	1139.19995117188
