634.948122577771	1164.40002441406
635.690341530823	1158.40002441406
636.43246851086	1160
637.174503525845	1166.80004882813
637.916446583745	1175.19995117188
638.658297692538	1174.40002441406
639.400056860179	1183.40002441406
640.141724094637	1188.80004882813
640.883299403885	1186.59997558594
641.62478279588	1190.80004882813
642.366174278594	1193.40002441406
643.107473859989	1185
643.848681548029	1193.59997558594
644.589797350679	1192.59997558594
645.330821275901	1184.80004882813
646.071753331665	1183.59997558594
646.812593525922	1172.19995117188
647.553341866646	1173.59997558594
648.293998361798	1173.40002441406
649.03456301933	1177.19995117188
649.775035847216	1176
650.515416853409	1171.19995117188
651.255706045874	1179
651.995903432568	1188.40002441406
652.736009021453	1185.40002441406
653.476022820486	1177.80004882813
654.215944837629	1182.19995117188
654.955775080842	1180.19995117188
655.695513558081	1194.59997558594
656.435160277301	1199.80004882813
657.174715246465	1188.59997558594
657.914178473527	1204.19995117188
658.653549966449	1204
659.392829733176	1197.19995117188
660.132017781678	1195.40002441406
660.871114119901	1194.40002441406
661.610118755803	1187.40002441406
662.349031697343	1178.80004882813
663.087852952468	1195.19995117188
663.826582529139	1185
664.565220435305	1193.40002441406
665.30376667892	1180.59997558594
666.04222126794	1178.80004882813
666.780584210316	1192.59997558594
667.518855514	1185
668.25703518694	1181.59997558594
668.995123237096	1189.19995117188
669.733119672413	1186.40002441406
670.471024500842	1185.80004882813
671.208837730333	1194.80004882813
671.946559368839	1183
672.684189424308	1180.59997558594
673.421727904689	1176.19995117188
674.159174817929	1176.80004882813
674.896530171977	1171.59997558594
675.633793974786	1180.80004882813
676.370966234295	1184.19995117188
677.108046958461	1181
677.845036155219	1187.19995117188
678.581933832528	1183.80004882813
679.318739998323	1192.19995117188
680.055454660558	1192.80004882813
680.792077827172	1192
681.528609506116	1197.59997558594
682.265049705331	1198.80004882813
683.001398432759	1184
683.737655696349	1189.40002441406
684.47382150404	1185.80004882813
685.20989586378	1187.19995117188
685.945878783503	1184.59997558594
686.68177027116	1188.59997558594
687.417570334688	1185.59997558594
688.153278982032	1185.59997558594
688.888896221129	1198
689.624422059921	1191.40002441406
690.359856506349	1201.59997558594
691.095199568354	1189.19995117188
691.830451253874	1194.80004882813
692.565611570844	1183.59997558594
693.300680527212	1178.19995117188
694.03565813091	1175.59997558594
694.770544389877	1197.40002441406
695.505339312053	1183.80004882813
696.240042905372	1198.59997558594
696.974655177772	1195.19995117188
697.70917613719	1192
698.443605791561	1192.40002441406
699.177944148826	1186.59997558594
699.912191216909	1190.19995117188
700.646347003755	1201.19995117188
701.380411517295	1199
702.114384765465	1199.80004882813
702.848266756195	1205.19995117188
703.582057497421	1205
704.315756997074	1205.59997558594
705.049365263089	1198
705.782882303399	1211
706.516308125936	1202.80004882813
707.249642738626	1217
707.982886149403	1217.40002441406
708.716038366204	1209.80004882813
709.449099396949	1205.59997558594
710.182069249577	1212.40002441406
710.914947932009	1209.59997558594
711.647735452181	1201
712.380431818022	1179.80004882813
713.113037037454	1198
713.845551118411	1199.59997558594
714.577974068818	1197.80004882813
715.310305896604	1194
716.042546609694	1197.19995117188
716.774696216013	1201.59997558594
717.506754723493	1199.19995117188
718.238722140053	1214.80004882813
718.970598473624	1217.80004882813
719.702383732127	1210.80004882813
720.43407792349	1199.59997558594
721.165681055634	1207.19995117188
721.897193136486	1211
722.628614173966	1206.40002441406
723.359944175997	1216.40002441406
724.091183150505	1210
724.822331105412	1213.40002441406
725.553388048638	1208
726.284353988106	1201.40002441406
727.015228931734	1207.80004882813
727.746012887449	1208.80004882813
728.476705863162	1204.80004882813
729.207307866803	1207.80004882813
729.937818906289	1206.40002441406
730.668238989535	1215.19995117188
731.398568124459	1210.40002441406
732.128806318986	1221.59997558594
732.858953581034	1206.59997558594
733.589009918514	1206.59997558594
734.318975339348	1212.40002441406
735.048849851452	1213.80004882813
735.778633462744	1212.80004882813
736.508326181137	1204.19995117188
737.237928014549	1204.80004882813
737.967438970897	1206.19995117188
738.696859058095	1201.40002441406
739.426188284054	1207
740.155426656692	1195.19995117188
740.884574183922	1197
741.613630873659	1191.80004882813
742.342596733815	1197.80004882813
743.071471772302	1197.19995117188
743.800255997034	1203.80004882813
744.528949415921	1208.80004882813
745.257552036877	1205.40002441406
745.986063867811	1205.80004882813
746.714484916638	1207.19995117188
747.442815191261	1198.80004882813
748.171054699597	1204.19995117188
748.899203449554	1192.19995117188
749.627261449039	1196.59997558594
750.355228705966	1200
751.083105228239	1212.80004882813
751.810891023765	1207
752.538586100459	1227.80004882813
753.266190466218	1219.40002441406
753.99370412896	1220
754.721127096582	1209.40002441406
755.448459377	1212.19995117188
756.175700978114	1206
756.902851907828	1204.19995117188
757.629912174055	1207.59997558594
758.356881784688	1204.59997558594
759.083760747639	1214.80004882813
759.810549070817	1212.19995117188
760.537246762113	1208.40002441406
761.263853829442	1213.80004882813
761.990370280698	1208
762.716796123791	1222.19995117188
763.443131366618	1210.19995117188
764.169376017082	1209.59997558594
764.895530083085	1213.19995117188
765.621593572527	1216.80004882813
766.347566493312	1227.80004882813
767.073448853336	1235.59997558594
767.799240660502	1244.40002441406
768.524941922707	1248.40002441406
769.250552647854	1247
769.976072843836	1257.19995117188
770.701502518551	1263.40002441406
771.426841679905	1271
772.152090335793	1264.19995117188
772.877248494107	1268.40002441406
773.602316162747	1263.19995117188
774.327293349609	1261.19995117188
775.052180062592	1260.80004882813
775.776976309589	1265.40002441406
776.501682098496	1256.59997558594
777.226297437206	1249.80004882813
777.950822333616	1250.19995117188
778.675256795621	1237.80004882813
779.399600831111	1226.40002441406
780.123854447983	1236.80004882813
780.84801765413	1233
781.572090457441	1221.40002441406
782.296072865811	1218.80004882813
783.019964887131	1227.19995117188
783.743766529297	1211
784.467477800194	1224
785.191098707719	1221
785.914629259756	1217.19995117188
786.638069464194	1217.19995117188
787.361419328932	1220
788.084678861852	1221.59997558594
788.807848070845	1208.80004882813
789.530926963798	1218
790.253915548602	1220
790.976813833144	1219.40002441406
791.699621825307	1214
792.422339532986	1216.19995117188
793.144966964061	1208
793.86750412642	1202.40002441406
794.589951027946	1208.19995117188
795.312307676536	1217.40002441406
796.03457408006	1210.40002441406
796.756750246417	1205.80004882813
797.478836183477	1206.80004882813
798.200831899137	1205.59997558594
798.92273740127	1212.80004882813
799.644552697769	1207.80004882813
800.36627779651	1205.80004882813
801.087912705374	1209.80004882813
801.809457432251	1221.40002441406
802.530911985017	1216.40002441406
803.252276371558	1215
803.973550599748	1208
804.694734677472	1218.80004882813
805.415828612611	1221
806.136832413045	1224.19995117188
806.857746086646	1215.59997558594
807.578569641305	1217.59997558594
808.299303084892	1216.40002441406
809.019946425289	1214.40002441406
809.740499670372	1218.40002441406
810.460962828022	1219.80004882813
811.181335906114	1222.19995117188
811.901618912524	1211.40002441406
812.621811855131	1216.40002441406
813.341914741809	1218.59997558594
814.061927580433	1213
814.781850378881	1201.59997558594
815.501683145025	1204.80004882813
816.221425886743	1205
816.941078611903	1208.19995117188
817.660641328387	1198.19995117188
818.380114044065	1201
819.099496766808	1190.19995117188
819.818789504492	1198.19995117188
820.53799226499	1197.80004882813
821.257105056168	1203.80004882813
821.976127885904	1194.40002441406
822.695060762064	1202
823.413903692525	1205
824.132656685151	1210.19995117188
824.851319747817	1204.40002441406
825.569892888388	1211
826.288376114739	1217.40002441406
827.006769434737	1222.80004882813
827.725072856249	1216.59997558594
828.443286387142	1216.59997558594
829.161410035285	1204.80004882813
829.87944380855	1199.59997558594
830.597387714798	1209.40002441406
831.315241761898	1207.80004882813
832.033005957715	1211.40002441406
832.750680310119	1224.40002441406
833.468264826969	1218.19995117188
834.18575951614	1218
834.903164385486	1220.19995117188
835.620479442878	1214.59997558594
836.337704696181	1212.40002441406
837.054840153255	1208.80004882813
837.771885821962	1211
838.488841710172	1215
839.20570782574	1200.40002441406
839.922484176531	1215.59997558594
840.639170770409	1205
841.355767615231	1199.59997558594
842.072274718864	1210.40002441406
842.788692089164	1205.80004882813
843.505019733993	1207.59997558594
844.221257661209	1208.80004882813
844.937405878676	1209
845.65346439425	1208.19995117188
846.369433215789	1202
847.085312351156	1202.59997558594
847.801101808205	1204.80004882813
848.516801594793	1194.19995117188
849.232411718781	1196.19995117188
849.947932188021	1191.59997558594
850.663363010376	1196
851.378704193698	1183.19995117188
852.093955745842	1198.59997558594
852.809117674669	1200.80004882813
853.524189988028	1204.80004882813
854.239172693778	1203.59997558594
854.954065799768	1202.19995117188
855.668869313857	1214.59997558594
856.383583243899	1209.40002441406
857.098207597743	1208.40002441406
857.812742383246	1203.19995117188
858.527187608255	1206
859.241543280628	1205.40002441406
859.955809408218	1201
860.669985998868	1206.59997558594
861.384073060437	1211
862.098070600772	1212.19995117188
862.811978627724	1211.59997558594
863.52579714914	1212
864.239526172873	1211.40002441406
864.953165706776	1209.40002441406
865.666715758687	1214.80004882813
866.380176336464	1206.59997558594
867.093547447951	1200
867.806829100996	1206.80004882813
868.520021303444	1204.19995117188
869.233124063149	1201.40002441406
869.94613738795	1200.19995117188
870.659061285693	1189.59997558594
871.37189576423	1190.40002441406
872.084640831403	1196.80004882813
872.797296495057	1208.40002441406
873.509862763039	1222
874.22233964319	1212.59997558594
874.934727143353	1206.80004882813
875.647025271374	1209.59997558594
876.359234035097	1209.19995117188
877.071353442361	1201
877.783383501015	1213.59997558594
878.495324218895	1202
879.207175603844	1211.19995117188
879.918937663705	1207.80004882813
880.630610406318	1205.59997558594
881.342193839524	1214.80004882813
882.053687971161	1221
882.765092809069	1221.19995117188
883.476408361091	1210
884.187634635066	1206.40002441406
884.898771638828	1203.40002441406
885.609819380221	1202.40002441406
886.320777867076	1199.40002441406
887.031647107236	1198.19995117188
887.742427108536	1200.40002441406
888.453117878816	1199
889.16371942591	1206.59997558594
889.874231757652	1209.80004882813
890.584654881883	1212
891.294988806434	1208
892.005233539141	1200.59997558594
892.715389087837	1206.59997558594
893.42545546036	1203
894.135432664543	1205.80004882813
894.845320708216	1203.19995117188
895.555119599216	1205.80004882813
896.264829345375	1211
896.974449954526	1219.80004882813
897.683981434496	1222.40002441406
898.393423793125	1219
899.102777038235	1228
899.812041177664	1216
900.521216219239	1212.19995117188
901.230302170793	1219
901.939299040155	1224.40002441406
902.64820683515	1220.40002441406
903.357025563612	1215
904.065755233368	1221.59997558594
904.774395852247	1218.80004882813
905.482947428076	1213.59997558594
906.191409968682	1224.59997558594
906.899783481897	1221.40002441406
907.608067975538	1215.59997558594
908.316263457443	1217.80004882813
909.02436993543	1222.40002441406
909.732387417327	1218.19995117188
910.440315910959	1207.59997558594
911.148155424154	1204.59997558594
911.855905964731	1213.80004882813
912.563567540521	1216.80004882813
913.271140159339	1207.80004882813
913.978623829017	1210
914.686018557374	1209.80004882813
915.393324352237	1205.19995117188
916.100541221421	1210.80004882813
916.807669172752	1211.59997558594
917.514708214054	1208.59997558594
918.221658353142	1215.40002441406
918.928519597843	1210.40002441406
919.635291955976	1209
920.341975435358	1204
921.048570043813	1210.19995117188
921.75507578916	1218.19995117188
922.461492679212	1224.80004882813
923.167820721795	1213.40002441406
923.874059924726	1222.19995117188
924.58021029582	1215.80004882813
925.286271842893	1214.19995117188
925.992244573769	1217.19995117188
926.698128496262	1223.40002441406
927.403923618184	1216
928.109629947355	1222
928.815247491593	1211.19995117188
929.520776258708	1214.59997558594
930.226216256519	1218
930.931567492841	1215.19995117188
931.636829975482	1216.40002441406
932.342003712263	1206.80004882813
933.047088710995	1208.19995117188
933.752084979491	1203.80004882813
934.456992525564	1189
935.161811357024	1200.59997558594
935.866541481688	1194.40002441406
936.571182907363	1183
937.275735641861	1197.19995117188
937.980199692995	1197.80004882813
938.684575068572	1203.59997558594
939.388861776411	1201.40002441406
940.093059824311	1200.19995117188
940.797169220085	1206.59997558594
941.501189971544	1206.40002441406
942.205122086495	1210
942.908965572751	1192.19995117188
943.612720438111	1198.40002441406
944.316386690391	1198.59997558594
945.019964337391	1203.59997558594
945.723453386924	1196
946.426853846795	1213.59997558594
947.130165724808	1205.59997558594
947.83338902877	1199.59997558594
948.536523766488	1202.40002441406
949.239569945764	1201.59997558594
949.942527574402	1196
950.64539666021	1207
951.348177210993	1206.19995117188
952.050869234548	1198.40002441406
952.753472738683	1188
953.455987731199	1194.40002441406
954.158414219898	1200.40002441406
954.860752212587	1208.19995117188
955.563001717061	1198.19995117188
956.265162741124	1202.40002441406
956.967235292576	1207
957.669219379224	1195.80004882813
958.371115008857	1187.19995117188
959.072922189283	1191.59997558594
959.774640928301	1178.19995117188
960.476271233708	1185.19995117188
961.177813113301	1185.40002441406
961.879266574882	1192.40002441406
962.580631626248	1197.40002441406
963.281908275194	1194
963.98309652952	1194.19995117188
964.684196397022	1198.59997558594
965.3852078855	1201.40002441406
966.086131002745	1192.19995117188
966.786965756555	1193.80004882813
967.487712154726	1191.19995117188
968.188370205055	1208.59997558594
968.888939915331	1186.59997558594
969.589421293352	1202.19995117188
970.289814346909	1207.59997558594
970.990119083801	1205
971.690335511819	1211.19995117188
972.39046363875	1208.40002441406
973.090503472398	1201.80004882813
973.790455020545	1210.59997558594
974.490318290987	1207.40002441406
975.190093291516	1204.40002441406
975.889780029923	1207.40002441406
976.589378513998	1209.19995117188
977.288888751527	1213
977.988310750308	1195.40002441406
978.687644518122	1205
979.386890062767	1204.80004882813
980.086047392025	1197.40002441406
980.785116513689	1205
981.484097435542	1202.80004882813
982.182990165377	1196.80004882813
982.88179471098	1189.59997558594
983.580511080137	1199.80004882813
984.279139280632	1194.40002441406
984.977679320253	1202
985.67613120679	1191.59997558594
986.374494948027	1184.59997558594
987.072770551745	1194.80004882813
987.770958025731	1187.59997558594
988.469057377772	1206
989.167068615649	1197.40002441406
989.864991747145	1198.80004882813
990.562826780047	1197.59997558594
991.260573722134	1189.80004882813
991.958232581195	1184.19995117188
992.655803365003	1193.19995117188
993.353286081346	1186.59997558594
994.050680738006	1197.19995117188
994.74798734276	1216
995.44520590339	1205
996.142336427681	1204
996.839378923407	1211.80004882813
997.536333398348	1207
998.233199860289	1201.80004882813
998.929978317004	1188.59997558594
999.626668776274	1203.40002441406
1000.32327124587	1203.59997558594
1001.01978573359	1208
1001.71621224718	1198
1002.41255079445	1201.80004882813
1003.10880138315	1196.40002441406
1003.80496402107	1201
1004.50103871599	1199.19995117188
1005.19702547567	1202.40002441406
1005.8929243079	1209.40002441406
1006.58873522045	1210.19995117188
1007.2844582211	1213.40002441406
1007.98009331761	1206.80004882813
1008.67564051776	1210.80004882813
1009.37109982933	1203.80004882813
1010.06647126009	1207.80004882813
1010.7617548178	1206.80004882813
1011.45695051026	1207.80004882813
1012.15205834522	1200
1012.84707833045	1207
1013.54201047373	1204.59997558594
1014.23685478284	1207.80004882813
1014.93161126553	1204
1015.62627992959	1194.59997558594
1016.32086078277	1198.80004882813
1017.01535383285	1198.40002441406
1017.70975908761	1193.40002441406
1018.40407655479	1195
1019.09830624219	1196.80004882813
1019.79244815755	1200.80004882813
1020.48650230866	1202.19995117188
1021.18046870328	1196
1021.87434734917	1200.80004882813
1022.56813825411	1195.19995117188
1023.26184142584	1202.59997558594
1023.95545687216	1211.80004882813
1024.64898460082	1198.59997558594
1025.34242461957	1193.80004882813
1026.0357769362	1202.19995117188
1026.72904155846	1204
1027.42221849412	1204.19995117188
1028.11530775094	1208.80004882813
1028.80830933668	1207.19995117188
1029.50122325911	1199.59997558594
1030.19404952599	1203.40002441406
1030.88678814508	1205.59997558594
1031.57943912414	1197
1032.27200247093	1198.19995117188
1032.96447819323	1193
1033.65686629878	1194.59997558594
1034.34916679534	1184.40002441406
1035.04137969068	1189.19995117188
1035.73350499256	1191.40002441406
1036.42554270874	1193.19995117188
1037.11749284697	1183
1037.80935541501	1183.80004882813
1038.50113042062	1202
1039.19281787156	1183.80004882813
1039.88441777559	1193.40002441406
1040.57593014046	1189.40002441406
1041.26735497393	1197.40002441406
1041.95869228376	1193.80004882813
1042.6499420777	1196
1043.3411043635	1199.59997558594
1044.03217914893	1190.80004882813
1044.72316644174	1194
1045.41406624968	1201
1046.1048785805	1200.19995117188
1046.79560344197	1181.19995117188
1047.48624084182	1193.59997558594
1048.17679078783	1188.80004882813
1048.86725328774	1180.40002441406
1049.55762834929	1185.19995117188
1050.24791598025	1174.40002441406
1050.93811618837	1187.19995117188
1051.62822898139	1178
1052.31825436707	1169.80004882813
1053.00819235315	1179.19995117188
1053.6980429474	1183.19995117188
1054.38780615755	1183.59997558594
1055.07748199136	1186.19995117188
1055.76707045658	1178
1056.45657156095	1178.40002441406
1057.14598531222	1181.80004882813
1057.83531171814	1170.80004882813
1058.52455078646	1177.19995117188
1059.21370252494	1182.40002441406
1059.90276694129	1182.80004882813
1060.5917440433	1198.19995117188
1061.28063383868	1190
1061.9694363352	1190.80004882813
1062.65815154059	1203.40002441406
1063.34677946261	1191.19995117188
1064.03532010899	1184.59997558594
1064.72377348748	1174.19995117188
1065.41213960583	1171.40002441406
1066.10041847177	1173.19995117188
1066.78861009306	1173.80004882813
1067.47671447743	1175
1068.16473163263	1175.80004882813
1068.85266156639	1188.59997558594
1069.54050428647	1180.80004882813
1070.2282598006	1188.59997558594
1070.91592811652	1193
1071.60350924198	1183.59997558594
1072.29100318471	1184
1072.97840995245	1186.59997558594
1073.66572955295	1185.80004882813
1074.35296199394	1186
1075.04010728316	1183.19995117188
1075.72716542836	1196.19995117188
1076.41413643726	1187.40002441406
1077.10102031761	1192.80004882813
1077.78781707715	1189
1078.4745267236	1205
1079.16114926471	1195
1079.84768470822	1189.40002441406
1080.53413306185	1203.80004882813
1081.22049433336	1201.19995117188
1081.90676853046	1214
1082.5929556609	1204.80004882813
1083.27905573241	1199
1083.96506875272	1192.19995117188
1084.65099472957	1189.59997558594
1085.3368336707	1189.40002441406
1086.02258558383	1184.80004882813
1086.70825047669	1192.80004882813
1087.39382835703	1188.80004882813
1088.07931923257	1189.80004882813
1088.76472311104	1192.40002441406
1089.45004000018	1188.80004882813
1090.13526990771	1196
1090.82041284137	1205.19995117188
1091.50546880889	1201.80004882813
1092.19043781799	1202.59997558594
1092.87531987642	1204.59997558594
1093.56011499188	1207.80004882813
1094.24482317212	1188.40002441406
1094.92944442486	1195.19995117188
1095.61397875783	1188.40002441406
1096.29842617876	1180.59997558594
1096.98278669537	1182.40002441406
1097.6670603154	1182.80004882813
1098.35124704656	1184.59997558594
1099.03534689659	1183.59997558594
1099.71935987322	1196.80004882813
1100.40328598416	1196.80004882813
1101.08712523713	1190
1101.77087763988	1194.19995117188
1102.45454320012	1195.40002441406
1103.13812192557	1199.19995117188
1103.82161382396	1196.80004882813
1104.50501890301	1201.40002441406
1105.18833717045	1197.19995117188
1105.87156863399	1198
1106.55471330137	1190.40002441406
1107.2377711803	1203.19995117188
1107.9207422785	1206.40002441406
1108.60362660369	1205
1109.2864241636	1203.59997558594
1109.96913496594	1192.59997558594
1110.65175901844	1206
1111.33429632882	1201.80004882813
1112.01674690479	1195
1112.69911075408	1208.19995117188
1113.38138788439	1197.59997558594
1114.06357830346	1193
1114.745682019	1190
1115.42769903872	1190.19995117188
1116.10962937035	1193.80004882813
1116.7914730216	1188.59997558594
1117.47323000018	1199
1118.15490031382	1208
1118.83648397022	1204.40002441406
1119.51798097712	1212
1120.1993913422	1199
1120.88071507321	1199.59997558594
1121.56195217784	1187.19995117188
1122.24310266381	1184.19995117188
1122.92416653884	1186.80004882813
1123.60514381064	1186.59997558594
1124.28603448692	1191.59997558594
1124.9668385754	1209.40002441406
1125.64755608378	1210
1126.32818701978	1207
1127.00873139111	1208.59997558594
1127.68918920548	1210.59997558594
1128.3695604706	1209.40002441406
1129.04984519419	1205.40002441406
1129.73004338394	1202.40002441406
1130.41015504758	1197.19995117188
1131.09018019281	1194.19995117188
1131.77011882734	1195.19995117188
1132.44997095888	1188.80004882813
1133.12973659514	1196.59997558594
1133.80941574381	1198.40002441406
1134.48900841263	1202.59997558594
1135.16851460927	1199.80004882813
1135.84793434147	1202.40002441406
1136.52726761692	1196.40002441406
1137.20651444333	1188
1137.8856748284	1184.80004882813
1138.56474877984	1182.59997558594
1139.24373630536	1179.19995117188
1139.92263741265	1186.19995117188
1140.60145210943	1190
1141.28018040339	1196.80004882813
1141.95882230225	1207
1142.6373778137	1198.19995117188
1143.31584694545	1208.19995117188
1143.99422970519	1207.19995117188
1144.67252610064	1203.19995117188
1145.35073613949	1205.40002441406
1146.02885982944	1207.59997558594
1146.7068971782	1203.80004882813
1147.38484819347	1192.40002441406
1148.06271288294	1190.59997558594
1148.74049125432	1191.59997558594
1149.41818331531	1197
1150.0957890736	1203.80004882813
1150.77330853689	1201.40002441406
1151.45074171289	1206.59997558594
1152.12808860928	1200.40002441406
1152.80534923378	1200
1153.48252359407	1199
1154.15961169786	1188.40002441406
1154.83661355283	1192.40002441406
1155.51352916669	1188.19995117188
1156.19035854713	1189
1156.86710170185	1183.40002441406
1157.54375863855	1195
1158.22032936491	1187.40002441406
1158.89681388863	1190.19995117188
1159.57321221741	1205.80004882813
1160.24952435894	1201.80004882813
1160.92575032092	1202.80004882813
1161.60189011103	1200
1162.27794373697	1216.40002441406
1162.95391120644	1210
1163.62979252712	1202.80004882813
1164.3055877067	1199
1164.98129675288	1199.80004882813
1165.65691967336	1205
1166.33245647581	1201.19995117188
1167.00790716792	1195.59997558594
1167.6832717574	1200.59997558594
1168.35855025193	1205.59997558594
1169.0337426592	1190.80004882813
1169.70884898689	1199.40002441406
1170.3838692427	1189.19995117188
1171.05880343431	1190.19995117188
1171.73365156941	1191
1172.40841365569	1201.59997558594
1173.08308970083	1210.59997558594
1173.75767971253	1203.40002441406
1174.43218369847	1213
1175.10660166633	1214
1175.7809336238	1205.40002441406
1176.45517957857	1200.59997558594
1177.12933953832	1195.19995117188
1177.80341351073	1201.59997558594
1178.47740150349	1203.59997558594
1179.15130352429	1209.19995117188
1179.8251195808	1210.19995117188
1180.49884968071	1220.80004882813
1181.1724938317	1221.19995117188
1181.84605204145	1216.40002441406
1182.51952431766	1214.80004882813
1183.19291066799	1209.80004882813
1183.86621110013	1214.59997558594
1184.53942562176	1209.80004882813
1185.21255424057	1206.40002441406
1185.88559696422	1206.19995117188
1186.55855380041	1201.80004882813
1187.2314247568	1206.80004882813
1187.90420984109	1213
1188.57690906095	1222.19995117188
1189.24952242405	1220.59997558594
1189.92204993808	1216.59997558594
1190.59449161071	1221.40002441406
1191.26684744962	1211.80004882813
1191.93911746249	1206.80004882813
1192.61130165699	1207.59997558594
1193.28340004081	1211.40002441406
1193.95541262161	1215.19995117188
1194.62733940707	1211.40002441406
1195.29918040487	1215.80004882813
1195.97093562269	1203.40002441406
1196.64260506819	1214.59997558594
1197.31418874905	1206
1197.98568667295	1206.19995117188
1198.65709884755	1208.40002441406
1199.32842528053	1207.19995117188
1199.99966597957	1212.59997558594
1200.67082095234	1205.80004882813
1201.3418902065	1193.59997558594
1202.01287374974	1184.19995117188
1202.68377158971	1190
1203.3545837341	1188.80004882813
1204.02531019057	1202
1204.6959509668	1209
1205.36650607045	1204.19995117188
1206.03697550919	1206.40002441406
1206.70735929069	1200
1207.37765742263	1207.80004882813
1208.04786991266	1209.40002441406
1208.71799676846	1202.19995117188
1209.38803799769	1207.40002441406
1210.05799360803	1205
1210.72786360714	1201.19995117188
1211.39764800268	1198.59997558594
1212.06734680233	1189.19995117188
1212.73696001375	1186.59997558594
1213.4064876446	1190
1214.07592970255	1197.80004882813
1214.74528619526	1203.19995117188
1215.4145571304	1188.80004882813
1216.08374251564	1195.80004882813
1216.75284235863	1190
1217.42185666704	1194.19995117188
1218.09078544854	1183.19995117188
1218.75962871078	1182.19995117188
1219.42838646143	1178.80004882813
1220.09705870816	1176.40002441406
1220.76564545861	1186.19995117188
1221.43414672046	1191.19995117188
1222.10256250136	1191.40002441406
1222.77089280898	1190.59997558594
1223.43913765098	1190.40002441406
1224.107297035	1203.80004882813
1224.77537096873	1206.59997558594
1225.44335945981	1198.19995117188
1226.1112625159	1195.40002441406
1226.77908014467	1186
1227.44681235376	1196.19995117188
1228.11445915085	1188.40002441406
1228.78202054357	1187.59997558594
1229.44949653961	1197.80004882813
1230.11688714659	1188
1230.7841923722	1178.59997558594
1231.45141222407	1194.80004882813
1232.11854670988	1179.80004882813
1232.78559583726	1171.19995117188
1233.45255961388	1179.59997558594
1234.1194380474	1183.40002441406
1234.78623114546	1186.59997558594
1235.45293891572	1186.19995117188
1236.11956136583	1192.80004882813
1236.78609850345	1193.59997558594
1237.45255033623	1195
1238.11891687182	1197.59997558594
1238.78519811788	1181.19995117188
1239.45139408205	1185.59997558594
1240.11750477198	1181
1240.78353019534	1190.19995117188
1241.44947035976	1184.80004882813
1242.11532527291	1180.59997558594
1242.78109494242	1177
1243.44677937595	1179.59997558594
1244.11237858115	1185.40002441406
1244.77789256567	1175.19995117188
1245.44332133715	1185.59997558594
1246.10866490325	1180.80004882813
1246.7739232716	1194.80004882813
1247.43909644987	1192.19995117188
1248.10418444569	1193
1248.76918726671	1188.80004882813
1249.43410492059	1181.19995117188
1250.09893741496	1174.40002441406
1250.76368475747	1181.40002441406
1251.42834695576	1184.80004882813
1252.09292401749	1180.40002441406
1252.75741595029	1185.40002441406
1253.42182276182	1179.19995117188
1254.08614445971	1187.59997558594
1254.75038105161	1177.80004882813
1255.41453254515	1178.59997558594
1256.07859894799	1183.59997558594
1256.74258026777	1177.59997558594
1257.40647651213	1173.80004882813
1258.0702876887	1168
1258.73401380514	1182.80004882813
1259.39765486908	1180.40002441406
1260.06121088817	1183.80004882813
1260.72468187004	1185.59997558594
1261.38806782233	1190.40002441406
1262.05136875269	1182.40002441406
1262.71458466875	1188.40002441406
1263.37771557815	1186
1264.04076148854	1192.19995117188
1264.70372240753	1193.40002441406
1265.3665983428	1188
1266.02938930195	1178.80004882813
1266.69209529263	1182.80004882813
1267.35471632249	1191.40002441406
1268.01725239914	1188.59997558594
1268.67970353024	1178.80004882813
1269.34206972342	1189.80004882813
1270.00435098631	1176.80004882813
1270.66654732655	1171.40002441406
1271.32865875177	1170.19995117188
1271.9906852696	1183
1272.65262688768	1186
1273.31448361365	1192.80004882813
1273.97625545514	1185.19995117188
1274.63794241978	1183
1275.2995445152	1181.19995117188
1275.96106174903	1184.40002441406
1276.62249412892	1181.19995117188
1277.28384166248	1193.19995117188
1277.94510435735	1189.59997558594
1278.60628222116	1196.59997558594
1279.26737526155	1188.80004882813
1279.92838348613	1189.19995117188
1280.58930690255	1193.80004882813
1281.25014551842	1181.19995117188
1281.91089934139	1177.40002441406
1282.57156837907	1183.59997558594
1283.2321526391	1182
1283.89265212911	1187.80004882813
1284.55306685671	1180
1285.21339682955	1172.19995117188
1285.87364205525	1174.19995117188
1286.53380254142	1168.59997558594
1287.19387829571	1168.59997558594
1287.85386932573	1170
1288.51377563911	1180.59997558594
1289.17359724348	1187.19995117188
1289.83333414646	1182.80004882813
1290.49298635567	1184.19995117188
1291.15255387874	1191.80004882813
1291.8120367233	1187.19995117188
1292.47143489696	1195.80004882813
1293.13074840736	1188.59997558594
1293.7899772621	1188
1294.44912146882	1194
1295.10818103513	1190.80004882813
1295.76715596866	1182.19995117188
1296.42604627704	1180.19995117188
1297.08485196787	1200.59997558594
1297.74357304878	1191.59997558594
1298.4022095274	1196
1299.06076141134	1193.80004882813
1299.71922870821	1210.19995117188
1300.37761142565	1203
1301.03590957126	1202
1301.69412315268	1202.59997558594
1302.3522521775	1205.59997558594
1303.01029665336	1197.19995117188
1303.66825658787	1188.40002441406
1304.32613198865	1192.19995117188
1304.98392286332	1203.19995117188
1305.64162921948	1212
1306.29925106476	1220.80004882813
1306.95678840677	1209.80004882813
1307.61424125312	1207.59997558594
1308.27160961145	1201.80004882813
1308.92889348934	1196.19995117188
1309.58609289443	1199.19995117188
1310.24320783432	1203.40002441406
1310.90023831664	1205.19995117188
1311.55718434898	1205.59997558594
1312.21404593897	1199.80004882813
1312.87082309421	1203.40002441406
1313.52751582233	1199.80004882813
1314.18412413092	1198
1314.84064802761	1207
1315.49708752	1190
1316.1534426157	1191.59997558594
1316.80971332233	1207.59997558594
1317.46589964749	1193
1318.1220015988	1196
1318.77801918386	1204.40002441406
1319.43395241028	1197.80004882813
1320.08980128567	1204.80004882813
1320.74556581764	1207
1321.4012460138	1201.40002441406
1322.05684188176	1199.59997558594
1322.71235342911	1199.40002441406
1323.36778066347	1193
1324.02312359245	1202.59997558594
1324.67838222365	1203
1325.33355656468	1203.80004882813
1325.98864662314	1201.40002441406
1326.64365240663	1202.59997558594
1327.29857392277	1197
1327.95341117915	1196.80004882813
1328.60816418339	1201.59997558594
1329.26283294308	1193.59997558594
1329.91741746582	1182
1330.57191775923	1194
1331.2263338309	1198
1331.88066568843	1188.80004882813
1332.53491333943	1182.59997558594
1333.1890767915	1192.59997558594
1333.84315605224	1185.19995117188
1334.49715112925	1197
1335.15106203013	1193
1335.80488876249	1192.19995117188
1336.45863133391	1192.40002441406
1337.112289752	1181
1337.76586402437	1180.19995117188
1338.4193541586	1190.80004882813
1339.0727601623	1193
1339.72608204306	1189.80004882813
1340.37931980849	1194.80004882813
1341.03247346617	1187.59997558594
1341.68554302372	1192.19995117188
1342.33852848871	1186.80004882813
1342.99142986876	1192.80004882813
1343.64424717145	1190.59997558594
1344.29698040438	1202
1344.94962957515	1194.80004882813
1345.60219469135	1204.19995117188
1346.25467576058	1205.80004882813
1346.90707279042	1202.80004882813
1347.55938578848	1204.59997558594
1348.21161476235	1215
1348.86375971962	1205.40002441406
1349.51582066787	1213.40002441406
1350.16779761472	1201.80004882813
1350.81969056774	1217.40002441406
1351.47149953453	1215.19995117188
1352.12322452269	1218.59997558594
1352.77486553979	1219.19995117188
1353.42642259344	1231.59997558594
1354.07789569122	1226.59997558594
1354.72928484072	1224
1355.38059004953	1233.59997558594
1356.03181132525	1230.59997558594
1356.68294867545	1234.40002441406
1357.33400210773	1240.40002441406
1357.98497162968	1233.40002441406
1358.63585724889	1233.59997558594
1359.28665897294	1230.40002441406
1359.93737680942	1227.80004882813
1360.58801076591	1235.59997558594
1361.23856085001	1232.80004882813
1361.88902706929	1235
1362.53940943135	1238
1363.18970794377	1236.80004882813
1363.83992261413	1229.80004882813
1364.49005345003	1244
1365.14010045904	1245.80004882813
1365.79006364874	1227.59997558594
1366.43994302673	1235.19995117188
1367.08973860058	1239.19995117188
1367.73945037788	1232.80004882813
1368.38907836621	1227
1369.03862257315	1228
1369.68808300629	1226.80004882813
1370.3374596732	1212.59997558594
1370.98675258148	1215.19995117188
1371.63596173868	1210.40002441406
1372.28508715241	1209.19995117188
1372.93412883024	1200.19995117188
1373.58308677974	1202.19995117188
1374.2319610085	1197.80004882813
1374.8807515241	1185.40002441406
1375.52945833412	1189.19995117188
1376.17808144612	1192
1376.82662086771	1185
1377.47507660644	1177
1378.12344866989	1173.59997558594
1378.77173706565	1178
1379.41994180129	1175.80004882813
1380.06806288439	1172.80004882813
1380.71610032252	1181.80004882813
1381.36405412326	1176.19995117188
1382.01192429419	1180.59997558594
1382.65971084287	1174.59997558594
1383.30741377688	1170.19995117188
1383.95503310381	1179.40002441406
1384.60256883121	1178.80004882813
1385.25002096667	1180.40002441406
1385.89738951775	1180.59997558594
1386.54467449204	1178.59997558594
1387.19187589709	1174.19995117188
1387.8389937405	1178.40002441406
1388.48602802982	1175
1389.13297877262	1171
1389.77984597649	1169.40002441406
1390.42662964899	1183.59997558594
1391.07332979768	1175.19995117188
1391.71994643015	1178.19995117188
1392.36647955395	1170.40002441406
1393.01292917667	1176
1393.65929530586	1174.40002441406
1394.3055779491	1171
1394.95177711395	1173.19995117188
1395.59789280799	1179
1396.24392503877	1178.19995117188
1396.88987381387	1173
1397.53573914086	1167
1398.1815210273	1165.59997558594
1398.82721948075	1174.80004882813
1399.47283450878	1174.40002441406
1400.11836611897	1175.19995117188
1400.76381431886	1178
1401.40917911603	1169
1402.05446051805	1156.80004882813
1402.69965853247	1155.40002441406
1403.34477316686	1168.40002441406
1403.98980442878	1159.80004882813
1404.6347523258	1161.80004882813
1405.27961686548	1160.80004882813
1405.92439805538	1161
1406.56909590306	1168.59997558594
1407.21371041608	1164
1407.85824160202	1172.80004882813
1408.50268946841	1162.59997558594
1409.14705402284	1162.59997558594
1409.79133527285	1172.40002441406
1410.43553322601	1174.19995117188
1411.07964788987	1168.59997558594
1411.723679272	1169
1412.36762737996	1181.59997558594
1413.01149222129	1172.80004882813
1413.65527380357	1177.19995117188
1414.29897213435	1180
1414.94258722118	1170.80004882813
1415.58611907163	1179.40002441406
1416.22956769325	1169.80004882813
1416.87293309359	1170.80004882813
1417.51621528021	1165
1418.15941426067	1174.80004882813
1418.80253004253	1169
1419.44556263333	1168.80004882813
1420.08851204063	1176.19995117188
1420.731378272	1177.40002441406
1421.37416133497	1179
1422.0168612371	1186.59997558594
1422.65947798596	1185.40002441406
1423.30201158908	1179.80004882813
1423.94446205403	1182.59997558594
1424.58682938835	1178.19995117188
1425.2291135996	1177.59997558594
1425.87131469532	1183.59997558594
1426.51343268308	1191
1427.15546757042	1178.40002441406
1427.79741936488	1185
1428.43928807403	1169.40002441406
1429.0810737054	1181.59997558594
1429.72277626656	1179.40002441406
1430.36439576504	1167.80004882813
1431.00593220841	1171
1431.64738560419	1162.40002441406
1432.28875595995	1164.40002441406
1432.93004328324	1169.19995117188
1433.57124758159	1163.19995117188
1434.21236886255	1163.59997558594
1434.85340713368	1161.80004882813
1435.49436240252	1172.80004882813
1436.13523467661	1184.80004882813
1436.77602396349	1180
1437.41673027073	1179.59997558594
1438.05735360585	1180
1438.69789397641	1176.40002441406
1439.33835138994	1186.19995117188
1439.978725854	1183.59997558594
1440.61901737612	1178.80004882813
1441.25922596385	1178.40002441406
1441.89935162473	1174.80004882813
1442.53939436631	1177
1443.17935419612	1170.40002441406
1443.81923112171	1171.80004882813
1444.45902515061	1164.19995117188
1445.09873629038	1158
1445.73836454854	1159
1446.37790993265	1157.40002441406
1447.01737245024	1157.40002441406
1447.65675210885	1153.80004882813
1448.29604891602	1159.40002441406
1448.93526287928	1155
1449.57439400618	1166.19995117188
1450.21344230426	1164
1450.85240778105	1163.40002441406
1451.49129044409	1163.19995117188
1452.13009030092	1169
1452.76880735907	1175
1453.40744162608	1170.19995117188
1454.04599310949	1182.40002441406
1454.68446181683	1172.59997558594
1455.32284775564	1177.59997558594
1455.96115093345	1181.19995117188
1456.5993713578	1183.59997558594
1457.23750903623	1174.40002441406
1457.87556397626	1161.59997558594
1458.51353618543	1166.19995117188
1459.15142567127	1166.40002441406
1459.78923244132	1155.80004882813
1460.42695650311	1168
1461.06459786417	1159.59997558594
1461.70215653203	1161.59997558594
1462.33963251423	1160.19995117188
1462.97702581829	1164
1463.61433645175	1163.19995117188
1464.25156442214	1162.19995117188
1464.88870973699	1162.59997558594
1465.52577240382	1166.59997558594
1466.16275243017	1165.19995117188
1466.79964982356	1158.80004882813
1467.43646459154	1160.80004882813
1468.07319674161	1165.19995117188
1468.70984628132	1158.80004882813
1469.34641321818	1164
1469.98289755974	1171.59997558594
1470.6192993135	1174.59997558594
1471.25561848701	1174.19995117188
1471.89185508779	1176.19995117188
1472.52800912336	1177
1473.16408060124	1165
1473.80006952897	1168.40002441406
1474.43597591407	1168
1475.07179976406	1165
1475.70754108647	1163.59997558594
1476.34319988883	1167.40002441406
1476.97877617865	1168.19995117188
1477.61426996345	1173.80004882813
1478.24968125077	1179.40002441406
1478.88501004812	1176.59997558594
1479.52025636303	1179.40002441406
1480.15542020302	1177
1480.79050157561	1178.59997558594
1481.42550048832	1180.80004882813
1482.06041694867	1180
1482.69525096418	1167
1483.33000254237	1166.59997558594
1483.96467169077	1171.19995117188
1484.59925841689	1166.40002441406
1485.23376272825	1162.59997558594
1485.86818463237	1163.59997558594
1486.50252413677	1165.40002441406
1487.13678124896	1169.19995117188
1487.77095597646	1169
1488.4050483268	1164.40002441406
1489.03905830749	1159.40002441406
1489.67298592604	1175.80004882813
1490.30683118996	1169.19995117188
1490.9405941068	1175.19995117188
1491.57427468403	1172.59997558594
1492.2078729292	1177.19995117188
1492.84138884981	1178.80004882813
1493.47482245338	1177.40002441406
1494.10817374742	1172.19995117188
1494.74144273944	1179.19995117188
1495.37462943696	1179.59997558594
1496.0077338475	1175.80004882813
1496.64075597856	1182.80004882813
1497.27369583765	1178
1497.9065534323	1179.19995117188
1498.53932877001	1165.80004882813
1499.17202185829	1162.59997558594
1499.80463270465	1167.19995117188
1500.43716131661	1171.80004882813
1501.06960770167	1159
1501.70197186735	1163.40002441406
1502.33425382116	1164.59997558594
1502.96645357059	1174.19995117188
1503.59857112317	1164.80004882813
1504.23060648641	1162.59997558594
1504.8625596678	1166.40002441406
1505.49443067486	1172.19995117188
1506.1262195151	1175.80004882813
1506.75792619602	1176.59997558594
1507.38955072513	1181.19995117188
1508.02109310993	1170.80004882813
1508.65255335794	1187.80004882813
1509.28393147666	1173
1509.91522747359	1170.40002441406
1510.54644135624	1171.40002441406
1511.17757313212	1172
1511.80862280872	1166.19995117188
1512.43959039356	1176.19995117188
1513.07047589413	1174
1513.70127931795	1177.40002441406
1514.33200067251	1178.40002441406
1514.96263996531	1180.59997558594
1515.59319720386	1170.59997558594
1516.22367239567	1177.59997558594
1516.85406554822	1169.19995117188
1517.48437666903	1174.19995117188
1518.1146057656	1169
1518.74475284542	1171
1519.374817916	1167.40002441406
1520.00480098483	1167.19995117188
1520.63470205942	1166.40002441406
1521.26452114726	1156.19995117188
1521.89425825586	1156.40002441406
1522.52391339271	1157.80004882813
1523.15348656531	1156
1523.78297778116	1156
1524.41238704775	1150.80004882813
1525.04171437259	1155
1525.67095976317	1153.19995117188
1526.30012322699	1151.80004882813
1526.92920477154	1150.80004882813
1527.55820440432	1144.19995117188
1528.18712213283	1148.40002441406
1528.81595796455	1141.80004882813
1529.44471190699	1137.59997558594
1530.07338396764	1138
1530.70197415399	1134.19995117188
1531.33048247353	1134
1531.95890893377	1128.19995117188
1532.58725354219	1132.80004882813
1533.21551630629	1143
1533.84369723356	1149
1534.47179633148	1151.80004882813
1535.09981360757	1159.59997558594
1535.72774906929	1155.59997558594
1536.35560272415	1157.80004882813
1536.98337457963	1154
1537.61106464323	1158
1538.23867292243	1160.19995117188
1538.86619942473	1156.19995117188
1539.49364415762	1156.40002441406
1540.12100712857	1160.80004882813
1540.74828834509	1160.19995117188
1541.37548781466	1154
1542.00260554478	1156.80004882813
1542.62964154291	1150
1543.25659581655	1143.19995117188
1543.8834683732	1148.40002441406
1544.51025922034	1156.19995117188
1545.13696836544	1151
1545.76359581601	1147.19995117188
1546.39014157952	1136.59997558594
1547.01660566345	1138.59997558594
1547.64298807531	1138.19995117188
1548.26928882255	1148.40002441406
1548.89550791269	1144.59997558594
1549.52164535318	1143.19995117188
1550.14770115153	1149.80004882813
1550.77367531521	1143
1551.39956785171	1139.59997558594
1552.0253787685	1140.80004882813
1552.65110807307	1145.40002441406
1553.2767557729	1140.80004882813
1553.90232187548	1138.80004882813
1554.52780638828	1148.40002441406
1555.15320931879	1145.80004882813
1555.77853067447	1143.59997558594
1556.40377046282	1154.19995117188
1557.02892869132	1153.19995117188
1557.65400536744	1166.40002441406
1558.27900049866	1152.19995117188
1558.90391409247	1159.59997558594
1559.52874615633	1150.40002441406
1560.15349669773	1149.19995117188
1560.77816572414	1153.40002441406
1561.40275324305	1157.40002441406
1562.02725926192	1159.40002441406
1562.65168378824	1153.80004882813
1563.27602682948	1168
1563.90028839311	1158
1564.52446848662	1169.40002441406
1565.14856711748	1164.19995117188
1565.77258429316	1157.80004882813
1566.39652002113	1161.59997558594
1567.02037430887	1155.40002441406
1567.64414716387	1165.59997558594
1568.26783859357	1172.59997558594
1568.89144860547	1161
1569.51497720703	1156.40002441406
1570.13842440573	1154.40002441406
1570.76179020904	1161.19995117188
1571.38507462442	1160.19995117188
1572.00827765936	1162.59997558594
1572.63139932132	1153.59997558594
1573.25443961777	1158.59997558594
1573.87739855618	1154.59997558594
1574.50027614402	1155.40002441406
1575.12307238877	1151.19995117188
1575.74578729789	1142.19995117188
1576.36842087885	1149.59997558594
1576.99097313912	1156.59997558594
1577.61344408616	1163.19995117188
1578.23583372745	1164.80004882813
1578.85814207046	1150.59997558594
1579.48036912264	1151.40002441406
1580.10251489147	1146.19995117188
1580.72457938441	1144
1581.34656260893	1145.19995117188
1581.9684645725	1138.19995117188
1582.59028528258	1137
1583.21202474663	1138.19995117188
1583.83368297212	1146
1584.45525996652	1151.80004882813
1585.07675573728	1136.59997558594
1585.69817029188	1135.19995117188
1586.31950363778	1136.19995117188
1586.94075578243	1132.80004882813
1587.5619267333	1133.59997558594
1588.18301649786	1132.80004882813
1588.80402508357	1132.19995117188
1589.42495249788	1131.59997558594
1590.04579874826	1131.19995117188
1590.66656384217	1122.80004882813
1591.28724778707	1126.19995117188
1591.90785059042	1122.80004882813
1592.52837225968	1122.80004882813
1593.14881280232	1118.59997558594
1593.76917222578	1130.19995117188
1594.38945053753	1119
1595.00964774502	1126.19995117188
1595.62976385573	1125.59997558594
1596.24979887709	1127.59997558594
1596.86975281657	1129.40002441406
1597.48962568164	1125
1598.10941747974	1129.19995117188
1598.72912821832	1123.59997558594
1599.34875790486	1132.59997558594
1599.9683065468	1127.19995117188
1600.58777415159	1135.80004882813
1601.2071607267	1128.59997558594
1601.82646627958	1128.59997558594
1602.44569081769	1121
1603.06483434846	1124.59997558594
1603.68389687937	1115.80004882813
1604.30287841786	1116.19995117188
1604.92177897139	1119
1605.54059854741	1110.40002441406
1606.15933715337	1107
1606.77799479672	1123.59997558594
1607.39657148492	1116.19995117188
1608.01506722542	1118.19995117188
1608.63348202566	1115.40002441406
1609.2518158931	1124
1609.87006883519	1116.59997558594
1610.48824085939	1118
1611.10633197312	1119.59997558594
1611.72434218386	1117.59997558594
1612.34227149904	1119.80004882813
1612.96011992612	1121.40002441406
1613.57788747254	1122
1614.19557414575	1118
1614.8131799532	1114.19995117188
1615.43070490234	1114.40002441406
1616.04814900061	1105.19995117188
1616.66551225545	1105.19995117188
1617.28279467433	1095.19995117188
1617.89999626467	1101.40002441406
1618.51711703393	1103
1619.13415698955	1100.40002441406
1619.75111613898	1104.19995117188
1620.36799448966	1112.40002441406
1620.98479204903	1104.19995117188
1621.60150882455	1104.59997558594
1622.21814482364	1104.59997558594
1622.83470005376	1099.40002441406
1623.45117452235	1104.40002441406
1624.06756823685	1100
1624.6838812047	1107.19995117188
1625.30011343335	1092.40002441406
1625.91626493022	1108
1626.53233570278	1112.80004882813
1627.14832575845	1104
1627.76423510468	1110
1628.38006374891	1104.80004882813
1628.99581169857	1114.19995117188
1629.61147896111	1116.59997558594
1630.22706554397	1111.19995117188
1630.84257145457	1116.80004882813
1631.45799670038	1106
1632.07334128881	1099.59997558594
1632.6886052273	1100
1633.3037885233	1091.19995117188
1633.91889118425	1102.19995117188
1634.53391321757	1100.19995117188
1635.1488546307	1101
1635.76371543108	1092.40002441406
1636.37849562616	1096.59997558594
1636.99319522335	1104
1637.60781423009	1095.19995117188
1638.22235265383	1107.80004882813
1638.83681050198	1102.40002441406
1639.451187782	1107.19995117188
1640.0654845013	1120.19995117188
1640.67970066734	1114.40002441406
1641.29383628752	1120.40002441406
1641.9078913693	1120.80004882813
1642.5218659201	1120.59997558594
1643.13575994735	1114.40002441406
1643.74957345849	1109.80004882813
1644.36330646094	1113.59997558594
1644.97695896213	1108.59997558594
1645.59053096951	1114.40002441406
1646.20402249049	1111.59997558594
1646.8174335325	1111.40002441406
1647.43076410298	1121.19995117188
1648.04401420935	1128
1648.65718385905	1125.40002441406
1649.2702730595	1130.40002441406
1649.88328181812	1142.19995117188
1650.49621014236	1141.19995117188
1651.10905803963	1129.59997558594
1651.72182551735	1122.80004882813
1652.33451258297	1120.80004882813
1652.9471192439	1117.80004882813
1653.55964550757	1114.80004882813
1654.1720913814	1111
1654.78445687283	1110.59997558594
1655.39674198926	1108
1656.00894673814	1110.19995117188
1656.62107112688	1100
1657.23311516291	1100.80004882813
1657.84507885365	1103.19995117188
1658.45696220652	1095.19995117188
1659.06876522895	1097.40002441406
1659.68048792835	1093
1660.29213031217	1089.59997558594
1660.90369238779	1091
1661.51517416267	1087.80004882813
1662.12657564421	1082
1662.73789683984	1079.19995117188
1663.34913775697	1085
1663.96029840303	1076.40002441406
1664.57137878544	1077.80004882813
1665.18237891161	1072.80004882813
1665.79329878897	1077
1666.40413842493	1081
1667.01489782691	1076.19995117188
1667.62557700233	1081.40002441406
1668.2361759586	1074.80004882813
1668.84669470315	1086
1669.4571332434	1077.40002441406
1670.06749158675	1074.80004882813
1670.67776974062	1073
1671.28796771243	1072.19995117188
1671.8980855096	1069.59997558594
1672.50812313954	1069.80004882813
1673.11808060967	1073
1673.72795792739	1061.80004882813
1674.33775510013	1068.40002441406
1674.9474721353	1071.19995117188
1675.55710904031	1070.59997558594
1676.16666582257	1072.59997558594
1676.7761424895	1059
1677.38553904851	1065.59997558594
1677.99485550702	1061.19995117188
1678.60409187243	1059.40002441406
1679.21324815215	1061.40002441406
1679.8223243536	1063.80004882813
1680.43132048419	1057.80004882813
1681.04023655132	1060.19995117188
1681.64907256241	1060
1682.25782852487	1057
1682.86650444611	1055.59997558594
1683.47510033353	1050.40002441406
1684.08361619455	1058.80004882813
1684.69205203657	1050.19995117188
1685.300407867	1062.40002441406
1685.90868369325	1062.40002441406
1686.51687952272	1059
1687.12499536283	1060.59997558594
1687.73303122098	1050.59997558594
1688.34098710457	1057.59997558594
1688.94886302101	1054
1689.55665897772	1052.80004882813
1690.16437498208	1054.40002441406
1690.77201104152	1047.80004882813
1691.37956716342	1045.19995117188
1691.9870433552	1047.59997558594
1692.59443962426	1045.80004882813
1693.20175597801	1055.80004882813
1693.80899242384	1054
1694.41614896916	1060.40002441406
1695.02322562138	1056.59997558594
1695.63022238789	1049.80004882813
1696.23713927609	1052.40002441406
1696.8439762934	1049.19995117188
1697.4507334472	1051.59997558594
1698.05741074491	1050
1698.66400819391	1050.19995117188
1699.27052580161	1045.59997558594
1699.87696357542	1047
1700.48332152272	1041
1701.08959965092	1042
1701.69579796742	1043.19995117188
1702.30191647962	1042.19995117188
1702.90795519491	1046
1703.51391412069	1039.19995117188
1704.11979326437	1046
1704.72559263332	1041
1705.33131223496	1036.80004882813
1705.93695207668	1043
1706.54251216588	1039.19995117188
1707.14799250994	1043.40002441406
1707.75339311628	1038
1708.35871399227	1023.20001220703
1708.96395514532	1032.80004882813
1709.56911658282	1033.59997558594
