634.948122577771	1035.40002441406
635.690341530823	1035.40002441406
636.43246851086	1031.40002441406
637.174503525845	1038
637.916446583745	1035
638.658297692538	1036
639.400056860179	1031.59997558594
640.141724094637	1034.59997558594
640.883299403885	1036.59997558594
641.62478279588	1041.19995117188
642.366174278594	1047.40002441406
643.107473859989	1039
643.848681548029	1045.19995117188
644.589797350679	1053
645.330821275901	1043.59997558594
646.071753331665	1041.59997558594
646.812593525922	1045.19995117188
647.553341866646	1036.59997558594
648.293998361798	1040.19995117188
649.03456301933	1044.40002441406
649.775035847216	1035.80004882813
650.515416853409	1042.59997558594
651.255706045874	1035.40002441406
651.995903432568	1040.40002441406
652.736009021453	1048.80004882813
653.476022820486	1046.59997558594
654.215944837629	1052.59997558594
654.955775080842	1045
655.695513558081	1041.80004882813
656.435160277301	1045.80004882813
657.174715246465	1044.19995117188
657.914178473527	1044.80004882813
658.653549966449	1042
659.392829733176	1049
660.132017781678	1040.19995117188
660.871114119901	1045.59997558594
661.610118755803	1048.19995117188
662.349031697343	1048.59997558594
663.087852952468	1038.19995117188
663.826582529139	1039.19995117188
664.565220435305	1041.80004882813
665.30376667892	1039.40002441406
666.04222126794	1045.40002441406
666.780584210316	1042.19995117188
667.518855514	1043
668.25703518694	1048
668.995123237096	1043.59997558594
669.733119672413	1048.40002441406
670.471024500842	1051.40002441406
671.208837730333	1042.59997558594
671.946559368839	1039.40002441406
672.684189424308	1037.19995117188
673.421727904689	1034.19995117188
674.159174817929	1026
674.896530171977	1034
675.633793974786	1039.80004882813
676.370966234295	1038.59997558594
677.108046958461	1040.40002441406
677.845036155219	1037.59997558594
678.581933832528	1042.80004882813
679.318739998323	1043.80004882813
680.055454660558	1049.40002441406
680.792077827172	1048.80004882813
681.528609506116	1057.40002441406
682.265049705331	1056.40002441406
683.001398432759	1050.19995117188
683.737655696349	1043.19995117188
684.47382150404	1040.80004882813
685.20989586378	1042.19995117188
685.945878783503	1040.40002441406
686.68177027116	1047.19995117188
687.417570334688	1038.40002441406
688.153278982032	1041.59997558594
688.888896221129	1045.40002441406
689.624422059921	1040.40002441406
690.359856506349	1045.40002441406
691.095199568354	1048.40002441406
691.830451253874	1039.59997558594
692.565611570844	1042.80004882813
693.300680527212	1049.80004882813
694.03565813091	1054.19995117188
694.770544389877	1041
695.505339312053	1037.80004882813
696.240042905372	1034.40002441406
696.974655177772	1038.19995117188
697.70917613719	1032.40002441406
698.443605791561	1042
699.177944148826	1045.19995117188
699.912191216909	1040.40002441406
700.646347003755	1044
701.380411517295	1044.40002441406
702.114384765465	1040.59997558594
702.848266756195	1044.59997558594
703.582057497421	1048.80004882813
704.315756997074	1045.40002441406
705.049365263089	1050.59997558594
705.782882303399	1052.19995117188
706.516308125936	1058.19995117188
707.249642738626	1056
707.982886149403	1058
708.716038366204	1057.40002441406
709.449099396949	1056.80004882813
710.182069249577	1052.59997558594
710.914947932009	1052.40002441406
711.647735452181	1059
712.380431818022	1056.40002441406
713.113037037454	1054.19995117188
713.845551118411	1051.19995117188
714.577974068818	1050
715.310305896604	1046.19995117188
716.042546609694	1042.19995117188
716.774696216013	1039.40002441406
717.506754723493	1046
718.238722140053	1046.80004882813
718.970598473624	1052.80004882813
719.702383732127	1053.40002441406
720.43407792349	1048
721.165681055634	1056.19995117188
721.897193136486	1051.19995117188
722.628614173966	1063.80004882813
723.359944175997	1059.19995117188
724.091183150505	1059
724.822331105412	1060.59997558594
725.553388048638	1054
726.284353988106	1054.19995117188
727.015228931734	1053.59997558594
727.746012887449	1059.19995117188
728.476705863162	1059.40002441406
729.207307866803	1066.19995117188
729.937818906289	1067.19995117188
730.668238989535	1056
731.398568124459	1057.80004882813
732.128806318986	1055.59997558594
732.858953581034	1054.19995117188
733.589009918514	1052.80004882813
734.318975339348	1053.40002441406
735.048849851452	1054.59997558594
735.778633462744	1054.19995117188
736.508326181137	1057.80004882813
737.237928014549	1052.40002441406
737.967438970897	1049.19995117188
738.696859058095	1052.19995117188
739.426188284054	1049.59997558594
740.155426656692	1051.19995117188
740.884574183922	1054
741.613630873659	1058.80004882813
742.342596733815	1055.40002441406
743.071471772302	1051.59997558594
743.800255997034	1053.19995117188
744.528949415921	1059.19995117188
745.257552036877	1058.59997558594
745.986063867811	1053.80004882813
746.714484916638	1051.40002441406
747.442815191261	1050.19995117188
748.171054699597	1054.80004882813
748.899203449554	1052.59997558594
749.627261449039	1057.59997558594
750.355228705966	1060.80004882813
751.083105228239	1052.80004882813
751.810891023765	1059.40002441406
752.538586100459	1062.19995117188
753.266190466218	1068
753.99370412896	1065.59997558594
754.721127096582	1057.59997558594
755.448459377	1055.19995117188
756.175700978114	1060.59997558594
756.902851907828	1052.59997558594
757.629912174055	1051.59997558594
758.356881784688	1053.59997558594
759.083760747639	1052.40002441406
759.810549070817	1057.59997558594
760.537246762113	1053
761.263853829442	1058.80004882813
761.990370280698	1063.59997558594
762.716796123791	1063.40002441406
763.443131366618	1059.59997558594
764.169376017082	1064.59997558594
764.895530083085	1058.59997558594
765.621593572527	1063.80004882813
766.347566493312	1063.19995117188
767.073448853336	1068.19995117188
767.799240660502	1071.40002441406
768.524941922707	1075.59997558594
769.250552647854	1068.59997558594
769.976072843836	1070.80004882813
770.701502518551	1075
771.426841679905	1075.59997558594
772.152090335793	1088
772.877248494107	1083.19995117188
773.602316162747	1083.40002441406
774.327293349609	1082
775.052180062592	1083.80004882813
775.776976309589	1087.80004882813
776.501682098496	1075.59997558594
777.226297437206	1077.59997558594
777.950822333616	1076
778.675256795621	1071
779.399600831111	1072.59997558594
780.123854447983	1071.19995117188
780.84801765413	1076
781.572090457441	1073.59997558594
782.296072865811	1070
783.019964887131	1068.59997558594
783.743766529297	1067.40002441406
784.467477800194	1063.59997558594
785.191098707719	1062
785.914629259756	1071.40002441406
786.638069464194	1063.59997558594
787.361419328932	1060.19995117188
788.084678861852	1063
788.807848070845	1059.59997558594
789.530926963798	1064.80004882813
790.253915548602	1063.59997558594
790.976813833144	1066
791.699621825307	1064.19995117188
792.422339532986	1062.40002441406
793.144966964061	1062.40002441406
793.86750412642	1064
794.589951027946	1064.59997558594
795.312307676536	1066
796.03457408006	1067.80004882813
796.756750246417	1063.19995117188
797.478836183477	1063.40002441406
798.200831899137	1065
798.92273740127	1061.59997558594
799.644552697769	1063.59997558594
800.36627779651	1065.40002441406
801.087912705374	1063.59997558594
801.809457432251	1065.80004882813
802.530911985017	1065
803.252276371558	1061.19995117188
803.973550599748	1062.80004882813
804.694734677472	1058.19995117188
805.415828612611	1054.80004882813
806.136832413045	1068
806.857746086646	1063.40002441406
807.578569641305	1067.80004882813
808.299303084892	1064.19995117188
809.019946425289	1057.40002441406
809.740499670372	1064.80004882813
810.460962828022	1062.80004882813
811.181335906114	1062
811.901618912524	1059.19995117188
812.621811855131	1053.19995117188
813.341914741809	1058.40002441406
814.061927580433	1066.19995117188
814.781850378881	1069.59997558594
815.501683145025	1067.59997558594
816.221425886743	1059.59997558594
816.941078611903	1060.19995117188
817.660641328387	1055.19995117188
818.380114044065	1059.40002441406
819.099496766808	1056
819.818789504492	1059.40002441406
820.53799226499	1053
821.257105056168	1060.40002441406
821.976127885904	1057.40002441406
822.695060762064	1051.59997558594
823.413903692525	1053.59997558594
824.132656685151	1050.59997558594
824.851319747817	1051.40002441406
825.569892888388	1061.80004882813
826.288376114739	1056.80004882813
827.006769434737	1055.19995117188
827.725072856249	1058.59997558594
828.443286387142	1052.19995117188
829.161410035285	1052.19995117188
829.87944380855	1050.80004882813
830.597387714798	1052.59997558594
831.315241761898	1052
832.033005957715	1057.19995117188
832.750680310119	1065.19995117188
833.468264826969	1063.19995117188
834.18575951614	1064.40002441406
834.903164385486	1062.59997558594
835.620479442878	1067.59997558594
836.337704696181	1071
837.054840153255	1072.19995117188
837.771885821962	1062.40002441406
838.488841710172	1060.80004882813
839.20570782574	1059.40002441406
839.922484176531	1062.80004882813
840.639170770409	1058.59997558594
841.355767615231	1052.59997558594
842.072274718864	1065
842.788692089164	1067.19995117188
843.505019733993	1064
844.221257661209	1061.59997558594
844.937405878676	1060.19995117188
845.65346439425	1060
846.369433215789	1059.40002441406
847.085312351156	1059
847.801101808205	1060.59997558594
848.516801594793	1065.40002441406
849.232411718781	1059
849.947932188021	1046
850.663363010376	1055.59997558594
851.378704193698	1053.40002441406
852.093955745842	1056.80004882813
852.809117674669	1060.80004882813
853.524189988028	1067.80004882813
854.239172693778	1065.19995117188
854.954065799768	1067.40002441406
855.668869313857	1063.80004882813
856.383583243899	1063.19995117188
857.098207597743	1060.19995117188
857.812742383246	1063.19995117188
858.527187608255	1055.59997558594
859.241543280628	1064.40002441406
859.955809408218	1060.40002441406
860.669985998868	1057.40002441406
861.384073060437	1064.80004882813
862.098070600772	1061.80004882813
862.811978627724	1067.19995117188
863.52579714914	1060.40002441406
864.239526172873	1060
864.953165706776	1058.19995117188
865.666715758687	1062.19995117188
866.380176336464	1060.59997558594
867.093547447951	1057.19995117188
867.806829100996	1070
868.520021303444	1057.59997558594
869.233124063149	1060.80004882813
869.94613738795	1068
870.659061285693	1056.19995117188
871.37189576423	1058.40002441406
872.084640831403	1062
872.797296495057	1066.80004882813
873.509862763039	1069.19995117188
874.22233964319	1060
874.934727143353	1064.59997558594
875.647025271374	1059.40002441406
876.359234035097	1062.80004882813
877.071353442361	1062.19995117188
877.783383501015	1065.80004882813
878.495324218895	1063.40002441406
879.207175603844	1066.80004882813
879.918937663705	1063.59997558594
880.630610406318	1060
881.342193839524	1063.59997558594
882.053687971161	1063.19995117188
882.765092809069	1060.40002441406
883.476408361091	1061.40002441406
884.187634635066	1057.40002441406
884.898771638828	1057.59997558594
885.609819380221	1058.40002441406
886.320777867076	1059.59997558594
887.031647107236	1059.40002441406
887.742427108536	1055.19995117188
888.453117878816	1063
889.16371942591	1058.59997558594
889.874231757652	1060.59997558594
890.584654881883	1066.80004882813
891.294988806434	1066.40002441406
892.005233539141	1069
892.715389087837	1068
893.42545546036	1061.59997558594
894.135432664543	1067.19995117188
894.845320708216	1066.40002441406
895.555119599216	1071
896.264829345375	1075.19995117188
896.974449954526	1067
897.683981434496	1079.59997558594
898.393423793125	1079
899.102777038235	1075.19995117188
899.812041177664	1073.40002441406
900.521216219239	1071.19995117188
901.230302170793	1069
901.939299040155	1067.19995117188
902.64820683515	1067.19995117188
903.357025563612	1072.40002441406
904.065755233368	1071.19995117188
904.774395852247	1067.19995117188
905.482947428076	1071
906.191409968682	1066.40002441406
906.899783481897	1064.80004882813
907.608067975538	1070
908.316263457443	1062.80004882813
909.02436993543	1062.40002441406
909.732387417327	1060.19995117188
910.440315910959	1070.59997558594
911.148155424154	1071.19995117188
911.855905964731	1066
912.563567540521	1070.59997558594
913.271140159339	1065.80004882813
913.978623829017	1061.59997558594
914.686018557374	1064
915.393324352237	1069.40002441406
916.100541221421	1069.19995117188
916.807669172752	1067.40002441406
917.514708214054	1065.19995117188
918.221658353142	1066.59997558594
918.928519597843	1074
919.635291955976	1068
920.341975435358	1070.40002441406
921.048570043813	1070.40002441406
921.75507578916	1061.19995117188
922.461492679212	1068.59997558594
923.167820721795	1062.59997558594
923.874059924726	1068.59997558594
924.58021029582	1066.19995117188
925.286271842893	1059.19995117188
925.992244573769	1061
926.698128496262	1071.80004882813
927.403923618184	1072.80004882813
928.109629947355	1072
928.815247491593	1066.40002441406
929.520776258708	1074.80004882813
930.226216256519	1068.40002441406
930.931567492841	1073.19995117188
931.636829975482	1065.40002441406
932.342003712263	1072
933.047088710995	1069
933.752084979491	1061
934.456992525564	1064.80004882813
935.161811357024	1051.19995117188
935.866541481688	1052.59997558594
936.571182907363	1051.40002441406
937.275735641861	1045.19995117188
937.980199692995	1054.80004882813
938.684575068572	1049.19995117188
939.388861776411	1052
940.093059824311	1056
940.797169220085	1055.40002441406
941.501189971544	1061
942.205122086495	1056.19995117188
942.908965572751	1060.80004882813
943.612720438111	1063.80004882813
944.316386690391	1071
945.019964337391	1064.80004882813
945.723453386924	1064
946.426853846795	1066
947.130165724808	1060.59997558594
947.83338902877	1062.40002441406
948.536523766488	1060
949.239569945764	1064.80004882813
949.942527574402	1056.80004882813
950.64539666021	1059
951.348177210993	1060.19995117188
952.050869234548	1056.80004882813
952.753472738683	1051.19995117188
953.455987731199	1046.19995117188
954.158414219898	1049.40002441406
954.860752212587	1060.19995117188
955.563001717061	1057.19995117188
956.265162741124	1058.59997558594
956.967235292576	1064.19995117188
957.669219379224	1066.19995117188
958.371115008857	1056.80004882813
959.072922189283	1057.19995117188
959.774640928301	1062
960.476271233708	1060.59997558594
961.177813113301	1053.59997558594
961.879266574882	1057.59997558594
962.580631626248	1063.80004882813
963.281908275194	1065.59997558594
963.98309652952	1065
964.684196397022	1055.59997558594
965.3852078855	1062.40002441406
966.086131002745	1062.59997558594
966.786965756555	1067.19995117188
967.487712154726	1058.59997558594
968.188370205055	1068
968.888939915331	1073
969.589421293352	1065.59997558594
970.289814346909	1068.80004882813
970.990119083801	1073.59997558594
971.690335511819	1064.59997558594
972.39046363875	1068.19995117188
973.090503472398	1071.59997558594
973.790455020545	1062
974.490318290987	1065.19995117188
975.190093291516	1065.40002441406
975.889780029923	1070.59997558594
976.589378513998	1073.40002441406
977.288888751527	1064.40002441406
977.988310750308	1070.40002441406
978.687644518122	1070.80004882813
979.386890062767	1064.40002441406
980.086047392025	1072.19995117188
980.785116513689	1072
981.484097435542	1062.59997558594
982.182990165377	1061.40002441406
982.88179471098	1058.19995117188
983.580511080137	1061.19995117188
984.279139280632	1063.80004882813
984.977679320253	1061.80004882813
985.67613120679	1059.40002441406
986.374494948027	1060.80004882813
987.072770551745	1058.59997558594
987.770958025731	1059
988.469057377772	1067.19995117188
989.167068615649	1051
989.864991747145	1055.59997558594
990.562826780047	1056.40002441406
991.260573722134	1063.19995117188
991.958232581195	1059.80004882813
992.655803365003	1064.59997558594
993.353286081346	1054.40002441406
994.050680738006	1058
994.74798734276	1057.40002441406
995.44520590339	1066
996.142336427681	1057
996.839378923407	1065
997.536333398348	1065.80004882813
998.233199860289	1065.59997558594
998.929978317004	1060.80004882813
999.626668776274	1063.59997558594
1000.32327124587	1061
1001.01978573359	1069
1001.71621224718	1064
1002.41255079445	1063.80004882813
1003.10880138315	1064.19995117188
1003.80496402107	1063.40002441406
1004.50103871599	1064
1005.19702547567	1061.19995117188
1005.8929243079	1070.40002441406
1006.58873522045	1077.40002441406
1007.2844582211	1083.40002441406
1007.98009331761	1077.19995117188
1008.67564051776	1070.19995117188
1009.37109982933	1065.59997558594
1010.06647126009	1064.59997558594
1010.7617548178	1064.80004882813
1011.45695051026	1068.19995117188
1012.15205834522	1069.19995117188
1012.84707833045	1060.59997558594
1013.54201047373	1052.19995117188
1014.23685478284	1061.40002441406
1014.93161126553	1063.59997558594
1015.62627992959	1065.80004882813
1016.32086078277	1058.59997558594
1017.01535383285	1059.59997558594
1017.70975908761	1062.19995117188
1018.40407655479	1064
1019.09830624219	1068.59997558594
1019.79244815755	1071.59997558594
1020.48650230866	1062.80004882813
1021.18046870328	1070.40002441406
1021.87434734917	1057.59997558594
1022.56813825411	1068.40002441406
1023.26184142584	1059.40002441406
1023.95545687216	1061.59997558594
1024.64898460082	1060.40002441406
1025.34242461957	1064
1026.0357769362	1062.80004882813
1026.72904155846	1063.40002441406
1027.42221849412	1070
1028.11530775094	1070.59997558594
1028.80830933668	1065.59997558594
1029.50122325911	1062.80004882813
1030.19404952599	1068.80004882813
1030.88678814508	1065.59997558594
1031.57943912414	1063.19995117188
1032.27200247093	1060.59997558594
1032.96447819323	1062.19995117188
1033.65686629878	1069.40002441406
1034.34916679534	1062.80004882813
1035.04137969068	1069.19995117188
1035.73350499256	1064.59997558594
1036.42554270874	1060.40002441406
1037.11749284697	1064
1037.80935541501	1071.59997558594
1038.50113042062	1060.19995117188
1039.19281787156	1067
1039.88441777559	1062.80004882813
1040.57593014046	1064.40002441406
1041.26735497393	1058.19995117188
1041.95869228376	1069
1042.6499420777	1060.80004882813
1043.3411043635	1070
1044.03217914893	1064
1044.72316644174	1064.59997558594
1045.41406624968	1068
1046.1048785805	1066.40002441406
1046.79560344197	1060.80004882813
1047.48624084182	1064.59997558594
1048.17679078783	1062.59997558594
1048.86725328774	1065.19995117188
1049.55762834929	1062.59997558594
1050.24791598025	1055.59997558594
1050.93811618837	1055.19995117188
1051.62822898139	1055.80004882813
1052.31825436707	1054.19995117188
1053.00819235315	1057.80004882813
1053.6980429474	1060.40002441406
1054.38780615755	1057.80004882813
1055.07748199136	1056.59997558594
1055.76707045658	1055.19995117188
1056.45657156095	1057.19995117188
1057.14598531222	1060
1057.83531171814	1054.40002441406
1058.52455078646	1054.40002441406
1059.21370252494	1060.80004882813
1059.90276694129	1060.80004882813
1060.5917440433	1060.80004882813
1061.28063383868	1064
1061.9694363352	1064.19995117188
1062.65815154059	1057.40002441406
1063.34677946261	1062.40002441406
1064.03532010899	1063.80004882813
1064.72377348748	1060.80004882813
1065.41213960583	1057.19995117188
1066.10041847177	1053.40002441406
1066.78861009306	1060.19995117188
1067.47671447743	1056.40002441406
1068.16473163263	1048.19995117188
1068.85266156639	1054
1069.54050428647	1058.59997558594
1070.2282598006	1058.80004882813
1070.91592811652	1065
1071.60350924198	1059.80004882813
1072.29100318471	1068.80004882813
1072.97840995245	1067
1073.66572955295	1059.19995117188
1074.35296199394	1051.59997558594
1075.04010728316	1052.40002441406
1075.72716542836	1054.40002441406
1076.41413643726	1051.40002441406
1077.10102031761	1062.19995117188
1077.78781707715	1056.80004882813
1078.4745267236	1060.19995117188
1079.16114926471	1063.40002441406
1079.84768470822	1057
1080.53413306185	1064.19995117188
1081.22049433336	1068.19995117188
1081.90676853046	1063.40002441406
1082.5929556609	1067.19995117188
1083.27905573241	1065.80004882813
1083.96506875272	1070.40002441406
1084.65099472957	1071.40002441406
1085.3368336707	1060.40002441406
1086.02258558383	1056
1086.70825047669	1056.59997558594
1087.39382835703	1063
1088.07931923257	1059
1088.76472311104	1067.59997558594
1089.45004000018	1059.40002441406
1090.13526990771	1063.80004882813
1090.82041284137	1073.59997558594
1091.50546880889	1074
1092.19043781799	1065.19995117188
1092.87531987642	1074
1093.56011499188	1070.80004882813
1094.24482317212	1065.19995117188
1094.92944442486	1069.40002441406
1095.61397875783	1059.40002441406
1096.29842617876	1053.80004882813
1096.98278669537	1050.80004882813
1097.6670603154	1055.80004882813
1098.35124704656	1059.19995117188
1099.03534689659	1053
1099.71935987322	1056.19995117188
1100.40328598416	1055.19995117188
1101.08712523713	1058.80004882813
1101.77087763988	1064
1102.45454320012	1063.40002441406
1103.13812192557	1070.19995117188
1103.82161382396	1079.80004882813
1104.50501890301	1066.40002441406
1105.18833717045	1070.40002441406
1105.87156863399	1058.19995117188
1106.55471330137	1060.19995117188
1107.2377711803	1054
1107.9207422785	1053.80004882813
1108.60362660369	1061.59997558594
1109.2864241636	1064.19995117188
1109.96913496594	1074
1110.65175901844	1068
1111.33429632882	1065.19995117188
1112.01674690479	1065.19995117188
1112.69911075408	1066.40002441406
1113.38138788439	1068.19995117188
1114.06357830346	1074.40002441406
1114.745682019	1064.59997558594
1115.42769903872	1064.40002441406
1116.10962937035	1072.40002441406
1116.7914730216	1070.59997558594
1117.47323000018	1069
1118.15490031382	1070.19995117188
1118.83648397022	1068.40002441406
1119.51798097712	1066.80004882813
1120.1993913422	1068.40002441406
1120.88071507321	1068.19995117188
1121.56195217784	1071.80004882813
1122.24310266381	1058.19995117188
1122.92416653884	1065.19995117188
1123.60514381064	1063
1124.28603448692	1065.40002441406
1124.9668385754	1083.59997558594
1125.64755608378	1077.80004882813
1126.32818701978	1077.19995117188
1127.00873139111	1067.59997558594
1127.68918920548	1073.80004882813
1128.3695604706	1072.59997558594
1129.04984519419	1072.40002441406
1129.73004338394	1065.59997558594
1130.41015504758	1061.59997558594
1131.09018019281	1072.80004882813
1131.77011882734	1071.40002441406
1132.44997095888	1064.40002441406
1133.12973659514	1071.19995117188
1133.80941574381	1064.59997558594
1134.48900841263	1065.40002441406
1135.16851460927	1063.59997558594
1135.84793434147	1064.40002441406
1136.52726761692	1062.40002441406
1137.20651444333	1063.80004882813
1137.8856748284	1060.80004882813
1138.56474877984	1062.80004882813
1139.24373630536	1054.40002441406
1139.92263741265	1054.19995117188
1140.60145210943	1057.19995117188
1141.28018040339	1058.59997558594
1141.95882230225	1058.80004882813
1142.6373778137	1066.59997558594
1143.31584694545	1063.80004882813
1143.99422970519	1068
1144.67252610064	1066.19995117188
1145.35073613949	1069.80004882813
1146.02885982944	1073.59997558594
1146.7068971782	1064.80004882813
1147.38484819347	1067.59997558594
1148.06271288294	1066.59997558594
1148.74049125432	1066.40002441406
1149.41818331531	1068.59997558594
1150.0957890736	1073
1150.77330853689	1071.40002441406
1151.45074171289	1072.40002441406
1152.12808860928	1067.19995117188
1152.80534923378	1070.40002441406
1153.48252359407	1063.80004882813
1154.15961169786	1066.80004882813
1154.83661355283	1070.19995117188
1155.51352916669	1069.40002441406
1156.19035854713	1068.40002441406
1156.86710170185	1063
1157.54375863855	1064.59997558594
1158.22032936491	1073.19995117188
1158.89681388863	1066
1159.57321221741	1059
1160.24952435894	1078
1160.92575032092	1076.80004882813
1161.60189011103	1074
1162.27794373697	1072.59997558594
1162.95391120644	1071.40002441406
1163.62979252712	1065
1164.3055877067	1067.80004882813
1164.98129675288	1065.19995117188
1165.65691967336	1070.40002441406
1166.33245647581	1070.19995117188
1167.00790716792	1071
1167.6832717574	1068.80004882813
1168.35855025193	1069.40002441406
1169.0337426592	1068.19995117188
1169.70884898689	1068.40002441406
1170.3838692427	1067.40002441406
1171.05880343431	1058.19995117188
1171.73365156941	1060.40002441406
1172.40841365569	1062.59997558594
1173.08308970083	1065.59997558594
1173.75767971253	1076.59997558594
1174.43218369847	1077.19995117188
1175.10660166633	1077.19995117188
1175.7809336238	1075.19995117188
1176.45517957857	1072.59997558594
1177.12933953832	1071.59997558594
1177.80341351073	1062.19995117188
1178.47740150349	1067.80004882813
1179.15130352429	1070.59997558594
1179.8251195808	1067.40002441406
1180.49884968071	1069.80004882813
1181.1724938317	1085.59997558594
1181.84605204145	1075.40002441406
1182.51952431766	1070.19995117188
1183.19291066799	1065
1183.86621110013	1072.80004882813
1184.53942562176	1073.80004882813
1185.21255424057	1072.40002441406
1185.88559696422	1069
1186.55855380041	1070.59997558594
1187.2314247568	1074.80004882813
1187.90420984109	1081
1188.57690906095	1073.19995117188
1189.24952242405	1079.59997558594
1189.92204993808	1084.40002441406
1190.59449161071	1076.40002441406
1191.26684744962	1081.19995117188
1191.93911746249	1074
1192.61130165699	1083.80004882813
1193.28340004081	1072.19995117188
1193.95541262161	1072.59997558594
1194.62733940707	1070.80004882813
1195.29918040487	1070
1195.97093562269	1076.80004882813
1196.64260506819	1069.59997558594
1197.31418874905	1069.19995117188
1197.98568667295	1078
1198.65709884755	1074.80004882813
1199.32842528053	1079.19995117188
1199.99966597957	1072.19995117188
1200.67082095234	1072.40002441406
1201.3418902065	1074.80004882813
1202.01287374974	1067.59997558594
1202.68377158971	1069.59997558594
1203.3545837341	1070.59997558594
1204.02531019057	1069.80004882813
1204.6959509668	1070.80004882813
1205.36650607045	1069
1206.03697550919	1072.19995117188
1206.70735929069	1069.40002441406
1207.37765742263	1075.80004882813
1208.04786991266	1075
1208.71799676846	1080.80004882813
1209.38803799769	1077.80004882813
1210.05799360803	1080.80004882813
1210.72786360714	1080.80004882813
1211.39764800268	1079.59997558594
1212.06734680233	1073.40002441406
1212.73696001375	1079.19995117188
1213.4064876446	1067.59997558594
1214.07592970255	1066.40002441406
1214.74528619526	1077.19995117188
1215.4145571304	1079.59997558594
1216.08374251564	1075.40002441406
1216.75284235863	1069.59997558594
1217.42185666704	1070.80004882813
1218.09078544854	1065
1218.75962871078	1054
1219.42838646143	1055.40002441406
1220.09705870816	1057.40002441406
1220.76564545861	1053.40002441406
1221.43414672046	1047.59997558594
1222.10256250136	1059
1222.77089280898	1063.59997558594
1223.43913765098	1062
1224.107297035	1064.59997558594
1224.77537096873	1069.59997558594
1225.44335945981	1067.40002441406
1226.1112625159	1071
1226.77908014467	1067
1227.44681235376	1067.40002441406
1228.11445915085	1076.80004882813
1228.78202054357	1075
1229.44949653961	1071.80004882813
1230.11688714659	1071.59997558594
1230.7841923722	1067.40002441406
1231.45141222407	1067.80004882813
1232.11854670988	1062.19995117188
1232.78559583726	1055.59997558594
1233.45255961388	1065
1234.1194380474	1060.40002441406
1234.78623114546	1059.40002441406
1235.45293891572	1062.80004882813
1236.11956136583	1069.19995117188
1236.78609850345	1073.80004882813
1237.45255033623	1075.40002441406
1238.11891687182	1075.59997558594
1238.78519811788	1072
1239.45139408205	1072.19995117188
1240.11750477198	1066.19995117188
1240.78353019534	1063.59997558594
1241.44947035976	1061.40002441406
1242.11532527291	1060.59997558594
1242.78109494242	1069.59997558594
1243.44677937595	1060.19995117188
1244.11237858115	1055
1244.77789256567	1058.80004882813
1245.44332133715	1062.59997558594
1246.10866490325	1068
1246.7739232716	1064.19995117188
1247.43909644987	1072.80004882813
1248.10418444569	1075.80004882813
1248.76918726671	1081.40002441406
1249.43410492059	1075.59997558594
1250.09893741496	1072.19995117188
1250.76368475747	1068.19995117188
1251.42834695576	1070.40002441406
1252.09292401749	1061
1252.75741595029	1066.19995117188
1253.42182276182	1064
1254.08614445971	1067.19995117188
1254.75038105161	1066.80004882813
1255.41453254515	1061.80004882813
1256.07859894799	1057.59997558594
1256.74258026777	1063
1257.40647651213	1064
1258.0702876887	1057.59997558594
1258.73401380514	1064.19995117188
1259.39765486908	1059.59997558594
1260.06121088817	1069.19995117188
1260.72468187004	1069.19995117188
1261.38806782233	1069.19995117188
1262.05136875269	1067.19995117188
1262.71458466875	1059.40002441406
1263.37771557815	1068.40002441406
1264.04076148854	1060.59997558594
1264.70372240753	1066
1265.3665983428	1065.40002441406
1266.02938930195	1069.19995117188
1266.69209529263	1063.59997558594
1267.35471632249	1072.59997558594
1268.01725239914	1067
1268.67970353024	1064
1269.34206972342	1073.40002441406
1270.00435098631	1066.80004882813
1270.66654732655	1065.40002441406
1271.32865875177	1070.40002441406
1271.9906852696	1064.80004882813
1272.65262688768	1065
1273.31448361365	1064.40002441406
1273.97625545514	1073.59997558594
1274.63794241978	1070.19995117188
1275.2995445152	1067.40002441406
1275.96106174903	1067.19995117188
1276.62249412892	1065.19995117188
1277.28384166248	1072
1277.94510435735	1077.40002441406
1278.60628222116	1080.80004882813
1279.26737526155	1077.40002441406
1279.92838348613	1075.80004882813
1280.58930690255	1074.80004882813
1281.25014551842	1070.19995117188
1281.91089934139	1068.59997558594
1282.57156837907	1064.59997558594
1283.2321526391	1064.40002441406
1283.89265212911	1064.59997558594
1284.55306685671	1063
1285.21339682955	1067.40002441406
1285.87364205525	1050.40002441406
1286.53380254142	1053.19995117188
1287.19387829571	1057.19995117188
1287.85386932573	1059.80004882813
1288.51377563911	1056.80004882813
1289.17359724348	1067.19995117188
1289.83333414646	1067.40002441406
1290.49298635567	1066.19995117188
1291.15255387874	1072
1291.8120367233	1073.19995117188
1292.47143489696	1070.40002441406
1293.13074840736	1070.59997558594
1293.7899772621	1069.80004882813
1294.44912146882	1069.59997558594
1295.10818103513	1063.80004882813
1295.76715596866	1062
1296.42604627704	1067.40002441406
1297.08485196787	1069
1297.74357304878	1063.19995117188
1298.4022095274	1065.80004882813
1299.06076141134	1062.59997558594
1299.71922870821	1064.59997558594
1300.37761142565	1071.19995117188
1301.03590957126	1070.80004882813
1301.69412315268	1078.59997558594
1302.3522521775	1079.59997558594
1303.01029665336	1072.19995117188
1303.66825658787	1075
1304.32613198865	1073.40002441406
1304.98392286332	1070
1305.64162921948	1074.80004882813
1306.29925106476	1074.40002441406
1306.95678840677	1075.40002441406
1307.61424125312	1072.59997558594
1308.27160961145	1073
1308.92889348934	1076.59997558594
1309.58609289443	1073.40002441406
1310.24320783432	1074.59997558594
1310.90023831664	1072.80004882813
1311.55718434898	1079.40002441406
1312.21404593897	1080.80004882813
1312.87082309421	1076.59997558594
1313.52751582233	1070.59997558594
1314.18412413092	1068.80004882813
1314.84064802761	1071.59997558594
1315.49708752	1073.80004882813
1316.1534426157	1071.40002441406
1316.80971332233	1066.59997558594
1317.46589964749	1073.19995117188
1318.1220015988	1068.59997558594
1318.77801918386	1073.19995117188
1319.43395241028	1074.80004882813
1320.08980128567	1067.40002441406
1320.74556581764	1066.59997558594
1321.4012460138	1066.19995117188
1322.05684188176	1067.19995117188
1322.71235342911	1066
1323.36778066347	1068.80004882813
1324.02312359245	1068.59997558594
1324.67838222365	1075.40002441406
1325.33355656468	1078
1325.98864662314	1073
1326.64365240663	1082.80004882813
1327.29857392277	1071.80004882813
1327.95341117915	1068
1328.60816418339	1063
1329.26283294308	1073.40002441406
1329.91741746582	1063.80004882813
1330.57191775923	1064.19995117188
1331.2263338309	1066.19995117188
1331.88066568843	1061.80004882813
1332.53491333943	1061.40002441406
1333.1890767915	1057.80004882813
1333.84315605224	1061.40002441406
1334.49715112925	1069.19995117188
1335.15106203013	1077
1335.80488876249	1067.80004882813
1336.45863133391	1072.40002441406
1337.112289752	1073.40002441406
1337.76586402437	1068.40002441406
1338.4193541586	1066.59997558594
1339.0727601623	1067.40002441406
1339.72608204306	1080.19995117188
1340.37931980849	1071.40002441406
1341.03247346617	1073.59997558594
1341.68554302372	1076.80004882813
1342.33852848871	1081.40002441406
1342.99142986876	1073.80004882813
1343.64424717145	1074.19995117188
1344.29698040438	1071
1344.94962957515	1072.80004882813
1345.60219469135	1069
1346.25467576058	1074.40002441406
1346.90707279042	1075.80004882813
1347.55938578848	1076.80004882813
1348.21161476235	1076.40002441406
1348.86375971962	1074.19995117188
1349.51582066787	1078.80004882813
1350.16779761472	1082.40002441406
1350.81969056774	1088.40002441406
1351.47149953453	1088.19995117188
1352.12322452269	1086
1352.77486553979	1088.19995117188
1353.42642259344	1090.80004882813
1354.07789569122	1097
1354.72928484072	1096.40002441406
1355.38059004953	1103
1356.03181132525	1101.19995117188
1356.68294867545	1101.40002441406
1357.33400210773	1103.19995117188
1357.98497162968	1097.59997558594
1358.63585724889	1089.40002441406
1359.28665897294	1099.40002441406
1359.93737680942	1089.59997558594
1360.58801076591	1095.80004882813
1361.23856085001	1098.80004882813
1361.88902706929	1098.40002441406
1362.53940943135	1090
1363.18970794377	1097
1363.83992261413	1091.80004882813
1364.49005345003	1089.59997558594
1365.14010045904	1089.40002441406
1365.79006364874	1088.59997558594
1366.43994302673	1089
1367.08973860058	1094.19995117188
1367.73945037788	1087.80004882813
1368.38907836621	1088.40002441406
1369.03862257315	1086.40002441406
1369.68808300629	1086.40002441406
1370.3374596732	1079.80004882813
1370.98675258148	1084.59997558594
1371.63596173868	1078
1372.28508715241	1081.19995117188
1372.93412883024	1081.59997558594
1373.58308677974	1071
1374.2319610085	1072.19995117188
1374.8807515241	1069.40002441406
1375.52945833412	1061.80004882813
1376.17808144612	1054.40002441406
1376.82662086771	1056.19995117188
1377.47507660644	1061.80004882813
1378.12344866989	1060.80004882813
1378.77173706565	1064
1379.41994180129	1060
1380.06806288439	1062.40002441406
1380.71610032252	1061.19995117188
1381.36405412326	1060.59997558594
1382.01192429419	1054.19995117188
1382.65971084287	1055.40002441406
1383.30741377688	1062
1383.95503310381	1063.19995117188
1384.60256883121	1059.80004882813
1385.25002096667	1071.40002441406
1385.89738951775	1064.59997558594
1386.54467449204	1064.80004882813
1387.19187589709	1065.19995117188
1387.8389937405	1067.19995117188
1388.48602802982	1061.80004882813
1389.13297877262	1058.40002441406
1389.77984597649	1065.40002441406
1390.42662964899	1060.19995117188
1391.07332979768	1062.19995117188
1391.71994643015	1054.19995117188
1392.36647955395	1060.59997558594
1393.01292917667	1057.59997558594
1393.65929530586	1056.59997558594
1394.3055779491	1055.80004882813
1394.95177711395	1063.59997558594
1395.59789280799	1064.59997558594
1396.24392503877	1059
1396.88987381387	1055.19995117188
1397.53573914086	1058.19995117188
1398.1815210273	1056.40002441406
1398.82721948075	1064
1399.47283450878	1062.80004882813
1400.11836611897	1057.40002441406
1400.76381431886	1063
1401.40917911603	1060.59997558594
1402.05446051805	1051
1402.69965853247	1052.59997558594
1403.34477316686	1058
1403.98980442878	1055.40002441406
1404.6347523258	1064.19995117188
1405.27961686548	1056.40002441406
1405.92439805538	1052.40002441406
1406.56909590306	1068.80004882813
1407.21371041608	1056
1407.85824160202	1061
1408.50268946841	1057
1409.14705402284	1055
1409.79133527285	1061.80004882813
1410.43553322601	1050.80004882813
1411.07964788987	1058.40002441406
1411.723679272	1055
1412.36762737996	1060.40002441406
1413.01149222129	1064
1413.65527380357	1069.40002441406
1414.29897213435	1058.40002441406
1414.94258722118	1065
1415.58611907163	1065
1416.22956769325	1066.59997558594
1416.87293309359	1060.80004882813
1417.51621528021	1058.59997558594
1418.15941426067	1063.19995117188
1418.80253004253	1062.19995117188
1419.44556263333	1061.19995117188
1420.08851204063	1060
1420.731378272	1067
1421.37416133497	1073
1422.0168612371	1073.59997558594
1422.65947798596	1074.59997558594
1423.30201158908	1069.19995117188
1423.94446205403	1063.59997558594
1424.58682938835	1070
1425.2291135996	1068.59997558594
1425.87131469532	1068.80004882813
1426.51343268308	1066.40002441406
1427.15546757042	1064.40002441406
1427.79741936488	1068.80004882813
1428.43928807403	1063.59997558594
1429.0810737054	1066.40002441406
1429.72277626656	1070
1430.36439576504	1058.19995117188
1431.00593220841	1060.40002441406
1431.64738560419	1056.19995117188
1432.28875595995	1052.59997558594
1432.93004328324	1055.40002441406
1433.57124758159	1056.40002441406
1434.21236886255	1055
1434.85340713368	1057.40002441406
1435.49436240252	1056.80004882813
1436.13523467661	1061.40002441406
1436.77602396349	1068.59997558594
1437.41673027073	1067.19995117188
1438.05735360585	1067.59997558594
1438.69789397641	1067.80004882813
1439.33835138994	1070.59997558594
1439.978725854	1070.80004882813
1440.61901737612	1067.80004882813
1441.25922596385	1067.80004882813
1441.89935162473	1069.19995117188
1442.53939436631	1073
1443.17935419612	1058.40002441406
1443.81923112171	1062.19995117188
1444.45902515061	1057.59997558594
1445.09873629038	1055.59997558594
1445.73836454854	1049.59997558594
1446.37790993265	1057.80004882813
1447.01737245024	1049.59997558594
1447.65675210885	1049.19995117188
1448.29604891602	1056
1448.93526287928	1052.59997558594
1449.57439400618	1051.80004882813
1450.21344230426	1051.19995117188
1450.85240778105	1054.19995117188
1451.49129044409	1057.80004882813
1452.13009030092	1051
1452.76880735907	1061.40002441406
1453.40744162608	1060
1454.04599310949	1065.59997558594
1454.68446181683	1055
1455.32284775564	1067.19995117188
1455.96115093345	1070.40002441406
1456.5993713578	1065
1457.23750903623	1066.19995117188
1457.87556397626	1061
1458.51353618543	1055.80004882813
1459.15142567127	1062.59997558594
1459.78923244132	1056.59997558594
1460.42695650311	1066.19995117188
1461.06459786417	1060.80004882813
1461.70215653203	1055.40002441406
1462.33963251423	1059.59997558594
1462.97702581829	1058.40002441406
1463.61433645175	1059.80004882813
1464.25156442214	1061.40002441406
1464.88870973699	1075
1465.52577240382	1063.19995117188
1466.16275243017	1060.80004882813
1466.79964982356	1065
1467.43646459154	1063.80004882813
1468.07319674161	1065.59997558594
1468.70984628132	1063.80004882813
1469.34641321818	1065.59997558594
1469.98289755974	1058.40002441406
1470.6192993135	1068.80004882813
1471.25561848701	1066
1471.89185508779	1058.59997558594
1472.52800912336	1059.59997558594
1473.16408060124	1065.40002441406
1473.80006952897	1061.19995117188
1474.43597591407	1052
1475.07179976406	1051.40002441406
1475.70754108647	1057.59997558594
1476.34319988883	1059.40002441406
1476.97877617865	1060.40002441406
1477.61426996345	1060.59997558594
1478.24968125077	1062.59997558594
1478.88501004812	1067
1479.52025636303	1064.80004882813
1480.15542020302	1059.59997558594
1480.79050157561	1061
1481.42550048832	1062
1482.06041694867	1066.19995117188
1482.69525096418	1062.80004882813
1483.33000254237	1060.59997558594
1483.96467169077	1068.40002441406
1484.59925841689	1062.59997558594
1485.23376272825	1058.40002441406
1485.86818463237	1056.80004882813
1486.50252413677	1061.59997558594
1487.13678124896	1060.19995117188
1487.77095597646	1055.80004882813
1488.4050483268	1060.59997558594
1489.03905830749	1057.59997558594
1489.67298592604	1060.40002441406
1490.30683118996	1058.80004882813
1490.9405941068	1059.80004882813
1491.57427468403	1061.40002441406
1492.2078729292	1061.59997558594
1492.84138884981	1066
1493.47482245338	1069.40002441406
1494.10817374742	1065.80004882813
1494.74144273944	1068
1495.37462943696	1066
1496.0077338475	1069.40002441406
1496.64075597856	1073.40002441406
1497.27369583765	1067.40002441406
1497.9065534323	1063.80004882813
1498.53932877001	1065.19995117188
1499.17202185829	1058
1499.80463270465	1055.59997558594
1500.43716131661	1061.19995117188
1501.06960770167	1054
1501.70197186735	1056.59997558594
1502.33425382116	1063
1502.96645357059	1062.19995117188
1503.59857112317	1062.40002441406
1504.23060648641	1061.59997558594
1504.8625596678	1056.40002441406
1505.49443067486	1065.40002441406
1506.1262195151	1062.80004882813
1506.75792619602	1067.40002441406
1507.38955072513	1062.19995117188
1508.02109310993	1063
1508.65255335794	1074
1509.28393147666	1063.80004882813
1509.91522747359	1059.59997558594
1510.54644135624	1068.59997558594
1511.17757313212	1057.40002441406
1511.80862280872	1062.40002441406
1512.43959039356	1059.59997558594
1513.07047589413	1061.19995117188
1513.70127931795	1061.19995117188
1514.33200067251	1065
1514.96263996531	1054.40002441406
1515.59319720386	1055.59997558594
1516.22367239567	1055.40002441406
1516.85406554822	1059.80004882813
1517.48437666903	1054.59997558594
1518.1146057656	1058.80004882813
1518.74475284542	1064.80004882813
1519.374817916	1058.80004882813
1520.00480098483	1065.59997558594
1520.63470205942	1058.40002441406
1521.26452114726	1064
1521.89425825586	1055.19995117188
1522.52391339271	1061
1523.15348656531	1055.59997558594
1523.78297778116	1053.19995117188
1524.41238704775	1053.80004882813
1525.04171437259	1045.59997558594
1525.67095976317	1055
1526.30012322699	1050.19995117188
1526.92920477154	1045.80004882813
1527.55820440432	1054.59997558594
1528.18712213283	1049.19995117188
1528.81595796455	1044.59997558594
1529.44471190699	1044.40002441406
1530.07338396764	1041.19995117188
1530.70197415399	1048.19995117188
1531.33048247353	1044.40002441406
1531.95890893377	1042.59997558594
1532.58725354219	1048.40002441406
1533.21551630629	1053.59997558594
1533.84369723356	1049
1534.47179633148	1045.19995117188
1535.09981360757	1057.40002441406
1535.72774906929	1064.80004882813
1536.35560272415	1058.80004882813
1536.98337457963	1053.59997558594
1537.61106464323	1061.59997558594
1538.23867292243	1061.40002441406
1538.86619942473	1060.40002441406
1539.49364415762	1061.40002441406
1540.12100712857	1064.59997558594
1540.74828834509	1072.19995117188
1541.37548781466	1058.19995117188
1542.00260554478	1061.19995117188
1542.62964154291	1058.80004882813
1543.25659581655	1061.19995117188
1543.8834683732	1054.19995117188
1544.51025922034	1062.19995117188
1545.13696836544	1048.80004882813
1545.76359581601	1044.59997558594
1546.39014157952	1048.40002441406
1547.01660566345	1043
1547.64298807531	1043.40002441406
1548.26928882255	1041.40002441406
1548.89550791269	1044.19995117188
1549.52164535318	1043
1550.14770115153	1054.19995117188
1550.77367531521	1046.40002441406
1551.39956785171	1042.80004882813
1552.0253787685	1046
1552.65110807307	1050
1553.2767557729	1054.40002441406
1553.90232187548	1043.40002441406
1554.52780638828	1055.59997558594
1555.15320931879	1051.80004882813
1555.77853067447	1056.19995117188
1556.40377046282	1049.19995117188
1557.02892869132	1052.59997558594
1557.65400536744	1054.40002441406
1558.27900049866	1057.59997558594
1558.90391409247	1056.80004882813
1559.52874615633	1056.80004882813
1560.15349669773	1057.59997558594
1560.77816572414	1051.40002441406
1561.40275324305	1050.80004882813
1562.02725926192	1058.59997558594
1562.65168378824	1051.19995117188
1563.27602682948	1064.59997558594
1563.90028839311	1058.80004882813
1564.52446848662	1054.40002441406
1565.14856711748	1055.59997558594
1565.77258429316	1054
1566.39652002113	1045.59997558594
1567.02037430887	1052.19995117188
1567.64414716387	1054
1568.26783859357	1051.19995117188
1568.89144860547	1053.40002441406
1569.51497720703	1058
1570.13842440573	1051.80004882813
1570.76179020904	1061.80004882813
1571.38507462442	1054.80004882813
1572.00827765936	1054.19995117188
1572.63139932132	1049.40002441406
1573.25443961777	1055.19995117188
1573.87739855618	1058
1574.50027614402	1058.19995117188
1575.12307238877	1048.59997558594
1575.74578729789	1046.80004882813
1576.36842087885	1043.80004882813
1576.99097313912	1053.19995117188
1577.61344408616	1056.40002441406
1578.23583372745	1045.40002441406
1578.85814207046	1054.59997558594
1579.48036912264	1052
1580.10251489147	1052.19995117188
1580.72457938441	1050.40002441406
1581.34656260893	1050.19995117188
1581.9684645725	1047.19995117188
1582.59028528258	1046.19995117188
1583.21202474663	1052
1583.83368297212	1047.19995117188
1584.45525996652	1055
1585.07675573728	1051
1585.69817029188	1047
1586.31950363778	1049
1586.94075578243	1048.19995117188
1587.5619267333	1046.19995117188
1588.18301649786	1039.80004882813
1588.80402508357	1042.59997558594
1589.42495249788	1041.19995117188
1590.04579874826	1037
1590.66656384217	1043.40002441406
1591.28724778707	1036.59997558594
1591.90785059042	1040.40002441406
1592.52837225968	1038.59997558594
1593.14881280232	1036.19995117188
1593.76917222578	1036.40002441406
1594.38945053753	1026
1595.00964774502	1033.80004882813
1595.62976385573	1037.80004882813
1596.24979887709	1037
1596.86975281657	1045.59997558594
1597.48962568164	1042.40002441406
1598.10941747974	1041.59997558594
1598.72912821832	1033.19995117188
1599.34875790486	1035
1599.9683065468	1042.40002441406
1600.58777415159	1040.19995117188
1601.2071607267	1043
1601.82646627958	1043.80004882813
1602.44569081769	1043
1603.06483434846	1037.59997558594
1603.68389687937	1044
1604.30287841786	1035.40002441406
1604.92177897139	1035.59997558594
1605.54059854741	1033.19995117188
1606.15933715337	1037.19995117188
1606.77799479672	1032
1607.39657148492	1028.59997558594
1608.01506722542	1030.80004882813
1608.63348202566	1038.59997558594
1609.2518158931	1027.40002441406
1609.87006883519	1033.80004882813
1610.48824085939	1028
1611.10633197312	1028.80004882813
1611.72434218386	1029.80004882813
1612.34227149904	1034.80004882813
1612.96011992612	1025.80004882813
1613.57788747254	1026.40002441406
1614.19557414575	1027
1614.8131799532	1025.19995117188
1615.43070490234	1025
1616.04814900061	1026.40002441406
1616.66551225545	1029.19995117188
1617.28279467433	1029.19995117188
1617.89999626467	1033.59997558594
1618.51711703393	1031
1619.13415698955	1026.80004882813
1619.75111613898	1027.80004882813
1620.36799448966	1030
1620.98479204903	1031.80004882813
1621.60150882455	1030.59997558594
1622.21814482364	1026.40002441406
1622.83470005376	1023.59997558594
1623.45117452235	1026
1624.06756823685	1021.79998779297
1624.6838812047	1023.79998779297
1625.30011343335	1029.40002441406
1625.91626493022	1026.40002441406
1626.53233570278	1026.19995117188
1627.14832575845	1022.79998779297
1627.76423510468	1028.19995117188
1628.38006374891	1028.80004882813
1628.99581169857	1023.79998779297
1629.61147896111	1033.40002441406
1630.22706554397	1031.40002441406
1630.84257145457	1029.40002441406
1631.45799670038	1031.80004882813
1632.07334128881	1022.79998779297
1632.6886052273	1020
1633.3037885233	1029
1633.91889118425	1026.19995117188
1634.53391321757	1023.40002441406
1635.1488546307	1027.80004882813
1635.76371543108	1028.40002441406
1636.37849562616	1017.59997558594
1636.99319522335	1025.59997558594
1637.60781423009	1015.79998779297
1638.22235265383	1017.79998779297
1638.83681050198	1022.79998779297
1639.451187782	1022.20001220703
1640.0654845013	1033
1640.67970066734	1034
1641.29383628752	1033.80004882813
1641.9078913693	1025
1642.5218659201	1034.80004882813
1643.13575994735	1022.40002441406
1643.74957345849	1028.19995117188
1644.36330646094	1024.80004882813
1644.97695896213	1031.80004882813
1645.59053096951	1035.59997558594
1646.20402249049	1027.40002441406
1646.8174335325	1027.59997558594
1647.43076410298	1035.59997558594
1648.04401420935	1037.80004882813
1648.65718385905	1036
1649.2702730595	1040
1649.88328181812	1039.19995117188
1650.49621014236	1040
1651.10905803963	1033.59997558594
1651.72182551735	1032.19995117188
1652.33451258297	1027.19995117188
1652.9471192439	1026.40002441406
1653.55964550757	1031
1654.1720913814	1027.59997558594
1654.78445687283	1025.80004882813
1655.39674198926	1029.80004882813
1656.00894673814	1024.19995117188
1656.62107112688	1023.40002441406
1657.23311516291	1025.19995117188
1657.84507885365	1023.59997558594
1658.45696220652	1016.59997558594
1659.06876522895	1011.79998779297
1659.68048792835	1013.20001220703
1660.29213031217	1018
1660.90369238779	1013.59997558594
1661.51517416267	1008
1662.12657564421	1017.20001220703
1662.73789683984	1013.79998779297
1663.34913775697	1013
1663.96029840303	1014.79998779297
1664.57137878544	1014.59997558594
1665.18237891161	1011.20001220703
1665.79329878897	1007.40002441406
1666.40413842493	1002.20001220703
1667.01489782691	1005
1667.62557700233	1007.20001220703
1668.2361759586	1004.59997558594
1668.84669470315	1009.40002441406
1669.4571332434	1007
1670.06749158675	1013.20001220703
1670.67776974062	1012
1671.28796771243	1010.40002441406
1671.8980855096	1010.59997558594
1672.50812313954	1009.59997558594
1673.11808060967	1009
1673.72795792739	1000
1674.33775510013	1005.20001220703
1674.9474721353	1005.40002441406
1675.55710904031	1009.20001220703
1676.16666582257	1004.59997558594
1676.7761424895	1009.20001220703
1677.38553904851	995.799987792969
1677.99485550702	995.400024414063
1678.60409187243	1003.20001220703
1679.21324815215	996.799987792969
1679.8223243536	998.599975585938
1680.43132048419	998.200012207031
1681.04023655132	999.799987792969
1681.64907256241	1003.20001220703
1682.25782852487	1001
1682.86650444611	1000.59997558594
1683.47510033353	1000.79998779297
1684.08361619455	989.799987792969
1684.69205203657	1001.59997558594
1685.300407867	1002
1685.90868369325	996.599975585938
1686.51687952272	995.200012207031
1687.12499536283	992
1687.73303122098	997.200012207031
1688.34098710457	993
1688.94886302101	993.400024414063
1689.55665897772	986.799987792969
1690.16437498208	988.200012207031
1690.77201104152	991.599975585938
1691.37956716342	984
1691.9870433552	988.400024414063
1692.59443962426	996.799987792969
1693.20175597801	989
1693.80899242384	995.599975585938
1694.41614896916	992.799987792969
1695.02322562138	993.799987792969
1695.63022238789	994.599975585938
1696.23713927609	991.400024414063
1696.8439762934	990.599975585938
1697.4507334472	996.599975585938
1698.05741074491	988
1698.66400819391	992
1699.27052580161	988
1699.87696357542	986.599975585938
1700.48332152272	985.599975585938
1701.08959965092	985.599975585938
1701.69579796742	987.799987792969
1702.30191647962	983.799987792969
1702.90795519491	985.799987792969
1703.51391412069	990.400024414063
1704.11979326437	989.799987792969
1704.72559263332	993.200012207031
1705.33131223496	986
1705.93695207668	991.599975585938
1706.54251216588	987.200012207031
1707.14799250994	981.799987792969
1707.75339311628	981.400024414063
1708.35871399227	979.400024414063
1708.96395514532	977.599975585938
1709.56911658282	980
