634.948122577771	1277.19995117188
635.690341530823	1267.59997558594
636.43246851086	1261.40002441406
637.174503525845	1277.59997558594
637.916446583745	1263
638.658297692538	1270
639.400056860179	1266.40002441406
640.141724094637	1265.59997558594
640.883299403885	1278
641.62478279588	1279
642.366174278594	1277.59997558594
643.107473859989	1284.80004882813
643.848681548029	1288.40002441406
644.589797350679	1298.19995117188
645.330821275901	1292.40002441406
646.071753331665	1300.19995117188
646.812593525922	1295.80004882813
647.553341866646	1288
648.293998361798	1282
649.03456301933	1275.80004882813
649.775035847216	1267.40002441406
650.515416853409	1274
651.255706045874	1268.59997558594
651.995903432568	1295.80004882813
652.736009021453	1298.59997558594
653.476022820486	1304.19995117188
654.215944837629	1313.59997558594
654.955775080842	1292.59997558594
655.695513558081	1294.19995117188
656.435160277301	1292.19995117188
657.174715246465	1290
657.914178473527	1295
658.653549966449	1308.59997558594
659.392829733176	1302.80004882813
660.132017781678	1309
660.871114119901	1306.80004882813
661.610118755803	1312.59997558594
662.349031697343	1300.59997558594
663.087852952468	1291.19995117188
663.826582529139	1308.19995117188
664.565220435305	1289.59997558594
665.30376667892	1291
666.04222126794	1298.40002441406
666.780584210316	1299.59997558594
667.518855514	1287.80004882813
668.25703518694	1293
668.995123237096	1293
669.733119672413	1300.59997558594
670.471024500842	1300.80004882813
671.208837730333	1295
671.946559368839	1299.19995117188
672.684189424308	1302
673.421727904689	1277.80004882813
674.159174817929	1273.19995117188
674.896530171977	1270.59997558594
675.633793974786	1272.40002441406
676.370966234295	1276.80004882813
677.108046958461	1284.59997558594
677.845036155219	1289.19995117188
678.581933832528	1292.80004882813
679.318739998323	1290.19995117188
680.055454660558	1294
680.792077827172	1293.80004882813
681.528609506116	1297
682.265049705331	1292.80004882813
683.001398432759	1296.40002441406
683.737655696349	1298
684.47382150404	1291.40002441406
685.20989586378	1287.80004882813
685.945878783503	1287.59997558594
686.68177027116	1289.19995117188
687.417570334688	1286.80004882813
688.153278982032	1280.80004882813
688.888896221129	1272.59997558594
689.624422059921	1288.80004882813
690.359856506349	1288.40002441406
691.095199568354	1303.19995117188
691.830451253874	1297.80004882813
692.565611570844	1304.40002441406
693.300680527212	1294.40002441406
694.03565813091	1286
694.770544389877	1291.40002441406
695.505339312053	1290.59997558594
696.240042905372	1288.59997558594
696.974655177772	1287.40002441406
697.70917613719	1277.59997558594
698.443605791561	1274
699.177944148826	1273.40002441406
699.912191216909	1280
700.646347003755	1283.40002441406
701.380411517295	1304.80004882813
702.114384765465	1298
702.848266756195	1299.40002441406
703.582057497421	1308.40002441406
704.315756997074	1309.40002441406
705.049365263089	1311.59997558594
705.782882303399	1316.40002441406
706.516308125936	1314
707.249642738626	1318.80004882813
707.982886149403	1313.80004882813
708.716038366204	1318.40002441406
709.449099396949	1315.19995117188
710.182069249577	1337.19995117188
710.914947932009	1319.40002441406
711.647735452181	1309.80004882813
712.380431818022	1308.19995117188
713.113037037454	1309
713.845551118411	1307.19995117188
714.577974068818	1307.80004882813
715.310305896604	1294
716.042546609694	1304.40002441406
716.774696216013	1295
717.506754723493	1293.40002441406
718.238722140053	1302.40002441406
718.970598473624	1310.19995117188
719.702383732127	1318
720.43407792349	1318.80004882813
721.165681055634	1316.40002441406
721.897193136486	1319.80004882813
722.628614173966	1328.59997558594
723.359944175997	1339.19995117188
724.091183150505	1338.80004882813
724.822331105412	1335.40002441406
725.553388048638	1338.80004882813
726.284353988106	1328.59997558594
727.015228931734	1325.19995117188
727.746012887449	1320.80004882813
728.476705863162	1326.59997558594
729.207307866803	1336.40002441406
729.937818906289	1340.40002441406
730.668238989535	1340
731.398568124459	1327.80004882813
732.128806318986	1324.80004882813
732.858953581034	1323.59997558594
733.589009918514	1309
734.318975339348	1316.59997558594
735.048849851452	1314.40002441406
735.778633462744	1328.80004882813
736.508326181137	1331.19995117188
737.237928014549	1322.19995117188
737.967438970897	1317.80004882813
738.696859058095	1335.19995117188
739.426188284054	1315.59997558594
740.155426656692	1305.19995117188
740.884574183922	1312.40002441406
741.613630873659	1317.40002441406
742.342596733815	1316
743.071471772302	1322.19995117188
743.800255997034	1326.80004882813
744.528949415921	1343.59997558594
745.257552036877	1323.19995117188
745.986063867811	1325.80004882813
746.714484916638	1332.40002441406
747.442815191261	1307.19995117188
748.171054699597	1320.40002441406
748.899203449554	1314.19995117188
749.627261449039	1313.19995117188
750.355228705966	1316.59997558594
751.083105228239	1325.80004882813
751.810891023765	1328.59997558594
752.538586100459	1334.19995117188
753.266190466218	1338.40002441406
753.99370412896	1342.59997558594
754.721127096582	1351.19995117188
755.448459377	1336
756.175700978114	1313.80004882813
756.902851907828	1319.19995117188
757.629912174055	1314.59997558594
758.356881784688	1315
759.083760747639	1310.40002441406
759.810549070817	1313.80004882813
760.537246762113	1319.19995117188
761.263853829442	1321.59997558594
761.990370280698	1328.19995117188
762.716796123791	1320.59997558594
763.443131366618	1327.19995117188
764.169376017082	1322.40002441406
764.895530083085	1326.19995117188
765.621593572527	1337.40002441406
766.347566493312	1332.40002441406
767.073448853336	1348.19995117188
767.799240660502	1353.40002441406
768.524941922707	1356.59997558594
769.250552647854	1359.40002441406
769.976072843836	1371.19995117188
770.701502518551	1373
771.426841679905	1376.40002441406
772.152090335793	1378.40002441406
772.877248494107	1388.59997558594
773.602316162747	1384.40002441406
774.327293349609	1377.19995117188
775.052180062592	1384.19995117188
775.776976309589	1381.19995117188
776.501682098496	1388.40002441406
777.226297437206	1370.19995117188
777.950822333616	1373.59997558594
778.675256795621	1375.19995117188
779.399600831111	1355.59997558594
780.123854447983	1365.19995117188
780.84801765413	1343.40002441406
781.572090457441	1346.40002441406
782.296072865811	1342
783.019964887131	1343.19995117188
783.743766529297	1341.19995117188
784.467477800194	1331
785.191098707719	1338
785.914629259756	1324.19995117188
786.638069464194	1313.40002441406
787.361419328932	1317.59997558594
788.084678861852	1312.40002441406
788.807848070845	1320.80004882813
789.530926963798	1312.59997558594
790.253915548602	1317.19995117188
790.976813833144	1324.80004882813
791.699621825307	1327
792.422339532986	1327.40002441406
793.144966964061	1332
793.86750412642	1328.19995117188
794.589951027946	1343
795.312307676536	1348
796.03457408006	1345
796.756750246417	1348.59997558594
797.478836183477	1325
798.200831899137	1335.40002441406
798.92273740127	1327.19995117188
799.644552697769	1322.80004882813
800.36627779651	1323.19995117188
801.087912705374	1327.19995117188
801.809457432251	1327
802.530911985017	1324
803.252276371558	1323
803.973550599748	1313.40002441406
804.694734677472	1314.40002441406
805.415828612611	1309.40002441406
806.136832413045	1328
806.857746086646	1322.19995117188
807.578569641305	1336.40002441406
808.299303084892	1325.59997558594
809.019946425289	1329.59997558594
809.740499670372	1334.59997558594
810.460962828022	1336.80004882813
811.181335906114	1329.40002441406
811.901618912524	1335.40002441406
812.621811855131	1337.59997558594
813.341914741809	1343
814.061927580433	1333.80004882813
814.781850378881	1322.40002441406
815.501683145025	1323.40002441406
816.221425886743	1328.59997558594
816.941078611903	1328.59997558594
817.660641328387	1316
818.380114044065	1322
819.099496766808	1324.19995117188
819.818789504492	1308.19995117188
820.53799226499	1315.80004882813
821.257105056168	1321.40002441406
821.976127885904	1311.19995117188
822.695060762064	1318.59997558594
823.413903692525	1318.19995117188
824.132656685151	1325.80004882813
824.851319747817	1317.40002441406
825.569892888388	1307.80004882813
826.288376114739	1310.59997558594
827.006769434737	1320.59997558594
827.725072856249	1314.40002441406
828.443286387142	1308
829.161410035285	1302
829.87944380855	1300.40002441406
830.597387714798	1290.80004882813
831.315241761898	1302.19995117188
832.033005957715	1306.40002441406
832.750680310119	1324.40002441406
833.468264826969	1320.19995117188
834.18575951614	1334.80004882813
834.903164385486	1323.40002441406
835.620479442878	1330
836.337704696181	1323.59997558594
837.054840153255	1327.59997558594
837.771885821962	1326.40002441406
838.488841710172	1335.80004882813
839.20570782574	1333.80004882813
839.922484176531	1325.40002441406
840.639170770409	1323.19995117188
841.355767615231	1316
842.072274718864	1331.40002441406
842.788692089164	1337.59997558594
843.505019733993	1332
844.221257661209	1323.59997558594
844.937405878676	1322.59997558594
845.65346439425	1331.19995117188
846.369433215789	1325.40002441406
847.085312351156	1321
847.801101808205	1323.80004882813
848.516801594793	1323.80004882813
849.232411718781	1316.40002441406
849.947932188021	1323.80004882813
850.663363010376	1308.59997558594
851.378704193698	1306
852.093955745842	1319.40002441406
852.809117674669	1325
853.524189988028	1334
854.239172693778	1319.59997558594
854.954065799768	1338.80004882813
855.668869313857	1331.80004882813
856.383583243899	1324.59997558594
857.098207597743	1324
857.812742383246	1326.59997558594
858.527187608255	1332.40002441406
859.241543280628	1317
859.955809408218	1319
860.669985998868	1330.59997558594
861.384073060437	1328.59997558594
862.098070600772	1327.19995117188
862.811978627724	1317.59997558594
863.52579714914	1323.80004882813
864.239526172873	1317.19995117188
864.953165706776	1324.40002441406
865.666715758687	1320.59997558594
866.380176336464	1318.80004882813
867.093547447951	1325.80004882813
867.806829100996	1324
868.520021303444	1324.80004882813
869.233124063149	1315
869.94613738795	1324.59997558594
870.659061285693	1329.19995117188
871.37189576423	1321.80004882813
872.084640831403	1325.59997558594
872.797296495057	1332.59997558594
873.509862763039	1325.19995117188
874.22233964319	1328.80004882813
874.934727143353	1329.19995117188
875.647025271374	1331.59997558594
876.359234035097	1329.59997558594
877.071353442361	1327
877.783383501015	1323.59997558594
878.495324218895	1329.19995117188
879.207175603844	1327.19995117188
879.918937663705	1327.59997558594
880.630610406318	1331.40002441406
881.342193839524	1307.80004882813
882.053687971161	1317.19995117188
882.765092809069	1323.19995117188
883.476408361091	1318.40002441406
884.187634635066	1317.80004882813
884.898771638828	1314.19995117188
885.609819380221	1318.40002441406
886.320777867076	1313.19995117188
887.031647107236	1307.19995117188
887.742427108536	1300.80004882813
888.453117878816	1299.59997558594
889.16371942591	1301.19995117188
889.874231757652	1318.40002441406
890.584654881883	1323.40002441406
891.294988806434	1323.40002441406
892.005233539141	1324.40002441406
892.715389087837	1324
893.42545546036	1342
894.135432664543	1330.59997558594
894.845320708216	1328.40002441406
895.555119599216	1346
896.264829345375	1338.40002441406
896.974449954526	1342.19995117188
897.683981434496	1341.19995117188
898.393423793125	1351.80004882813
899.102777038235	1352.40002441406
899.812041177664	1347
900.521216219239	1349.40002441406
901.230302170793	1339.40002441406
901.939299040155	1343.80004882813
902.64820683515	1358
903.357025563612	1339.40002441406
904.065755233368	1344
904.774395852247	1342.59997558594
905.482947428076	1352.59997558594
906.191409968682	1343.59997558594
906.899783481897	1338.59997558594
907.608067975538	1340.80004882813
908.316263457443	1328.40002441406
909.02436993543	1332
909.732387417327	1322.19995117188
910.440315910959	1315.40002441406
911.148155424154	1314
911.855905964731	1317.80004882813
912.563567540521	1325.59997558594
913.271140159339	1337.80004882813
913.978623829017	1327.40002441406
914.686018557374	1334.59997558594
915.393324352237	1340.59997558594
916.100541221421	1328.19995117188
916.807669172752	1325.59997558594
917.514708214054	1325.59997558594
918.221658353142	1334.59997558594
918.928519597843	1336.19995117188
919.635291955976	1332.80004882813
920.341975435358	1323.40002441406
921.048570043813	1328.80004882813
921.75507578916	1325.40002441406
922.461492679212	1323
923.167820721795	1329.80004882813
923.874059924726	1327
924.58021029582	1329.19995117188
925.286271842893	1323.80004882813
925.992244573769	1328
926.698128496262	1331.59997558594
927.403923618184	1336.59997558594
928.109629947355	1338.80004882813
928.815247491593	1342.40002441406
929.520776258708	1341.40002441406
930.226216256519	1328
930.931567492841	1329.40002441406
931.636829975482	1331.80004882813
932.342003712263	1330.19995117188
933.047088710995	1324.80004882813
933.752084979491	1328
934.456992525564	1311.80004882813
935.161811357024	1321.59997558594
935.866541481688	1310
936.571182907363	1305.59997558594
937.275735641861	1290.59997558594
937.980199692995	1295.40002441406
938.684575068572	1295.40002441406
939.388861776411	1291.59997558594
940.093059824311	1305.19995117188
940.797169220085	1314.40002441406
941.501189971544	1312
942.205122086495	1299.59997558594
942.908965572751	1303
943.612720438111	1307
944.316386690391	1317
945.019964337391	1314
945.723453386924	1317.59997558594
946.426853846795	1307
947.130165724808	1309.19995117188
947.83338902877	1316
948.536523766488	1317.19995117188
949.239569945764	1310
949.942527574402	1304.80004882813
950.64539666021	1312.80004882813
951.348177210993	1309
952.050869234548	1317.19995117188
952.753472738683	1300
953.455987731199	1300.19995117188
954.158414219898	1292
954.860752212587	1300.80004882813
955.563001717061	1321.80004882813
956.265162741124	1313.19995117188
956.967235292576	1298.80004882813
957.669219379224	1306.40002441406
958.371115008857	1302.59997558594
959.072922189283	1303.80004882813
959.774640928301	1289.80004882813
960.476271233708	1291.59997558594
961.177813113301	1288.59997558594
961.879266574882	1296.40002441406
962.580631626248	1301.59997558594
963.281908275194	1300.80004882813
963.98309652952	1296.40002441406
964.684196397022	1303.80004882813
965.3852078855	1310
966.086131002745	1316
966.786965756555	1315.59997558594
967.487712154726	1325
968.188370205055	1314.19995117188
968.888939915331	1331.59997558594
969.589421293352	1325.80004882813
970.289814346909	1333.80004882813
970.990119083801	1336.59997558594
971.690335511819	1330
972.39046363875	1325.59997558594
973.090503472398	1312.80004882813
973.790455020545	1324
974.490318290987	1324.40002441406
975.190093291516	1330
975.889780029923	1331.40002441406
976.589378513998	1342.59997558594
977.288888751527	1330.19995117188
977.988310750308	1327.40002441406
978.687644518122	1335.80004882813
979.386890062767	1327.40002441406
980.086047392025	1323.59997558594
980.785116513689	1333.59997558594
981.484097435542	1329
982.182990165377	1313.59997558594
982.88179471098	1306
983.580511080137	1309.80004882813
984.279139280632	1317.19995117188
984.977679320253	1302.59997558594
985.67613120679	1302
986.374494948027	1309.59997558594
987.072770551745	1303.40002441406
987.770958025731	1308
988.469057377772	1309.19995117188
989.167068615649	1309.80004882813
989.864991747145	1311.40002441406
990.562826780047	1305
991.260573722134	1299.80004882813
991.958232581195	1303.19995117188
992.655803365003	1292.80004882813
993.353286081346	1292.59997558594
994.050680738006	1292.80004882813
994.74798734276	1300.40002441406
995.44520590339	1307.40002441406
996.142336427681	1310
996.839378923407	1321.19995117188
997.536333398348	1317.59997558594
998.233199860289	1314.59997558594
998.929978317004	1307.19995117188
999.626668776274	1297.80004882813
1000.32327124587	1307.80004882813
1001.01978573359	1304.59997558594
1001.71621224718	1306.40002441406
1002.41255079445	1301.40002441406
1003.10880138315	1310.40002441406
1003.80496402107	1297.59997558594
1004.50103871599	1311.40002441406
1005.19702547567	1312.40002441406
1005.8929243079	1315
1006.58873522045	1330.80004882813
1007.2844582211	1325.80004882813
1007.98009331761	1334.40002441406
1008.67564051776	1330.40002441406
1009.37109982933	1312.59997558594
1010.06647126009	1318.59997558594
1010.7617548178	1324.59997558594
1011.45695051026	1319.59997558594
1012.15205834522	1321
1012.84707833045	1319.80004882813
1013.54201047373	1309.19995117188
1014.23685478284	1307.19995117188
1014.93161126553	1315.40002441406
1015.62627992959	1314.40002441406
1016.32086078277	1312.19995117188
1017.01535383285	1321.80004882813
1017.70975908761	1301.19995117188
1018.40407655479	1311.19995117188
1019.09830624219	1319
1019.79244815755	1317.80004882813
1020.48650230866	1317.80004882813
1021.18046870328	1319.40002441406
1021.87434734917	1314.59997558594
1022.56813825411	1305.19995117188
1023.26184142584	1306.40002441406
1023.95545687216	1308
1024.64898460082	1305.80004882813
1025.34242461957	1313.19995117188
1026.0357769362	1301.40002441406
1026.72904155846	1301.59997558594
1027.42221849412	1306.40002441406
1028.11530775094	1308.59997558594
1028.80830933668	1304.80004882813
1029.50122325911	1317.80004882813
1030.19404952599	1325.59997558594
1030.88678814508	1310.19995117188
1031.57943912414	1312.80004882813
1032.27200247093	1303.40002441406
1032.96447819323	1307
1033.65686629878	1320
1034.34916679534	1314
1035.04137969068	1312.19995117188
1035.73350499256	1306.19995117188
1036.42554270874	1316
1037.11749284697	1305.19995117188
1037.80935541501	1299.59997558594
1038.50113042062	1303.59997558594
1039.19281787156	1297.80004882813
1039.88441777559	1306.40002441406
1040.57593014046	1309.59997558594
1041.26735497393	1296
1041.95869228376	1315.59997558594
1042.6499420777	1324.80004882813
1043.3411043635	1316.19995117188
1044.03217914893	1307.40002441406
1044.72316644174	1312.19995117188
1045.41406624968	1313.80004882813
1046.1048785805	1315.19995117188
1046.79560344197	1311
1047.48624084182	1309.80004882813
1048.17679078783	1311.59997558594
1048.86725328774	1301
1049.55762834929	1302.59997558594
1050.24791598025	1287.59997558594
1050.93811618837	1298.19995117188
1051.62822898139	1298
1052.31825436707	1292.59997558594
1053.00819235315	1313.59997558594
1053.6980429474	1298
1054.38780615755	1295.59997558594
1055.07748199136	1303.80004882813
1055.76707045658	1306.40002441406
1056.45657156095	1302.19995117188
1057.14598531222	1290.40002441406
1057.83531171814	1295.40002441406
1058.52455078646	1292.80004882813
1059.21370252494	1280.19995117188
1059.90276694129	1288.19995117188
1060.5917440433	1287.59997558594
1061.28063383868	1299.19995117188
1061.9694363352	1306.59997558594
1062.65815154059	1302.59997558594
1063.34677946261	1296.59997558594
1064.03532010899	1312.59997558594
1064.72377348748	1300.40002441406
1065.41213960583	1292.19995117188
1066.10041847177	1290
1066.78861009306	1299
1067.47671447743	1297.40002441406
1068.16473163263	1284.40002441406
1068.85266156639	1292
1069.54050428647	1297.59997558594
1070.2282598006	1306.80004882813
1070.91592811652	1300.59997558594
1071.60350924198	1296.59997558594
1072.29100318471	1294.80004882813
1072.97840995245	1293.80004882813
1073.66572955295	1279.80004882813
1074.35296199394	1285.80004882813
1075.04010728316	1291.40002441406
1075.72716542836	1279
1076.41413643726	1278.19995117188
1077.10102031761	1289.19995117188
1077.78781707715	1292.40002441406
1078.4745267236	1296.80004882813
1079.16114926471	1303.19995117188
1079.84768470822	1297.19995117188
1080.53413306185	1303.40002441406
1081.22049433336	1308.40002441406
1081.90676853046	1315.19995117188
1082.5929556609	1317.19995117188
1083.27905573241	1319
1083.96506875272	1313.40002441406
1084.65099472957	1308.40002441406
1085.3368336707	1303.19995117188
1086.02258558383	1306.59997558594
1086.70825047669	1295.40002441406
1087.39382835703	1288.80004882813
1088.07931923257	1304
1088.76472311104	1314
1089.45004000018	1302.40002441406
1090.13526990771	1301.40002441406
1090.82041284137	1301.80004882813
1091.50546880889	1312.59997558594
1092.19043781799	1329.80004882813
1092.87531987642	1327.40002441406
1093.56011499188	1322
1094.24482317212	1314.80004882813
1094.92944442486	1310.40002441406
1095.61397875783	1305.80004882813
1096.29842617876	1292.19995117188
1096.98278669537	1288.40002441406
1097.6670603154	1283.40002441406
1098.35124704656	1296
1099.03534689659	1281.59997558594
1099.71935987322	1286
1100.40328598416	1287.80004882813
1101.08712523713	1288
1101.77087763988	1294
1102.45454320012	1299.80004882813
1103.13812192557	1299.80004882813
1103.82161382396	1306.40002441406
1104.50501890301	1317.59997558594
1105.18833717045	1314.19995117188
1105.87156863399	1306.19995117188
1106.55471330137	1307.19995117188
1107.2377711803	1293.40002441406
1107.9207422785	1283.80004882813
1108.60362660369	1312.80004882813
1109.2864241636	1303.80004882813
1109.96913496594	1314.19995117188
1110.65175901844	1321
1111.33429632882	1304.59997558594
1112.01674690479	1307.80004882813
1112.69911075408	1311.19995117188
1113.38138788439	1316.59997558594
1114.06357830346	1320
1114.745682019	1315.19995117188
1115.42769903872	1314.19995117188
1116.10962937035	1312.80004882813
1116.7914730216	1307.59997558594
1117.47323000018	1301.80004882813
1118.15490031382	1307.19995117188
1118.83648397022	1314.59997558594
1119.51798097712	1306
1120.1993913422	1308.59997558594
1120.88071507321	1315.19995117188
1121.56195217784	1306.80004882813
1122.24310266381	1300.80004882813
1122.92416653884	1306
1123.60514381064	1292.19995117188
1124.28603448692	1298
1124.9668385754	1313.59997558594
1125.64755608378	1319.19995117188
1126.32818701978	1328.80004882813
1127.00873139111	1330.80004882813
1127.68918920548	1315.59997558594
1128.3695604706	1321.80004882813
1129.04984519419	1299.19995117188
1129.73004338394	1314.80004882813
1130.41015504758	1302.40002441406
1131.09018019281	1299.80004882813
1131.77011882734	1302.19995117188
1132.44997095888	1303.80004882813
1133.12973659514	1302.80004882813
1133.80941574381	1303.80004882813
1134.48900841263	1290.40002441406
1135.16851460927	1296.80004882813
1135.84793434147	1297
1136.52726761692	1291.59997558594
1137.20651444333	1281.59997558594
1137.8856748284	1287.59997558594
1138.56474877984	1284
1139.24373630536	1289.19995117188
1139.92263741265	1286.80004882813
1140.60145210943	1281.40002441406
1141.28018040339	1275.80004882813
1141.95882230225	1286.80004882813
1142.6373778137	1286.19995117188
1143.31584694545	1299.19995117188
1143.99422970519	1302.59997558594
1144.67252610064	1306.40002441406
1145.35073613949	1310.59997558594
1146.02885982944	1309
1146.7068971782	1304.19995117188
1147.38484819347	1298.40002441406
1148.06271288294	1294.19995117188
1148.74049125432	1299.40002441406
1149.41818331531	1299.59997558594
1150.0957890736	1302.80004882813
1150.77330853689	1306.59997558594
1151.45074171289	1304.59997558594
1152.12808860928	1302
1152.80534923378	1301.19995117188
1153.48252359407	1285.40002441406
1154.15961169786	1296.19995117188
1154.83661355283	1298.80004882813
1155.51352916669	1299
1156.19035854713	1312.80004882813
1156.86710170185	1309.40002441406
1157.54375863855	1302.80004882813
1158.22032936491	1299
1158.89681388863	1292.19995117188
1159.57321221741	1304.59997558594
1160.24952435894	1303
1160.92575032092	1309.40002441406
1161.60189011103	1310.59997558594
1162.27794373697	1303.80004882813
1162.95391120644	1305.59997558594
1163.62979252712	1320
1164.3055877067	1317.40002441406
1164.98129675288	1310
1165.65691967336	1317.80004882813
1166.33245647581	1320
1167.00790716792	1324.80004882813
1167.6832717574	1309.59997558594
1168.35855025193	1311.80004882813
1169.0337426592	1300.59997558594
1169.70884898689	1307.40002441406
1170.3838692427	1302.80004882813
1171.05880343431	1286.40002441406
1171.73365156941	1294.40002441406
1172.40841365569	1298.19995117188
1173.08308970083	1292.59997558594
1173.75767971253	1302.59997558594
1174.43218369847	1308.19995117188
1175.10660166633	1314
1175.7809336238	1312
1176.45517957857	1298.80004882813
1177.12933953832	1296.40002441406
1177.80341351073	1303.80004882813
1178.47740150349	1301.19995117188
1179.15130352429	1300.59997558594
1179.8251195808	1312
1180.49884968071	1316.59997558594
1181.1724938317	1324.59997558594
1181.84605204145	1309.40002441406
1182.51952431766	1317.19995117188
1183.19291066799	1313
1183.86621110013	1303.80004882813
1184.53942562176	1326
1185.21255424057	1328
1185.88559696422	1317.80004882813
1186.55855380041	1312.40002441406
1187.2314247568	1316
1187.90420984109	1308.40002441406
1188.57690906095	1310.80004882813
1189.24952242405	1315.59997558594
1189.92204993808	1320.59997558594
1190.59449161071	1325.40002441406
1191.26684744962	1308.40002441406
1191.93911746249	1306.40002441406
1192.61130165699	1301.40002441406
1193.28340004081	1308.40002441406
1193.95541262161	1318.19995117188
1194.62733940707	1311.40002441406
1195.29918040487	1315
1195.97093562269	1328
1196.64260506819	1317.19995117188
1197.31418874905	1303.59997558594
1197.98568667295	1309.80004882813
1198.65709884755	1310.19995117188
1199.32842528053	1315.40002441406
1199.99966597957	1318
1200.67082095234	1304.40002441406
1201.3418902065	1304.40002441406
1202.01287374974	1296.80004882813
1202.68377158971	1292.59997558594
1203.3545837341	1289.59997558594
1204.02531019057	1293.19995117188
1204.6959509668	1291.19995117188
1205.36650607045	1299.80004882813
1206.03697550919	1288.19995117188
1206.70735929069	1307.19995117188
1207.37765742263	1303.40002441406
1208.04786991266	1308.80004882813
1208.71799676846	1309.80004882813
1209.38803799769	1303.80004882813
1210.05799360803	1308
1210.72786360714	1322.40002441406
1211.39764800268	1308.19995117188
1212.06734680233	1308.19995117188
1212.73696001375	1306.80004882813
1213.4064876446	1291.40002441406
1214.07592970255	1297.80004882813
1214.74528619526	1303
1215.4145571304	1301.19995117188
1216.08374251564	1299.40002441406
1216.75284235863	1287.19995117188
1217.42185666704	1287.19995117188
1218.09078544854	1291.40002441406
1218.75962871078	1283.59997558594
1219.42838646143	1280.19995117188
1220.09705870816	1277
1220.76564545861	1272.40002441406
1221.43414672046	1280.59997558594
1222.10256250136	1283.40002441406
1222.77089280898	1297
1223.43913765098	1294.19995117188
1224.107297035	1296.40002441406
1224.77537096873	1307
1225.44335945981	1302.59997558594
1226.1112625159	1311.19995117188
1226.77908014467	1315.40002441406
1227.44681235376	1302
1228.11445915085	1305
1228.78202054357	1297.59997558594
1229.44949653961	1289
1230.11688714659	1291.80004882813
1230.7841923722	1292.80004882813
1231.45141222407	1287.59997558594
1232.11854670988	1291.19995117188
1232.78559583726	1282.40002441406
1233.45255961388	1268
1234.1194380474	1280.80004882813
1234.78623114546	1285.40002441406
1235.45293891572	1287.80004882813
1236.11956136583	1289.19995117188
1236.78609850345	1295
1237.45255033623	1303.59997558594
1238.11891687182	1299.40002441406
1238.78519811788	1306.80004882813
1239.45139408205	1305.59997558594
1240.11750477198	1291.80004882813
1240.78353019534	1288
1241.44947035976	1281.19995117188
1242.11532527291	1278.40002441406
1242.78109494242	1286.59997558594
1243.44677937595	1283.59997558594
1244.11237858115	1281.40002441406
1244.77789256567	1290.40002441406
1245.44332133715	1281
1246.10866490325	1293.40002441406
1246.7739232716	1301.40002441406
1247.43909644987	1300.40002441406
1248.10418444569	1305.80004882813
1248.76918726671	1316.59997558594
1249.43410492059	1309
1250.09893741496	1288.40002441406
1250.76368475747	1287.59997558594
1251.42834695576	1301
1252.09292401749	1294.59997558594
1252.75741595029	1298.59997558594
1253.42182276182	1293.40002441406
1254.08614445971	1290.80004882813
1254.75038105161	1295
1255.41453254515	1287.19995117188
1256.07859894799	1277.80004882813
1256.74258026777	1282.40002441406
1257.40647651213	1276.80004882813
1258.0702876887	1281.40002441406
1258.73401380514	1284.80004882813
1259.39765486908	1295.59997558594
1260.06121088817	1297.59997558594
1260.72468187004	1291.19995117188
1261.38806782233	1290.40002441406
1262.05136875269	1291.40002441406
1262.71458466875	1294.80004882813
1263.37771557815	1274.59997558594
1264.04076148854	1296
1264.70372240753	1310.19995117188
1265.3665983428	1295.80004882813
1266.02938930195	1288.59997558594
1266.69209529263	1294.19995117188
1267.35471632249	1291.80004882813
1268.01725239914	1292.40002441406
1268.67970353024	1296.19995117188
1269.34206972342	1285.40002441406
1270.00435098631	1290.80004882813
1270.66654732655	1295
1271.32865875177	1303.40002441406
1271.9906852696	1295
1272.65262688768	1292
1273.31448361365	1305
1273.97625545514	1310.40002441406
1274.63794241978	1306
1275.2995445152	1302.19995117188
1275.96106174903	1305.59997558594
1276.62249412892	1290.59997558594
1277.28384166248	1290
1277.94510435735	1286.40002441406
1278.60628222116	1302
1279.26737526155	1293.40002441406
1279.92838348613	1304.59997558594
1280.58930690255	1291.19995117188
1281.25014551842	1299.19995117188
1281.91089934139	1286.19995117188
1282.57156837907	1289.59997558594
1283.2321526391	1287
1283.89265212911	1291.40002441406
1284.55306685671	1296.59997558594
1285.21339682955	1298.19995117188
1285.87364205525	1278.80004882813
1286.53380254142	1269.59997558594
1287.19387829571	1265.59997558594
1287.85386932573	1268.19995117188
1288.51377563911	1262.80004882813
1289.17359724348	1289.40002441406
1289.83333414646	1289.40002441406
1290.49298635567	1289.19995117188
1291.15255387874	1297.80004882813
1291.8120367233	1302.40002441406
1292.47143489696	1291.19995117188
1293.13074840736	1302.80004882813
1293.7899772621	1291.40002441406
1294.44912146882	1272.40002441406
1295.10818103513	1275.59997558594
1295.76715596866	1270.19995117188
1296.42604627704	1271.59997558594
1297.08485196787	1272.19995117188
1297.74357304878	1268
1298.4022095274	1274.80004882813
1299.06076141134	1265.80004882813
1299.71922870821	1267.80004882813
1300.37761142565	1281
1301.03590957126	1281
1301.69412315268	1295.40002441406
1302.3522521775	1286.59997558594
1303.01029665336	1288.40002441406
1303.66825658787	1280.40002441406
1304.32613198865	1291
1304.98392286332	1290
1305.64162921948	1293.40002441406
1306.29925106476	1311.40002441406
1306.95678840677	1306.80004882813
1307.61424125312	1313
1308.27160961145	1311.80004882813
1308.92889348934	1306.59997558594
1309.58609289443	1295.80004882813
1310.24320783432	1298.19995117188
1310.90023831664	1302.40002441406
1311.55718434898	1291.80004882813
1312.21404593897	1304.80004882813
1312.87082309421	1300
1313.52751582233	1284.59997558594
1314.18412413092	1286.40002441406
1314.84064802761	1293.59997558594
1315.49708752	1287.40002441406
1316.1534426157	1305.19995117188
1316.80971332233	1303
1317.46589964749	1305.59997558594
1318.1220015988	1297
1318.77801918386	1288.19995117188
1319.43395241028	1296.40002441406
1320.08980128567	1292.40002441406
1320.74556581764	1287.40002441406
1321.4012460138	1296.40002441406
1322.05684188176	1308.59997558594
1322.71235342911	1285.19995117188
1323.36778066347	1294.40002441406
1324.02312359245	1281.19995117188
1324.67838222365	1283.19995117188
1325.33355656468	1312.59997558594
1325.98864662314	1289
1326.64365240663	1303
1327.29857392277	1291
1327.95341117915	1283.59997558594
1328.60816418339	1285.80004882813
1329.26283294308	1271
1329.91741746582	1272.40002441406
1330.57191775923	1271.80004882813
1331.2263338309	1263
1331.88066568843	1262.40002441406
1332.53491333943	1269.59997558594
1333.1890767915	1259.40002441406
1333.84315605224	1262.40002441406
1334.49715112925	1264.80004882813
1335.15106203013	1268
1335.80488876249	1286.59997558594
1336.45863133391	1287.40002441406
1337.112289752	1278.80004882813
1337.76586402437	1275.40002441406
1338.4193541586	1276.80004882813
1339.0727601623	1284.40002441406
1339.72608204306	1287.80004882813
1340.37931980849	1295.80004882813
1341.03247346617	1289.80004882813
1341.68554302372	1283.59997558594
1342.33852848871	1271.59997558594
1342.99142986876	1276.59997558594
1343.64424717145	1268.80004882813
1344.29698040438	1277
1344.94962957515	1270
1345.60219469135	1268.80004882813
1346.25467576058	1282
1346.90707279042	1282
1347.55938578848	1286.19995117188
1348.21161476235	1283.40002441406
1348.86375971962	1280.80004882813
1349.51582066787	1298.59997558594
1350.16779761472	1302.40002441406
1350.81969056774	1302
1351.47149953453	1313.19995117188
1352.12322452269	1317
1352.77486553979	1331
1353.42642259344	1333
1354.07789569122	1327.19995117188
1354.72928484072	1333.40002441406
1355.38059004953	1339.80004882813
1356.03181132525	1323.59997558594
1356.68294867545	1332
1357.33400210773	1325
1357.98497162968	1328.40002441406
1358.63585724889	1331.80004882813
1359.28665897294	1330.59997558594
1359.93737680942	1339.19995117188
1360.58801076591	1326.59997558594
1361.23856085001	1332.80004882813
1361.88902706929	1332.59997558594
1362.53940943135	1324.80004882813
1363.18970794377	1329.80004882813
1363.83992261413	1331.40002441406
1364.49005345003	1327.40002441406
1365.14010045904	1324.19995117188
1365.79006364874	1313.40002441406
1366.43994302673	1323.59997558594
1367.08973860058	1335.59997558594
1367.73945037788	1333
1368.38907836621	1321.80004882813
1369.03862257315	1316.59997558594
1369.68808300629	1306.80004882813
1370.3374596732	1305.40002441406
1370.98675258148	1309
1371.63596173868	1306.19995117188
1372.28508715241	1304.59997558594
1372.93412883024	1303.40002441406
1373.58308677974	1286.19995117188
1374.2319610085	1285.19995117188
1374.8807515241	1273.40002441406
1375.52945833412	1280.40002441406
1376.17808144612	1270.40002441406
1376.82662086771	1272.19995117188
1377.47507660644	1253.40002441406
1378.12344866989	1252.19995117188
1378.77173706565	1255.40002441406
1379.41994180129	1263
1380.06806288439	1267.59997558594
1380.71610032252	1252.40002441406
1381.36405412326	1247.59997558594
1382.01192429419	1257.19995117188
1382.65971084287	1254.80004882813
1383.30741377688	1259.80004882813
1383.95503310381	1268
1384.60256883121	1270.19995117188
1385.25002096667	1269.80004882813
1385.89738951775	1269.80004882813
1386.54467449204	1261.80004882813
1387.19187589709	1268.80004882813
1387.8389937405	1274.59997558594
1388.48602802982	1270.40002441406
1389.13297877262	1267.19995117188
1389.77984597649	1274.19995117188
1390.42662964899	1264
1391.07332979768	1271.19995117188
1391.71994643015	1271.40002441406
1392.36647955395	1258.80004882813
1393.01292917667	1250.59997558594
1393.65929530586	1264
1394.3055779491	1268.40002441406
1394.95177711395	1264.80004882813
1395.59789280799	1262.19995117188
1396.24392503877	1253.59997558594
1396.88987381387	1249.40002441406
1397.53573914086	1253.19995117188
1398.1815210273	1263
1398.82721948075	1257.59997558594
1399.47283450878	1257.19995117188
1400.11836611897	1270
1400.76381431886	1274
1401.40917911603	1260.19995117188
1402.05446051805	1253.80004882813
1402.69965853247	1261.59997558594
1403.34477316686	1264.40002441406
1403.98980442878	1257.59997558594
1404.6347523258	1261.40002441406
1405.27961686548	1262
1405.92439805538	1259.59997558594
1406.56909590306	1260.40002441406
1407.21371041608	1261.40002441406
1407.85824160202	1262
1408.50268946841	1262.19995117188
1409.14705402284	1255
1409.79133527285	1244.80004882813
1410.43553322601	1248.80004882813
1411.07964788987	1257.19995117188
1411.723679272	1274.59997558594
1412.36762737996	1263.19995117188
1413.01149222129	1269.19995117188
1413.65527380357	1266.40002441406
1414.29897213435	1260.19995117188
1414.94258722118	1264.19995117188
1415.58611907163	1263
1416.22956769325	1255.80004882813
1416.87293309359	1245.19995117188
1417.51621528021	1248.80004882813
1418.15941426067	1261.19995117188
1418.80253004253	1262
1419.44556263333	1260.40002441406
1420.08851204063	1258.19995117188
1420.731378272	1263.80004882813
1421.37416133497	1260.59997558594
1422.0168612371	1265.80004882813
1422.65947798596	1271.59997558594
1423.30201158908	1271.40002441406
1423.94446205403	1269.59997558594
1424.58682938835	1273.59997558594
1425.2291135996	1269.80004882813
1425.87131469532	1270.40002441406
1426.51343268308	1268.59997558594
1427.15546757042	1278.40002441406
1427.79741936488	1275
1428.43928807403	1268.59997558594
1429.0810737054	1281.19995117188
1429.72277626656	1272.80004882813
1430.36439576504	1277
1431.00593220841	1267.80004882813
1431.64738560419	1253.59997558594
1432.28875595995	1246.19995117188
1432.93004328324	1242
1433.57124758159	1246
1434.21236886255	1250.80004882813
1434.85340713368	1249
1435.49436240252	1252.40002441406
1436.13523467661	1254.19995117188
1436.77602396349	1257
1437.41673027073	1265.80004882813
1438.05735360585	1264
1438.69789397641	1263.40002441406
1439.33835138994	1276.80004882813
1439.978725854	1263.40002441406
1440.61901737612	1255.59997558594
1441.25922596385	1270
1441.89935162473	1267.40002441406
1442.53939436631	1271.80004882813
1443.17935419612	1262.40002441406
1443.81923112171	1254.40002441406
1444.45902515061	1234.80004882813
1445.09873629038	1246
1445.73836454854	1240.40002441406
1446.37790993265	1243.59997558594
1447.01737245024	1237.80004882813
1447.65675210885	1231.40002441406
1448.29604891602	1241.40002441406
1448.93526287928	1236.59997558594
1449.57439400618	1226.80004882813
1450.21344230426	1239.19995117188
1450.85240778105	1231
1451.49129044409	1240.59997558594
1452.13009030092	1236.40002441406
1452.76880735907	1248
1453.40744162608	1249.80004882813
1454.04599310949	1245.40002441406
1454.68446181683	1264
1455.32284775564	1260
1455.96115093345	1251.80004882813
1456.5993713578	1254.19995117188
1457.23750903623	1260.40002441406
1457.87556397626	1262
1458.51353618543	1254
1459.15142567127	1264.40002441406
1459.78923244132	1255.19995117188
1460.42695650311	1257
1461.06459786417	1257
1461.70215653203	1250.80004882813
1462.33963251423	1244.40002441406
1462.97702581829	1245.59997558594
1463.61433645175	1250
1464.25156442214	1259.59997558594
1464.88870973699	1254.80004882813
1465.52577240382	1265
1466.16275243017	1258.59997558594
1466.79964982356	1254.80004882813
1467.43646459154	1242.80004882813
1468.07319674161	1245.59997558594
1468.70984628132	1258.19995117188
1469.34641321818	1254.19995117188
1469.98289755974	1257.40002441406
1470.6192993135	1249
1471.25561848701	1259.40002441406
1471.89185508779	1254
1472.52800912336	1264.19995117188
1473.16408060124	1256
1473.80006952897	1256.40002441406
1474.43597591407	1235.80004882813
1475.07179976406	1236.19995117188
1475.70754108647	1247.40002441406
1476.34319988883	1234.19995117188
1476.97877617865	1247.40002441406
1477.61426996345	1251.59997558594
1478.24968125077	1248.19995117188
1478.88501004812	1255
1479.52025636303	1252
1480.15542020302	1259.59997558594
1480.79050157561	1259
1481.42550048832	1248.80004882813
1482.06041694867	1250.59997558594
1482.69525096418	1249.80004882813
1483.33000254237	1256
1483.96467169077	1258.19995117188
1484.59925841689	1257
1485.23376272825	1251.19995117188
1485.86818463237	1250.80004882813
1486.50252413677	1259.59997558594
1487.13678124896	1262
1487.77095597646	1248.40002441406
1488.4050483268	1252
1489.03905830749	1239.19995117188
1489.67298592604	1248.59997558594
1490.30683118996	1253.40002441406
1490.9405941068	1254.80004882813
1491.57427468403	1250.80004882813
1492.2078729292	1255.59997558594
1492.84138884981	1249.19995117188
1493.47482245338	1258.59997558594
1494.10817374742	1261.59997558594
1494.74144273944	1263.59997558594
1495.37462943696	1255.19995117188
1496.0077338475	1261.40002441406
1496.64075597856	1260.80004882813
1497.27369583765	1251.40002441406
1497.9065534323	1252.19995117188
1498.53932877001	1245.40002441406
1499.17202185829	1230.19995117188
1499.80463270465	1242.40002441406
1500.43716131661	1243.59997558594
1501.06960770167	1236.19995117188
1501.70197186735	1240.19995117188
1502.33425382116	1250.40002441406
1502.96645357059	1245
1503.59857112317	1253.19995117188
1504.23060648641	1247.80004882813
1504.8625596678	1244
1505.49443067486	1246.19995117188
1506.1262195151	1256.59997558594
1506.75792619602	1254.40002441406
1507.38955072513	1244
1508.02109310993	1258.80004882813
1508.65255335794	1253.59997558594
1509.28393147666	1253.80004882813
1509.91522747359	1258.80004882813
1510.54644135624	1252.40002441406
1511.17757313212	1258.19995117188
1511.80862280872	1244
1512.43959039356	1242
1513.07047589413	1243
1513.70127931795	1239
1514.33200067251	1252.19995117188
1514.96263996531	1247
1515.59319720386	1251.80004882813
1516.22367239567	1252.19995117188
1516.85406554822	1233.59997558594
1517.48437666903	1232.19995117188
1518.1146057656	1241.40002441406
1518.74475284542	1248.80004882813
1519.374817916	1256
1520.00480098483	1245.59997558594
1520.63470205942	1242
1521.26452114726	1243.40002441406
1521.89425825586	1242.40002441406
1522.52391339271	1226
1523.15348656531	1228.80004882813
1523.78297778116	1225.19995117188
1524.41238704775	1225.40002441406
1525.04171437259	1225.59997558594
1525.67095976317	1233
1526.30012322699	1228
1526.92920477154	1231.59997558594
1527.55820440432	1222.59997558594
1528.18712213283	1231.80004882813
1528.81595796455	1222
1529.44471190699	1213.40002441406
1530.07338396764	1216.40002441406
1530.70197415399	1213.19995117188
1531.33048247353	1213.80004882813
1531.95890893377	1210.80004882813
1532.58725354219	1206.40002441406
1533.21551630629	1224.80004882813
1533.84369723356	1227
1534.47179633148	1231.19995117188
1535.09981360757	1237.80004882813
1535.72774906929	1225.40002441406
1536.35560272415	1234.80004882813
1536.98337457963	1234.19995117188
1537.61106464323	1234.19995117188
1538.23867292243	1235.80004882813
1538.86619942473	1243.80004882813
1539.49364415762	1235.40002441406
1540.12100712857	1232
1540.74828834509	1240.80004882813
1541.37548781466	1243
1542.00260554478	1254.80004882813
1542.62964154291	1246
1543.25659581655	1249.59997558594
1543.8834683732	1237.80004882813
1544.51025922034	1242.40002441406
1545.13696836544	1239
1545.76359581601	1235.40002441406
1546.39014157952	1221.59997558594
1547.01660566345	1213.80004882813
1547.64298807531	1219
1548.26928882255	1218
1548.89550791269	1212.59997558594
1549.52164535318	1197.40002441406
1550.14770115153	1209
1550.77367531521	1207.19995117188
1551.39956785171	1212.40002441406
1552.0253787685	1209.59997558594
1552.65110807307	1211.19995117188
1553.2767557729	1224
1553.90232187548	1223.80004882813
1554.52780638828	1222.19995117188
1555.15320931879	1229.40002441406
1555.77853067447	1228.80004882813
1556.40377046282	1228.80004882813
1557.02892869132	1227.19995117188
1557.65400536744	1228
1558.27900049866	1221.19995117188
1558.90391409247	1222.80004882813
1559.52874615633	1221.40002441406
1560.15349669773	1218
1560.77816572414	1225.40002441406
1561.40275324305	1224.40002441406
1562.02725926192	1231.19995117188
1562.65168378824	1225.80004882813
1563.27602682948	1228.80004882813
1563.90028839311	1239.80004882813
1564.52446848662	1232.19995117188
1565.14856711748	1237.80004882813
1565.77258429316	1230.80004882813
1566.39652002113	1220.19995117188
1567.02037430887	1224.80004882813
1567.64414716387	1233.40002441406
1568.26783859357	1221.80004882813
1568.89144860547	1233.80004882813
1569.51497720703	1234.19995117188
1570.13842440573	1230
1570.76179020904	1227.40002441406
1571.38507462442	1233.19995117188
1572.00827765936	1240
1572.63139932132	1233.40002441406
1573.25443961777	1232.59997558594
1573.87739855618	1221.19995117188
1574.50027614402	1224.19995117188
1575.12307238877	1212
1575.74578729789	1220.19995117188
1576.36842087885	1216.19995117188
1576.99097313912	1216.80004882813
1577.61344408616	1221.40002441406
1578.23583372745	1216.59997558594
1578.85814207046	1215
1579.48036912264	1208
1580.10251489147	1207.59997558594
1580.72457938441	1204.19995117188
1581.34656260893	1208
1581.9684645725	1208
1582.59028528258	1209.40002441406
1583.21202474663	1223
1583.83368297212	1224.59997558594
1584.45525996652	1224.59997558594
1585.07675573728	1235
1585.69817029188	1232.59997558594
1586.31950363778	1219
1586.94075578243	1216.40002441406
1587.5619267333	1218
1588.18301649786	1214
1588.80402508357	1206.59997558594
1589.42495249788	1200
1590.04579874826	1206
1590.66656384217	1200.80004882813
1591.28724778707	1188
1591.90785059042	1198.59997558594
1592.52837225968	1194.59997558594
1593.14881280232	1200.40002441406
1593.76917222578	1179.80004882813
1594.38945053753	1181.40002441406
1595.00964774502	1199.40002441406
1595.62976385573	1208.19995117188
1596.24979887709	1194.40002441406
1596.86975281657	1197.59997558594
1597.48962568164	1200.80004882813
1598.10941747974	1195.19995117188
1598.72912821832	1199
1599.34875790486	1194.59997558594
1599.9683065468	1195.59997558594
1600.58777415159	1192.40002441406
1601.2071607267	1203
1601.82646627958	1201.19995117188
1602.44569081769	1201.80004882813
1603.06483434846	1201.59997558594
1603.68389687937	1200.40002441406
1604.30287841786	1200.19995117188
1604.92177897139	1197
1605.54059854741	1195.59997558594
1606.15933715337	1188.80004882813
1606.77799479672	1189.59997558594
1607.39657148492	1191.80004882813
1608.01506722542	1193.80004882813
1608.63348202566	1189.40002441406
1609.2518158931	1194.40002441406
1609.87006883519	1190.59997558594
1610.48824085939	1192.40002441406
1611.10633197312	1183
1611.72434218386	1186.59997558594
1612.34227149904	1190.40002441406
1612.96011992612	1196.19995117188
1613.57788747254	1189.59997558594
1614.19557414575	1179.59997558594
1614.8131799532	1171.19995117188
1615.43070490234	1174.19995117188
1616.04814900061	1176.80004882813
1616.66551225545	1176.80004882813
1617.28279467433	1182.19995117188
1617.89999626467	1177.80004882813
1618.51711703393	1183.19995117188
1619.13415698955	1176.80004882813
1619.75111613898	1182.19995117188
1620.36799448966	1179
1620.98479204903	1180.19995117188
1621.60150882455	1181.59997558594
1622.21814482364	1177.40002441406
1622.83470005376	1179.80004882813
1623.45117452235	1178.40002441406
1624.06756823685	1175.80004882813
1624.6838812047	1182.80004882813
1625.30011343335	1182.40002441406
1625.91626493022	1168.19995117188
1626.53233570278	1161.19995117188
1627.14832575845	1173.59997558594
1627.76423510468	1182.59997558594
1628.38006374891	1182.19995117188
1628.99581169857	1187.40002441406
1629.61147896111	1178.59997558594
1630.22706554397	1192.19995117188
1630.84257145457	1200
1631.45799670038	1186.59997558594
1632.07334128881	1186.59997558594
1632.6886052273	1176.19995117188
1633.3037885233	1171.80004882813
1633.91889118425	1179.40002441406
1634.53391321757	1183
1635.1488546307	1170.59997558594
1635.76371543108	1176.19995117188
1636.37849562616	1169.19995117188
1636.99319522335	1172
1637.60781423009	1163.80004882813
1638.22235265383	1164.19995117188
1638.83681050198	1170.80004882813
1639.451187782	1176.19995117188
1640.0654845013	1180
1640.67970066734	1189.40002441406
1641.29383628752	1186.19995117188
1641.9078913693	1180
1642.5218659201	1180.59997558594
1643.13575994735	1185
1643.74957345849	1179
1644.36330646094	1175.19995117188
1644.97695896213	1176.80004882813
1645.59053096951	1170
1646.20402249049	1175.80004882813
1646.8174335325	1173.59997558594
1647.43076410298	1183.80004882813
1648.04401420935	1187
1648.65718385905	1182.40002441406
1649.2702730595	1194.59997558594
1649.88328181812	1197.59997558594
1650.49621014236	1193.59997558594
1651.10905803963	1192
1651.72182551735	1180.80004882813
1652.33451258297	1177.40002441406
1652.9471192439	1174.80004882813
1653.55964550757	1172.59997558594
1654.1720913814	1166.19995117188
1654.78445687283	1164.40002441406
1655.39674198926	1168.80004882813
1656.00894673814	1173.40002441406
1656.62107112688	1166.19995117188
1657.23311516291	1162.19995117188
1657.84507885365	1160.40002441406
1658.45696220652	1146.40002441406
1659.06876522895	1154
1659.68048792835	1162
1660.29213031217	1157
1660.90369238779	1153.80004882813
1661.51517416267	1160.40002441406
1662.12657564421	1152.59997558594
1662.73789683984	1152.40002441406
1663.34913775697	1153.40002441406
1663.96029840303	1148.40002441406
1664.57137878544	1142.40002441406
1665.18237891161	1139
1665.79329878897	1133.80004882813
1666.40413842493	1133
1667.01489782691	1124.19995117188
1667.62557700233	1131
1668.2361759586	1138.40002441406
1668.84669470315	1142.40002441406
1669.4571332434	1142.40002441406
1670.06749158675	1141.80004882813
1670.67776974062	1142.40002441406
1671.28796771243	1139.19995117188
1671.8980855096	1138.19995117188
1672.50812313954	1138
1673.11808060967	1122.19995117188
1673.72795792739	1134.59997558594
1674.33775510013	1133.40002441406
1674.9474721353	1129.59997558594
1675.55710904031	1139.19995117188
1676.16666582257	1130.40002441406
1676.7761424895	1131
1677.38553904851	1131.19995117188
1677.99485550702	1123.40002441406
1678.60409187243	1134.40002441406
1679.21324815215	1127.40002441406
1679.8223243536	1118.80004882813
1680.43132048419	1114.80004882813
1681.04023655132	1124.19995117188
1681.64907256241	1118.59997558594
1682.25782852487	1119.19995117188
1682.86650444611	1111.80004882813
1683.47510033353	1108.59997558594
1684.08361619455	1108.59997558594
1684.69205203657	1111.80004882813
1685.300407867	1109.40002441406
1685.90868369325	1112.40002441406
1686.51687952272	1110
1687.12499536283	1110
1687.73303122098	1107.59997558594
1688.34098710457	1117.59997558594
1688.94886302101	1113.59997558594
1689.55665897772	1110
1690.16437498208	1105.59997558594
1690.77201104152	1107.19995117188
1691.37956716342	1097
1691.9870433552	1101.59997558594
1692.59443962426	1115.19995117188
1693.20175597801	1095.40002441406
1693.80899242384	1104.59997558594
1694.41614896916	1107.19995117188
1695.02322562138	1104.40002441406
1695.63022238789	1098.80004882813
1696.23713927609	1099.59997558594
1696.8439762934	1111.19995117188
1697.4507334472	1112
1698.05741074491	1114.40002441406
1698.66400819391	1105.80004882813
1699.27052580161	1105.59997558594
1699.87696357542	1096.80004882813
1700.48332152272	1092.19995117188
1701.08959965092	1091.19995117188
1701.69579796742	1093
1702.30191647962	1092
1702.90795519491	1092.40002441406
1703.51391412069	1095.19995117188
1704.11979326437	1094
1704.72559263332	1088.40002441406
1705.33131223496	1093.80004882813
1705.93695207668	1090.59997558594
1706.54251216588	1100.19995117188
1707.14799250994	1092.40002441406
1707.75339311628	1085
1708.35871399227	1086.19995117188
1708.96395514532	1084
1709.56911658282	1078.40002441406
