634.948122577771	1541.59997558594
635.690341530823	1530
636.43246851086	1543.40002441406
637.174503525845	1539.19995117188
637.916446583745	1549.40002441406
638.658297692538	1552.40002441406
639.400056860179	1552
640.141724094637	1563.40002441406
640.883299403885	1560
641.62478279588	1570
642.366174278594	1576
643.107473859989	1584.80004882813
643.848681548029	1586.40002441406
644.589797350679	1579.40002441406
645.330821275901	1600.40002441406
646.071753331665	1596
646.812593525922	1585.59997558594
647.553341866646	1584.59997558594
648.293998361798	1558.19995117188
649.03456301933	1571.80004882813
649.775035847216	1568.80004882813
650.515416853409	1578.59997558594
651.255706045874	1579.19995117188
651.995903432568	1607
652.736009021453	1613.80004882813
653.476022820486	1611.59997558594
654.215944837629	1604.19995117188
654.955775080842	1593.80004882813
655.695513558081	1587.59997558594
656.435160277301	1597
657.174715246465	1588.59997558594
657.914178473527	1585.80004882813
658.653549966449	1611.59997558594
659.392829733176	1599.80004882813
660.132017781678	1614.80004882813
660.871114119901	1601.40002441406
661.610118755803	1596.59997558594
662.349031697343	1601.59997558594
663.087852952468	1597.80004882813
663.826582529139	1598
664.565220435305	1585.40002441406
665.30376667892	1588.80004882813
666.04222126794	1592.40002441406
666.780584210316	1599.80004882813
667.518855514	1593.40002441406
668.25703518694	1592.40002441406
668.995123237096	1596
669.733119672413	1606.80004882813
670.471024500842	1593.80004882813
671.208837730333	1601.80004882813
671.946559368839	1612.19995117188
672.684189424308	1590.19995117188
673.421727904689	1575.40002441406
674.159174817929	1558.80004882813
674.896530171977	1541.59997558594
675.633793974786	1561.59997558594
676.370966234295	1548.59997558594
677.108046958461	1556
677.845036155219	1573.80004882813
678.581933832528	1575.40002441406
679.318739998323	1583
680.055454660558	1599
680.792077827172	1606
681.528609506116	1611.80004882813
682.265049705331	1608.19995117188
683.001398432759	1617.19995117188
683.737655696349	1610.80004882813
684.47382150404	1608.40002441406
685.20989586378	1598.19995117188
685.945878783503	1595
686.68177027116	1595.19995117188
687.417570334688	1595
688.153278982032	1581
688.888896221129	1589
689.624422059921	1593.40002441406
690.359856506349	1599.19995117188
691.095199568354	1591
691.830451253874	1601.40002441406
692.565611570844	1601.59997558594
693.300680527212	1603.19995117188
694.03565813091	1583.19995117188
694.770544389877	1597.40002441406
695.505339312053	1589.59997558594
696.240042905372	1594.19995117188
696.974655177772	1597.40002441406
697.70917613719	1582.59997558594
698.443605791561	1582.59997558594
699.177944148826	1589.59997558594
699.912191216909	1580.40002441406
700.646347003755	1591.40002441406
701.380411517295	1598.19995117188
702.114384765465	1589.80004882813
702.848266756195	1621.59997558594
703.582057497421	1618.19995117188
704.315756997074	1634
705.049365263089	1624.19995117188
705.782882303399	1646
706.516308125936	1632.80004882813
707.249642738626	1634.59997558594
707.982886149403	1646
708.716038366204	1638.40002441406
709.449099396949	1632.40002441406
710.182069249577	1635
710.914947932009	1631.40002441406
711.647735452181	1616.59997558594
712.380431818022	1603.19995117188
713.113037037454	1603.59997558594
713.845551118411	1609
714.577974068818	1600.80004882813
715.310305896604	1603.80004882813
716.042546609694	1609
716.774696216013	1612.80004882813
717.506754723493	1610.80004882813
718.238722140053	1610.40002441406
718.970598473624	1630.59997558594
719.702383732127	1618.80004882813
720.43407792349	1628
721.165681055634	1636.19995117188
721.897193136486	1642.40002441406
722.628614173966	1646.80004882813
723.359944175997	1658
724.091183150505	1669.19995117188
724.822331105412	1652.19995117188
725.553388048638	1657
726.284353988106	1637.40002441406
727.015228931734	1646.59997558594
727.746012887449	1641.19995117188
728.476705863162	1652.40002441406
729.207307866803	1659.80004882813
729.937818906289	1655
730.668238989535	1659.80004882813
731.398568124459	1648.80004882813
732.128806318986	1644
732.858953581034	1630.80004882813
733.589009918514	1646.19995117188
734.318975339348	1640.59997558594
735.048849851452	1638.59997558594
735.778633462744	1653.80004882813
736.508326181137	1638.80004882813
737.237928014549	1649.59997558594
737.967438970897	1638.19995117188
738.696859058095	1636.19995117188
739.426188284054	1614
740.155426656692	1630.80004882813
740.884574183922	1619.80004882813
741.613630873659	1617
742.342596733815	1625
743.071471772302	1620.19995117188
743.800255997034	1630.80004882813
744.528949415921	1630.59997558594
745.257552036877	1632
745.986063867811	1625.40002441406
746.714484916638	1628.80004882813
747.442815191261	1623
748.171054699597	1627.59997558594
748.899203449554	1609.59997558594
749.627261449039	1617.19995117188
750.355228705966	1619.40002441406
751.083105228239	1615.40002441406
751.810891023765	1640.19995117188
752.538586100459	1650.40002441406
753.266190466218	1651.80004882813
753.99370412896	1659.19995117188
754.721127096582	1660.40002441406
755.448459377	1652.59997558594
756.175700978114	1645.19995117188
756.902851907828	1636.59997558594
757.629912174055	1630.40002441406
758.356881784688	1623.40002441406
759.083760747639	1634.19995117188
759.810549070817	1634.40002441406
760.537246762113	1654
761.263853829442	1649.19995117188
761.990370280698	1656.80004882813
762.716796123791	1661
763.443131366618	1652.40002441406
764.169376017082	1647.19995117188
764.895530083085	1648.59997558594
765.621593572527	1665.80004882813
766.347566493312	1652.59997558594
767.073448853336	1688.80004882813
767.799240660502	1694.59997558594
768.524941922707	1711.59997558594
769.250552647854	1722.80004882813
769.976072843836	1728.59997558594
770.701502518551	1730.19995117188
771.426841679905	1780.80004882813
772.152090335793	1772.40002441406
772.877248494107	1759
773.602316162747	1783.40002441406
774.327293349609	1778
775.052180062592	1779.40002441406
775.776976309589	1774.19995117188
776.501682098496	1748.19995117188
777.226297437206	1745.80004882813
777.950822333616	1745.59997558594
778.675256795621	1731.19995117188
779.399600831111	1735.40002441406
780.123854447983	1712
780.84801765413	1702.40002441406
781.572090457441	1685.40002441406
782.296072865811	1688.80004882813
783.019964887131	1677.19995117188
783.743766529297	1667.80004882813
784.467477800194	1672.59997558594
785.191098707719	1664.40002441406
785.914629259756	1663.59997558594
786.638069464194	1652.19995117188
787.361419328932	1652.40002441406
788.084678861852	1660.40002441406
788.807848070845	1642.59997558594
789.530926963798	1638.40002441406
790.253915548602	1629.80004882813
790.976813833144	1613.19995117188
791.699621825307	1636.80004882813
792.422339532986	1657.40002441406
793.144966964061	1636.19995117188
793.86750412642	1653.80004882813
794.589951027946	1659.40002441406
795.312307676536	1667.19995117188
796.03457408006	1672
796.756750246417	1665
797.478836183477	1650.80004882813
798.200831899137	1624.59997558594
798.92273740127	1625
799.644552697769	1636.40002441406
800.36627779651	1640.59997558594
801.087912705374	1643
801.809457432251	1638.59997558594
802.530911985017	1651.19995117188
803.252276371558	1643
803.973550599748	1620.40002441406
804.694734677472	1642.59997558594
805.415828612611	1647.19995117188
806.136832413045	1662.40002441406
806.857746086646	1645
807.578569641305	1650
808.299303084892	1652.40002441406
809.019946425289	1645.80004882813
809.740499670372	1658.19995117188
810.460962828022	1657.80004882813
811.181335906114	1654.19995117188
811.901618912524	1662.19995117188
812.621811855131	1668.19995117188
813.341914741809	1648.59997558594
814.061927580433	1659.59997558594
814.781850378881	1651.59997558594
815.501683145025	1654.40002441406
816.221425886743	1649.40002441406
816.941078611903	1648
817.660641328387	1649.40002441406
818.380114044065	1629.40002441406
819.099496766808	1615.40002441406
819.818789504492	1636.40002441406
820.53799226499	1631.80004882813
821.257105056168	1641.40002441406
821.976127885904	1639.80004882813
822.695060762064	1641
823.413903692525	1650.59997558594
824.132656685151	1638.80004882813
824.851319747817	1650
825.569892888388	1644.80004882813
826.288376114739	1662.80004882813
827.006769434737	1646.40002441406
827.725072856249	1644.40002441406
828.443286387142	1632.19995117188
829.161410035285	1632.19995117188
829.87944380855	1608
830.597387714798	1605.40002441406
831.315241761898	1623.19995117188
832.033005957715	1621.80004882813
832.750680310119	1624
833.468264826969	1653
834.18575951614	1642.40002441406
834.903164385486	1649.59997558594
835.620479442878	1639.80004882813
836.337704696181	1663.80004882813
837.054840153255	1656.80004882813
837.771885821962	1653.40002441406
838.488841710172	1663.40002441406
839.20570782574	1657.80004882813
839.922484176531	1652.40002441406
840.639170770409	1641.40002441406
841.355767615231	1643
842.072274718864	1644.40002441406
842.788692089164	1646.59997558594
843.505019733993	1646.19995117188
844.221257661209	1633.80004882813
844.937405878676	1642.80004882813
845.65346439425	1657
846.369433215789	1634.19995117188
847.085312351156	1633.19995117188
847.801101808205	1629.59997558594
848.516801594793	1644.19995117188
849.232411718781	1639.80004882813
849.947932188021	1635.40002441406
850.663363010376	1638.59997558594
851.378704193698	1632.59997558594
852.093955745842	1639
852.809117674669	1640.59997558594
853.524189988028	1630.59997558594
854.239172693778	1647.80004882813
854.954065799768	1644.19995117188
855.668869313857	1655
856.383583243899	1641.59997558594
857.098207597743	1637
857.812742383246	1651.19995117188
858.527187608255	1648.40002441406
859.241543280628	1641.40002441406
859.955809408218	1634.80004882813
860.669985998868	1630.80004882813
861.384073060437	1631.59997558594
862.098070600772	1639.59997558594
862.811978627724	1663.40002441406
863.52579714914	1646.80004882813
864.239526172873	1660.19995117188
864.953165706776	1647.19995117188
865.666715758687	1645.19995117188
866.380176336464	1651.40002441406
867.093547447951	1651.59997558594
867.806829100996	1657.80004882813
868.520021303444	1646.80004882813
869.233124063149	1640.80004882813
869.94613738795	1640.40002441406
870.659061285693	1637.59997558594
871.37189576423	1625.80004882813
872.084640831403	1629.80004882813
872.797296495057	1652
873.509862763039	1661
874.22233964319	1661.59997558594
874.934727143353	1667
875.647025271374	1647
876.359234035097	1658.80004882813
877.071353442361	1650.80004882813
877.783383501015	1648.19995117188
878.495324218895	1643.40002441406
879.207175603844	1640.40002441406
879.918937663705	1637.59997558594
880.630610406318	1636.59997558594
881.342193839524	1639.80004882813
882.053687971161	1644.59997558594
882.765092809069	1651.19995117188
883.476408361091	1650
884.187634635066	1610.59997558594
884.898771638828	1600.59997558594
885.609819380221	1599.59997558594
886.320777867076	1604.19995117188
887.031647107236	1625
887.742427108536	1615.19995117188
888.453117878816	1615.59997558594
889.16371942591	1619.59997558594
889.874231757652	1622.80004882813
890.584654881883	1633.59997558594
891.294988806434	1632
892.005233539141	1634.19995117188
892.715389087837	1636.80004882813
893.42545546036	1639.19995117188
894.135432664543	1634.40002441406
894.845320708216	1635.19995117188
895.555119599216	1655.80004882813
896.264829345375	1660.40002441406
896.974449954526	1652.80004882813
897.683981434496	1677.40002441406
898.393423793125	1672.19995117188
899.102777038235	1677.19995117188
899.812041177664	1665.19995117188
900.521216219239	1676
901.230302170793	1663
901.939299040155	1673.19995117188
902.64820683515	1687.80004882813
903.357025563612	1686
904.065755233368	1679.59997558594
904.774395852247	1681.80004882813
905.482947428076	1664.80004882813
906.191409968682	1659.40002441406
906.899783481897	1661.80004882813
907.608067975538	1671.59997558594
908.316263457443	1659.80004882813
909.02436993543	1660.59997558594
909.732387417327	1655
910.440315910959	1651.19995117188
911.148155424154	1643.80004882813
911.855905964731	1654
912.563567540521	1648.19995117188
913.271140159339	1648
913.978623829017	1650
914.686018557374	1660.59997558594
915.393324352237	1657.80004882813
916.100541221421	1653.59997558594
916.807669172752	1657.80004882813
917.514708214054	1657.40002441406
918.221658353142	1670.40002441406
918.928519597843	1685.80004882813
919.635291955976	1670.19995117188
920.341975435358	1665.40002441406
921.048570043813	1645.19995117188
921.75507578916	1663.19995117188
922.461492679212	1646.19995117188
923.167820721795	1646.19995117188
923.874059924726	1647.40002441406
924.58021029582	1638.40002441406
925.286271842893	1635
925.992244573769	1648.40002441406
926.698128496262	1646.80004882813
927.403923618184	1651.19995117188
928.109629947355	1650
928.815247491593	1659.40002441406
929.520776258708	1667.40002441406
930.226216256519	1655.59997558594
930.931567492841	1663.40002441406
931.636829975482	1665.80004882813
932.342003712263	1657.40002441406
933.047088710995	1663.40002441406
933.752084979491	1647.80004882813
934.456992525564	1638.19995117188
935.161811357024	1618.59997558594
935.866541481688	1610
936.571182907363	1605
937.275735641861	1606.59997558594
937.980199692995	1598
938.684575068572	1609
939.388861776411	1603.80004882813
940.093059824311	1612.40002441406
940.797169220085	1627
941.501189971544	1614
942.205122086495	1639.59997558594
942.908965572751	1633
943.612720438111	1636.19995117188
944.316386690391	1622.80004882813
945.019964337391	1632.59997558594
945.723453386924	1632.40002441406
946.426853846795	1627.80004882813
947.130165724808	1627.40002441406
947.83338902877	1601.80004882813
948.536523766488	1601.19995117188
949.239569945764	1612.80004882813
949.942527574402	1613.19995117188
950.64539666021	1606.80004882813
951.348177210993	1633.59997558594
952.050869234548	1621.80004882813
952.753472738683	1619
953.455987731199	1600.80004882813
954.158414219898	1594.19995117188
954.860752212587	1592
955.563001717061	1600
956.265162741124	1622.19995117188
956.967235292576	1614
957.669219379224	1613.40002441406
958.371115008857	1623.80004882813
959.072922189283	1602.59997558594
959.774640928301	1602.80004882813
960.476271233708	1599.19995117188
961.177813113301	1585.40002441406
961.879266574882	1595.40002441406
962.580631626248	1592.19995117188
963.281908275194	1601.40002441406
963.98309652952	1601
964.684196397022	1599.40002441406
965.3852078855	1611.40002441406
966.086131002745	1622.80004882813
966.786965756555	1628.59997558594
967.487712154726	1640
968.188370205055	1648.40002441406
968.888939915331	1633
969.589421293352	1647.80004882813
970.289814346909	1668.80004882813
970.990119083801	1639.80004882813
971.690335511819	1639.80004882813
972.39046363875	1650.80004882813
973.090503472398	1647.19995117188
973.790455020545	1643.59997558594
974.490318290987	1650
975.190093291516	1647
975.889780029923	1646.80004882813
976.589378513998	1648.19995117188
977.288888751527	1650
977.988310750308	1645
978.687644518122	1654.40002441406
979.386890062767	1642.80004882813
980.086047392025	1643
980.785116513689	1631.19995117188
981.484097435542	1630
982.182990165377	1633.40002441406
982.88179471098	1620.40002441406
983.580511080137	1608.19995117188
984.279139280632	1610.59997558594
984.977679320253	1612.40002441406
985.67613120679	1625.59997558594
986.374494948027	1623.40002441406
987.072770551745	1618.19995117188
987.770958025731	1634.80004882813
988.469057377772	1628
989.167068615649	1633.80004882813
989.864991747145	1631.40002441406
990.562826780047	1614
991.260573722134	1621
991.958232581195	1618.80004882813
992.655803365003	1601
993.353286081346	1584.19995117188
994.050680738006	1595.80004882813
994.74798734276	1607.59997558594
995.44520590339	1638.59997558594
996.142336427681	1619.40002441406
996.839378923407	1618.40002441406
997.536333398348	1619
998.233199860289	1610.80004882813
998.929978317004	1619.59997558594
999.626668776274	1616.19995117188
1000.32327124587	1612.59997558594
1001.01978573359	1619.80004882813
1001.71621224718	1610.40002441406
1002.41255079445	1616.40002441406
1003.10880138315	1619.59997558594
1003.80496402107	1607
1004.50103871599	1609
1005.19702547567	1616.80004882813
1005.8929243079	1634.40002441406
1006.58873522045	1640.80004882813
1007.2844582211	1661.40002441406
1007.98009331761	1670.40002441406
1008.67564051776	1660
1009.37109982933	1653.40002441406
1010.06647126009	1627
1010.7617548178	1626.80004882813
1011.45695051026	1627
1012.15205834522	1621.19995117188
1012.84707833045	1614.59997558594
1013.54201047373	1627.59997558594
1014.23685478284	1627.40002441406
1014.93161126553	1620.19995117188
1015.62627992959	1627.40002441406
1016.32086078277	1623.80004882813
1017.01535383285	1620.80004882813
1017.70975908761	1631.59997558594
1018.40407655479	1617.80004882813
1019.09830624219	1620.80004882813
1019.79244815755	1637.19995117188
1020.48650230866	1621.59997558594
1021.18046870328	1620.40002441406
1021.87434734917	1623.59997558594
1022.56813825411	1613.80004882813
1023.26184142584	1620.59997558594
1023.95545687216	1626.59997558594
1024.64898460082	1619.40002441406
1025.34242461957	1611
1026.0357769362	1614
1026.72904155846	1617
1027.42221849412	1613.80004882813
1028.11530775094	1623.59997558594
1028.80830933668	1633
1029.50122325911	1645.59997558594
1030.19404952599	1636.19995117188
1030.88678814508	1640.59997558594
1031.57943912414	1638.40002441406
1032.27200247093	1626.59997558594
1032.96447819323	1623.80004882813
1033.65686629878	1626.19995117188
1034.34916679534	1610
1035.04137969068	1611.40002441406
1035.73350499256	1620.40002441406
1036.42554270874	1609.59997558594
1037.11749284697	1616
1037.80935541501	1611.19995117188
1038.50113042062	1615.80004882813
1039.19281787156	1608.40002441406
1039.88441777559	1600.19995117188
1040.57593014046	1597.19995117188
1041.26735497393	1603.80004882813
1041.95869228376	1626.40002441406
1042.6499420777	1622.40002441406
1043.3411043635	1632
1044.03217914893	1633.59997558594
1044.72316644174	1625.80004882813
1045.41406624968	1605.59997558594
1046.1048785805	1631
1046.79560344197	1628
1047.48624084182	1614
1048.17679078783	1605.80004882813
1048.86725328774	1610.19995117188
1049.55762834929	1607.80004882813
1050.24791598025	1596.80004882813
1050.93811618837	1610.19995117188
1051.62822898139	1589.40002441406
1052.31825436707	1612.80004882813
1053.00819235315	1609
1053.6980429474	1589.59997558594
1054.38780615755	1585.40002441406
1055.07748199136	1591.59997558594
1055.76707045658	1595.19995117188
1056.45657156095	1591.80004882813
1057.14598531222	1602.19995117188
1057.83531171814	1585.80004882813
1058.52455078646	1568.59997558594
1059.21370252494	1570.40002441406
1059.90276694129	1583.80004882813
1060.5917440433	1593.80004882813
1061.28063383868	1592.40002441406
1061.9694363352	1608.19995117188
1062.65815154059	1609.19995117188
1063.34677946261	1611
1064.03532010899	1597.59997558594
1064.72377348748	1590.40002441406
1065.41213960583	1596.40002441406
1066.10041847177	1587
1066.78861009306	1587
1067.47671447743	1583.19995117188
1068.16473163263	1575.19995117188
1068.85266156639	1574.40002441406
1069.54050428647	1589.40002441406
1070.2282598006	1593.19995117188
1070.91592811652	1583.40002441406
1071.60350924198	1593
1072.29100318471	1597.40002441406
1072.97840995245	1596.19995117188
1073.66572955295	1579.80004882813
1074.35296199394	1584.59997558594
1075.04010728316	1573
1075.72716542836	1580.80004882813
1076.41413643726	1568.59997558594
1077.10102031761	1585
1077.78781707715	1574.19995117188
1078.4745267236	1594.59997558594
1079.16114926471	1603
1079.84768470822	1601.19995117188
1080.53413306185	1610.80004882813
1081.22049433336	1615.19995117188
1081.90676853046	1615
1082.5929556609	1608.19995117188
1083.27905573241	1611.19995117188
1083.96506875272	1615.40002441406
1084.65099472957	1599.19995117188
1085.3368336707	1615
1086.02258558383	1588.40002441406
1086.70825047669	1578.59997558594
1087.39382835703	1577
1088.07931923257	1576
1088.76472311104	1573
1089.45004000018	1584.80004882813
1090.13526990771	1585
1090.82041284137	1594.19995117188
1091.50546880889	1612.59997558594
1092.19043781799	1633.19995117188
1092.87531987642	1634
1093.56011499188	1626.80004882813
1094.24482317212	1632
1094.92944442486	1610.80004882813
1095.61397875783	1609.59997558594
1096.29842617876	1584.40002441406
1096.98278669537	1593.19995117188
1097.6670603154	1580.40002441406
1098.35124704656	1569
1099.03534689659	1578.19995117188
1099.71935987322	1577
1100.40328598416	1581.59997558594
1101.08712523713	1594.59997558594
1101.77087763988	1592.40002441406
1102.45454320012	1602.19995117188
1103.13812192557	1619
1103.82161382396	1607.40002441406
1104.50501890301	1612.59997558594
1105.18833717045	1621
1105.87156863399	1616
1106.55471330137	1599.40002441406
1107.2377711803	1595
1107.9207422785	1588.59997558594
1108.60362660369	1594.40002441406
1109.2864241636	1600
1109.96913496594	1607.59997558594
1110.65175901844	1609.80004882813
1111.33429632882	1607
1112.01674690479	1616.19995117188
1112.69911075408	1607.80004882813
1113.38138788439	1612.80004882813
1114.06357830346	1616.80004882813
1114.745682019	1613.19995117188
1115.42769903872	1604.80004882813
1116.10962937035	1626.19995117188
1116.7914730216	1628.80004882813
1117.47323000018	1616.80004882813
1118.15490031382	1630.80004882813
1118.83648397022	1630.80004882813
1119.51798097712	1628.80004882813
1120.1993913422	1631.80004882813
1120.88071507321	1620.19995117188
1121.56195217784	1623
1122.24310266381	1615.19995117188
1122.92416653884	1608.59997558594
1123.60514381064	1624.19995117188
1124.28603448692	1612.19995117188
1124.9668385754	1600.59997558594
1125.64755608378	1623.80004882813
1126.32818701978	1627.19995117188
1127.00873139111	1610.19995117188
1127.68918920548	1636
1128.3695604706	1628.19995117188
1129.04984519419	1624.80004882813
1129.73004338394	1617
1130.41015504758	1600
1131.09018019281	1606.59997558594
1131.77011882734	1598.59997558594
1132.44997095888	1602.59997558594
1133.12973659514	1601
1133.80941574381	1602.59997558594
1134.48900841263	1603.40002441406
1135.16851460927	1610.80004882813
1135.84793434147	1603.80004882813
1136.52726761692	1598.40002441406
1137.20651444333	1585.40002441406
1137.8856748284	1588.59997558594
1138.56474877984	1579.19995117188
1139.24373630536	1573
1139.92263741265	1567.19995117188
1140.60145210943	1560.80004882813
1141.28018040339	1574
1141.95882230225	1575.80004882813
1142.6373778137	1582.80004882813
1143.31584694545	1590.40002441406
1143.99422970519	1592.59997558594
1144.67252610064	1596.40002441406
1145.35073613949	1603.59997558594
1146.02885982944	1602.19995117188
1146.7068971782	1583.80004882813
1147.38484819347	1587.19995117188
1148.06271288294	1585.40002441406
1148.74049125432	1575.59997558594
1149.41818331531	1587
1150.0957890736	1579.59997558594
1150.77330853689	1595.19995117188
1151.45074171289	1604.80004882813
1152.12808860928	1605.40002441406
1152.80534923378	1612.40002441406
1153.48252359407	1606.19995117188
1154.15961169786	1602.59997558594
1154.83661355283	1584.80004882813
1155.51352916669	1574.59997558594
1156.19035854713	1586.40002441406
1156.86710170185	1587.80004882813
1157.54375863855	1590.19995117188
1158.22032936491	1589.80004882813
1158.89681388863	1585.19995117188
1159.57321221741	1596.80004882813
1160.24952435894	1592.80004882813
1160.92575032092	1614
1161.60189011103	1617
1162.27794373697	1607
1162.95391120644	1603
1163.62979252712	1612
1164.3055877067	1607.19995117188
1164.98129675288	1616.59997558594
1165.65691967336	1609.19995117188
1166.33245647581	1627.19995117188
1167.00790716792	1614.80004882813
1167.6832717574	1614.19995117188
1168.35855025193	1613
1169.0337426592	1608.59997558594
1169.70884898689	1600.59997558594
1170.3838692427	1592.80004882813
1171.05880343431	1585
1171.73365156941	1575.80004882813
1172.40841365569	1583
1173.08308970083	1594.19995117188
1173.75767971253	1607.40002441406
1174.43218369847	1615.80004882813
1175.10660166633	1627.19995117188
1175.7809336238	1615.59997558594
1176.45517957857	1615.19995117188
1177.12933953832	1609.59997558594
1177.80341351073	1606.19995117188
1178.47740150349	1600.40002441406
1179.15130352429	1615.59997558594
1179.8251195808	1625
1180.49884968071	1633.59997558594
1181.1724938317	1642.80004882813
1181.84605204145	1656
1182.51952431766	1662.40002441406
1183.19291066799	1653.19995117188
1183.86621110013	1666.80004882813
1184.53942562176	1658.59997558594
1185.21255424057	1657
1185.88559696422	1644.59997558594
1186.55855380041	1645.19995117188
1187.2314247568	1636.40002441406
1187.90420984109	1641.40002441406
1188.57690906095	1626.59997558594
1189.24952242405	1636.80004882813
1189.92204993808	1642.19995117188
1190.59449161071	1624.80004882813
1191.26684744962	1629.19995117188
1191.93911746249	1625
1192.61130165699	1623.19995117188
1193.28340004081	1615.40002441406
1193.95541262161	1622.59997558594
1194.62733940707	1630.40002441406
1195.29918040487	1622.40002441406
1195.97093562269	1636.59997558594
1196.64260506819	1623.80004882813
1197.31418874905	1626.59997558594
1197.98568667295	1607.19995117188
1198.65709884755	1635.59997558594
1199.32842528053	1641.80004882813
1199.99966597957	1650
1200.67082095234	1629.40002441406
1201.3418902065	1609.19995117188
1202.01287374974	1598.40002441406
1202.68377158971	1598.19995117188
1203.3545837341	1601
1204.02531019057	1604.80004882813
1204.6959509668	1597.80004882813
1205.36650607045	1599
1206.03697550919	1591.19995117188
1206.70735929069	1612.19995117188
1207.37765742263	1616.40002441406
1208.04786991266	1632.80004882813
1208.71799676846	1623
1209.38803799769	1600.19995117188
1210.05799360803	1605.59997558594
1210.72786360714	1599.19995117188
1211.39764800268	1615.59997558594
1212.06734680233	1593.40002441406
1212.73696001375	1593.19995117188
1213.4064876446	1587.40002441406
1214.07592970255	1589.59997558594
1214.74528619526	1603
1215.4145571304	1601.40002441406
1216.08374251564	1595
1216.75284235863	1594.40002441406
1217.42185666704	1589.59997558594
1218.09078544854	1580.19995117188
1218.75962871078	1589.40002441406
1219.42838646143	1570.59997558594
1220.09705870816	1565
1220.76564545861	1549.19995117188
1221.43414672046	1558.80004882813
1222.10256250136	1576.80004882813
1222.77089280898	1591.40002441406
1223.43913765098	1590.19995117188
1224.107297035	1606.40002441406
1224.77537096873	1603.40002441406
1225.44335945981	1606.80004882813
1226.1112625159	1614.19995117188
1226.77908014467	1605
1227.44681235376	1575.59997558594
1228.11445915085	1591.59997558594
1228.78202054357	1603
1229.44949653961	1600.59997558594
1230.11688714659	1595.19995117188
1230.7841923722	1582.19995117188
1231.45141222407	1581.19995117188
1232.11854670988	1566.19995117188
1232.78559583726	1570
1233.45255961388	1570.59997558594
1234.1194380474	1563
1234.78623114546	1560.59997558594
1235.45293891572	1570
1236.11956136583	1576.19995117188
1236.78609850345	1599.40002441406
1237.45255033623	1593.40002441406
1238.11891687182	1599.40002441406
1238.78519811788	1594.19995117188
1239.45139408205	1581.80004882813
1240.11750477198	1553
1240.78353019534	1550.19995117188
1241.44947035976	1551.19995117188
1242.11532527291	1530.80004882813
1242.78109494242	1549
1243.44677937595	1560.80004882813
1244.11237858115	1554
1244.77789256567	1562.59997558594
1245.44332133715	1563.19995117188
1246.10866490325	1573.80004882813
1246.7739232716	1574.40002441406
1247.43909644987	1590.19995117188
1248.10418444569	1593.40002441406
1248.76918726671	1599.59997558594
1249.43410492059	1585.40002441406
1250.09893741496	1581.19995117188
1250.76368475747	1592.40002441406
1251.42834695576	1578.59997558594
1252.09292401749	1594.80004882813
1252.75741595029	1568
1253.42182276182	1560.59997558594
1254.08614445971	1569.40002441406
1254.75038105161	1555.80004882813
1255.41453254515	1568.19995117188
1256.07859894799	1560.19995117188
1256.74258026777	1566.59997558594
1257.40647651213	1563.40002441406
1258.0702876887	1571.80004882813
1258.73401380514	1564.80004882813
1259.39765486908	1560.80004882813
1260.06121088817	1560.19995117188
1260.72468187004	1562
1261.38806782233	1559.40002441406
1262.05136875269	1559
1262.71458466875	1564.19995117188
1263.37771557815	1576.40002441406
1264.04076148854	1582
1264.70372240753	1581.40002441406
1265.3665983428	1574.80004882813
1266.02938930195	1572.80004882813
1266.69209529263	1563
1267.35471632249	1560.40002441406
1268.01725239914	1580.59997558594
1268.67970353024	1578
1269.34206972342	1573.19995117188
1270.00435098631	1589.59997558594
1270.66654732655	1579.59997558594
1271.32865875177	1586.59997558594
1271.9906852696	1578.19995117188
1272.65262688768	1566.19995117188
1273.31448361365	1564.80004882813
1273.97625545514	1580.19995117188
1274.63794241978	1577.80004882813
1275.2995445152	1576.19995117188
1275.96106174903	1574.40002441406
1276.62249412892	1570
1277.28384166248	1573.59997558594
1277.94510435735	1581.59997558594
1278.60628222116	1579.40002441406
1279.26737526155	1592.80004882813
1279.92838348613	1585.59997558594
1280.58930690255	1594.40002441406
1281.25014551842	1583.59997558594
1281.91089934139	1580.19995117188
1282.57156837907	1568.80004882813
1283.2321526391	1573.19995117188
1283.89265212911	1581.40002441406
1284.55306685671	1569.80004882813
1285.21339682955	1552.19995117188
1285.87364205525	1547.80004882813
1286.53380254142	1539
1287.19387829571	1524
1287.85386932573	1535.80004882813
1288.51377563911	1555.19995117188
1289.17359724348	1567
1289.83333414646	1562
1290.49298635567	1572.40002441406
1291.15255387874	1568.80004882813
1291.8120367233	1568.59997558594
1292.47143489696	1581.19995117188
1293.13074840736	1572.40002441406
1293.7899772621	1572.19995117188
1294.44912146882	1567
1295.10818103513	1566.19995117188
1295.76715596866	1551
1296.42604627704	1556.19995117188
1297.08485196787	1558
1297.74357304878	1550.40002441406
1298.4022095274	1565.80004882813
1299.06076141134	1559
1299.71922870821	1570.59997558594
1300.37761142565	1568
1301.03590957126	1593.59997558594
1301.69412315268	1590.59997558594
1302.3522521775	1583
1303.01029665336	1589
1303.66825658787	1594
1304.32613198865	1582.19995117188
1304.98392286332	1590.59997558594
1305.64162921948	1594
1306.29925106476	1603.40002441406
1306.95678840677	1601.80004882813
1307.61424125312	1607
1308.27160961145	1597
1308.92889348934	1600.59997558594
1309.58609289443	1598.19995117188
1310.24320783432	1593.80004882813
1310.90023831664	1591
1311.55718434898	1606.19995117188
1312.21404593897	1596.40002441406
1312.87082309421	1599.19995117188
1313.52751582233	1593.40002441406
1314.18412413092	1588.19995117188
1314.84064802761	1584.59997558594
1315.49708752	1589.80004882813
1316.1534426157	1588.19995117188
1316.80971332233	1584.59997558594
1317.46589964749	1593.59997558594
1318.1220015988	1593
1318.77801918386	1588.59997558594
1319.43395241028	1595.19995117188
1320.08980128567	1580.19995117188
1320.74556581764	1594.59997558594
1321.4012460138	1597
1322.05684188176	1588.19995117188
1322.71235342911	1580.40002441406
1323.36778066347	1577.19995117188
1324.02312359245	1579.80004882813
1324.67838222365	1576.80004882813
1325.33355656468	1575.80004882813
1325.98864662314	1587.80004882813
1326.64365240663	1580.59997558594
1327.29857392277	1578.80004882813
1327.95341117915	1564.40002441406
1328.60816418339	1562
1329.26283294308	1563.59997558594
1329.91741746582	1550.40002441406
1330.57191775923	1536.80004882813
1331.2263338309	1539.59997558594
1331.88066568843	1547.19995117188
1332.53491333943	1551
1333.1890767915	1540.19995117188
1333.84315605224	1556.80004882813
1334.49715112925	1549.40002441406
1335.15106203013	1567.80004882813
1335.80488876249	1573.19995117188
1336.45863133391	1565.59997558594
1337.112289752	1566.80004882813
1337.76586402437	1571.40002441406
1338.4193541586	1548.19995117188
1339.0727601623	1567.80004882813
1339.72608204306	1564.59997558594
1340.37931980849	1561.59997558594
1341.03247346617	1559
1341.68554302372	1566.40002441406
1342.33852848871	1546.59997558594
1342.99142986876	1549.80004882813
1343.64424717145	1547.80004882813
1344.29698040438	1556.59997558594
1344.94962957515	1554.19995117188
1345.60219469135	1559.40002441406
1346.25467576058	1569.19995117188
1346.90707279042	1569.19995117188
1347.55938578848	1575
1348.21161476235	1568
1348.86375971962	1561.80004882813
1349.51582066787	1571.40002441406
1350.16779761472	1593.59997558594
1350.81969056774	1596.59997558594
1351.47149953453	1607.59997558594
1352.12322452269	1611.59997558594
1352.77486553979	1632.40002441406
1353.42642259344	1635
1354.07789569122	1652.59997558594
1354.72928484072	1660.40002441406
1355.38059004953	1661.40002441406
1356.03181132525	1681.19995117188
1356.68294867545	1680.80004882813
1357.33400210773	1681.19995117188
1357.98497162968	1670.59997558594
1358.63585724889	1683.80004882813
1359.28665897294	1675.19995117188
1359.93737680942	1666.80004882813
1360.58801076591	1687.19995117188
1361.23856085001	1670.59997558594
1361.88902706929	1675.40002441406
1362.53940943135	1680.80004882813
1363.18970794377	1686.59997558594
1363.83992261413	1659.19995117188
1364.49005345003	1666.59997558594
1365.14010045904	1669.59997558594
1365.79006364874	1649
1366.43994302673	1641.40002441406
1367.08973860058	1668.40002441406
1367.73945037788	1647
1368.38907836621	1647
1369.03862257315	1626.59997558594
1369.68808300629	1616
1370.3374596732	1612.80004882813
1370.98675258148	1613
1371.63596173868	1594.19995117188
1372.28508715241	1606.59997558594
1372.93412883024	1579.19995117188
1373.58308677974	1572
1374.2319610085	1562.19995117188
1374.8807515241	1561.80004882813
1375.52945833412	1543.40002441406
1376.17808144612	1549
1376.82662086771	1543.80004882813
1377.47507660644	1532.80004882813
1378.12344866989	1510.59997558594
1378.77173706565	1511.19995117188
1379.41994180129	1526.40002441406
1380.06806288439	1537.19995117188
1380.71610032252	1523.59997558594
1381.36405412326	1525.40002441406
1382.01192429419	1523.40002441406
1382.65971084287	1525.59997558594
1383.30741377688	1524.40002441406
1383.95503310381	1510.19995117188
1384.60256883121	1523.59997558594
1385.25002096667	1538.40002441406
1385.89738951775	1531
1386.54467449204	1525.80004882813
1387.19187589709	1526.40002441406
1387.8389937405	1515.40002441406
1388.48602802982	1515.19995117188
1389.13297877262	1543.80004882813
1389.77984597649	1524.19995117188
1390.42662964899	1536.59997558594
1391.07332979768	1516.59997558594
1391.71994643015	1526
1392.36647955395	1519.80004882813
1393.01292917667	1526.40002441406
1393.65929530586	1521
1394.3055779491	1531.59997558594
1394.95177711395	1521.80004882813
1395.59789280799	1517.19995117188
1396.24392503877	1516.80004882813
1396.88987381387	1518.40002441406
1397.53573914086	1507
1398.1815210273	1520.59997558594
1398.82721948075	1523.19995117188
1399.47283450878	1536
1400.11836611897	1530.40002441406
1400.76381431886	1533.59997558594
1401.40917911603	1519.40002441406
1402.05446051805	1503
1402.69965853247	1494.40002441406
1403.34477316686	1490.80004882813
1403.98980442878	1496.19995117188
1404.6347523258	1512
1405.27961686548	1496.80004882813
1405.92439805538	1503.40002441406
1406.56909590306	1518.80004882813
1407.21371041608	1519.40002441406
1407.85824160202	1504.80004882813
1408.50268946841	1510.40002441406
1409.14705402284	1508.80004882813
1409.79133527285	1491.40002441406
1410.43553322601	1490
1411.07964788987	1493.40002441406
1411.723679272	1507.19995117188
1412.36762737996	1506.59997558594
1413.01149222129	1513
1413.65527380357	1525.19995117188
1414.29897213435	1526.59997558594
1414.94258722118	1521
1415.58611907163	1523.19995117188
1416.22956769325	1517
1416.87293309359	1521.59997558594
1417.51621528021	1519.40002441406
1418.15941426067	1521.59997558594
1418.80253004253	1539.59997558594
1419.44556263333	1523.80004882813
1420.08851204063	1526.59997558594
1420.731378272	1533.80004882813
1421.37416133497	1532.59997558594
1422.0168612371	1546.40002441406
1422.65947798596	1534.19995117188
1423.30201158908	1537.40002441406
1423.94446205403	1523.59997558594
1424.58682938835	1522
1425.2291135996	1533.80004882813
1425.87131469532	1537.19995117188
1426.51343268308	1539.59997558594
1427.15546757042	1529.80004882813
1427.79741936488	1536.19995117188
1428.43928807403	1534.19995117188
1429.0810737054	1546.19995117188
1429.72277626656	1536.80004882813
1430.36439576504	1532
1431.00593220841	1502.40002441406
1431.64738560419	1515
1432.28875595995	1500.59997558594
1432.93004328324	1494
1433.57124758159	1477.59997558594
1434.21236886255	1494.40002441406
1434.85340713368	1492.40002441406
1435.49436240252	1486.80004882813
1436.13523467661	1502.40002441406
1436.77602396349	1508.80004882813
1437.41673027073	1516.59997558594
1438.05735360585	1516
1438.69789397641	1517.59997558594
1439.33835138994	1513.80004882813
1439.978725854	1507
1440.61901737612	1509.80004882813
1441.25922596385	1511.59997558594
1441.89935162473	1509.59997558594
1442.53939436631	1517.40002441406
1443.17935419612	1505.19995117188
1443.81923112171	1504.59997558594
1444.45902515061	1500.19995117188
1445.09873629038	1490.19995117188
1445.73836454854	1488
1446.37790993265	1484.19995117188
1447.01737245024	1481.40002441406
1447.65675210885	1492.40002441406
1448.29604891602	1488.80004882813
1448.93526287928	1480.40002441406
1449.57439400618	1473.80004882813
1450.21344230426	1472
1450.85240778105	1471.40002441406
1451.49129044409	1464.40002441406
1452.13009030092	1476.80004882813
1452.76880735907	1493.19995117188
1453.40744162608	1504.19995117188
1454.04599310949	1498.19995117188
1454.68446181683	1503.40002441406
1455.32284775564	1519.59997558594
1455.96115093345	1511.19995117188
1456.5993713578	1514
1457.23750903623	1502.59997558594
1457.87556397626	1503.80004882813
1458.51353618543	1498.40002441406
1459.15142567127	1487.59997558594
1459.78923244132	1495.40002441406
1460.42695650311	1506.80004882813
1461.06459786417	1494.80004882813
1461.70215653203	1503.40002441406
1462.33963251423	1491.80004882813
1462.97702581829	1486.80004882813
1463.61433645175	1482
1464.25156442214	1486
1464.88870973699	1498.40002441406
1465.52577240382	1511.59997558594
1466.16275243017	1494.19995117188
1466.79964982356	1503.59997558594
1467.43646459154	1483.40002441406
1468.07319674161	1497.40002441406
1468.70984628132	1493
1469.34641321818	1514.40002441406
1469.98289755974	1505.59997558594
1470.6192993135	1499.59997558594
1471.25561848701	1498.80004882813
1471.89185508779	1495
1472.52800912336	1503.40002441406
1473.16408060124	1503.59997558594
1473.80006952897	1493.80004882813
1474.43597591407	1483.59997558594
1475.07179976406	1467.40002441406
1475.70754108647	1463.80004882813
1476.34319988883	1472.59997558594
1476.97877617865	1483
1477.61426996345	1487.59997558594
1478.24968125077	1505
1478.88501004812	1494
1479.52025636303	1502.59997558594
1480.15542020302	1499.19995117188
1480.79050157561	1502
1481.42550048832	1497.59997558594
1482.06041694867	1507.40002441406
1482.69525096418	1504.80004882813
1483.33000254237	1492.19995117188
1483.96467169077	1494.80004882813
1484.59925841689	1491
1485.23376272825	1497.40002441406
1485.86818463237	1483.40002441406
1486.50252413677	1494.19995117188
1487.13678124896	1495.80004882813
1487.77095597646	1512
1488.4050483268	1499.19995117188
1489.03905830749	1503
1489.67298592604	1486.80004882813
1490.30683118996	1503.19995117188
1490.9405941068	1495.19995117188
1491.57427468403	1515.80004882813
1492.2078729292	1511.19995117188
1492.84138884981	1506.40002441406
1493.47482245338	1517.19995117188
1494.10817374742	1502.59997558594
1494.74144273944	1510.19995117188
1495.37462943696	1511.80004882813
1496.0077338475	1515.40002441406
1496.64075597856	1515.19995117188
1497.27369583765	1532.19995117188
1497.9065534323	1525.80004882813
1498.53932877001	1522.59997558594
1499.17202185829	1499.80004882813
1499.80463270465	1497.59997558594
1500.43716131661	1490.40002441406
1501.06960770167	1494
1501.70197186735	1504.19995117188
1502.33425382116	1497.80004882813
1502.96645357059	1510.19995117188
1503.59857112317	1512.59997558594
1504.23060648641	1513
1504.8625596678	1515.40002441406
1505.49443067486	1513.59997558594
1506.1262195151	1511.80004882813
1506.75792619602	1522.40002441406
1507.38955072513	1530.59997558594
1508.02109310993	1522.19995117188
1508.65255335794	1537.19995117188
1509.28393147666	1534.80004882813
1509.91522747359	1515.59997558594
1510.54644135624	1508
1511.17757313212	1506
1511.80862280872	1514
1512.43959039356	1499.80004882813
1513.07047589413	1508
1513.70127931795	1511.40002441406
1514.33200067251	1527.40002441406
1514.96263996531	1526.40002441406
1515.59319720386	1511.40002441406
1516.22367239567	1509.80004882813
1516.85406554822	1503
1517.48437666903	1508.80004882813
1518.1146057656	1489.59997558594
1518.74475284542	1496.19995117188
1519.374817916	1494.19995117188
1520.00480098483	1501.80004882813
1520.63470205942	1504
1521.26452114726	1480.19995117188
1521.89425825586	1485.59997558594
1522.52391339271	1489.80004882813
1523.15348656531	1469.59997558594
1523.78297778116	1470.40002441406
1524.41238704775	1466.80004882813
1525.04171437259	1463.40002441406
1525.67095976317	1471.59997558594
1526.30012322699	1473.59997558594
1526.92920477154	1476.19995117188
1527.55820440432	1458.59997558594
1528.18712213283	1463.19995117188
1528.81595796455	1445.59997558594
1529.44471190699	1450.40002441406
1530.07338396764	1445.19995117188
1530.70197415399	1452.59997558594
1531.33048247353	1448.19995117188
1531.95890893377	1451.40002441406
1532.58725354219	1450.80004882813
1533.21551630629	1482.80004882813
1533.84369723356	1478
1534.47179633148	1468.40002441406
1535.09981360757	1472.59997558594
1535.72774906929	1480
1536.35560272415	1486.59997558594
1536.98337457963	1492.40002441406
1537.61106464323	1481.40002441406
1538.23867292243	1512.59997558594
1538.86619942473	1499.59997558594
1539.49364415762	1498.80004882813
1540.12100712857	1494.40002441406
1540.74828834509	1497
1541.37548781466	1500
1542.00260554478	1506.59997558594
1542.62964154291	1489.19995117188
1543.25659581655	1492.19995117188
1543.8834683732	1476.59997558594
1544.51025922034	1484.80004882813
1545.13696836544	1470
1545.76359581601	1465
1546.39014157952	1458
1547.01660566345	1447.80004882813
1547.64298807531	1447.40002441406
1548.26928882255	1446.19995117188
1548.89550791269	1446.40002441406
1549.52164535318	1441.80004882813
1550.14770115153	1443
1550.77367531521	1446
1551.39956785171	1446.80004882813
1552.0253787685	1443.80004882813
1552.65110807307	1444.40002441406
1553.2767557729	1450.59997558594
1553.90232187548	1454.80004882813
1554.52780638828	1444.80004882813
1555.15320931879	1437.40002441406
1555.77853067447	1449.19995117188
1556.40377046282	1459.59997558594
1557.02892869132	1453.40002441406
1557.65400536744	1462
1558.27900049866	1452.19995117188
1558.90391409247	1447.19995117188
1559.52874615633	1450
1560.15349669773	1450.40002441406
1560.77816572414	1465
1561.40275324305	1461.59997558594
1562.02725926192	1463.40002441406
1562.65168378824	1459.59997558594
1563.27602682948	1464
1563.90028839311	1467.59997558594
1564.52446848662	1465
1565.14856711748	1472.19995117188
1565.77258429316	1467.19995117188
1566.39652002113	1472.80004882813
1567.02037430887	1468.59997558594
1567.64414716387	1459.80004882813
1568.26783859357	1472.19995117188
1568.89144860547	1476.59997558594
1569.51497720703	1466.40002441406
1570.13842440573	1472.59997558594
1570.76179020904	1474.80004882813
1571.38507462442	1470.80004882813
1572.00827765936	1468.19995117188
1572.63139932132	1482
1573.25443961777	1484.40002441406
1573.87739855618	1469.59997558594
1574.50027614402	1460.40002441406
1575.12307238877	1455.80004882813
1575.74578729789	1439.40002441406
1576.36842087885	1455.19995117188
1576.99097313912	1457.40002441406
1577.61344408616	1453.59997558594
1578.23583372745	1452.80004882813
1578.85814207046	1462.40002441406
1579.48036912264	1470
1580.10251489147	1455
1580.72457938441	1446
1581.34656260893	1433.80004882813
1581.9684645725	1431.19995117188
1582.59028528258	1441.40002441406
1583.21202474663	1441.80004882813
1583.83368297212	1453.80004882813
1584.45525996652	1460.19995117188
1585.07675573728	1444.40002441406
1585.69817029188	1451
1586.31950363778	1437.59997558594
1586.94075578243	1430.80004882813
1587.5619267333	1426.59997558594
1588.18301649786	1424.59997558594
1588.80402508357	1412.19995117188
1589.42495249788	1408
1590.04579874826	1401
1590.66656384217	1399
1591.28724778707	1389.59997558594
1591.90785059042	1390.80004882813
1592.52837225968	1389.40002441406
1593.14881280232	1387.80004882813
1593.76917222578	1387.80004882813
1594.38945053753	1381
1595.00964774502	1397
1595.62976385573	1393.40002441406
1596.24979887709	1409.40002441406
1596.86975281657	1403.80004882813
1597.48962568164	1423
1598.10941747974	1410
1598.72912821832	1406
1599.34875790486	1414.19995117188
1599.9683065468	1404.40002441406
1600.58777415159	1410.19995117188
1601.2071607267	1403.80004882813
1601.82646627958	1400.80004882813
1602.44569081769	1395.59997558594
1603.06483434846	1395.59997558594
1603.68389687937	1392.80004882813
1604.30287841786	1397.19995117188
1604.92177897139	1403.40002441406
1605.54059854741	1395
1606.15933715337	1382.19995117188
1606.77799479672	1377.40002441406
1607.39657148492	1381.80004882813
1608.01506722542	1380.19995117188
1608.63348202566	1376.19995117188
1609.2518158931	1388.59997558594
1609.87006883519	1380.40002441406
1610.48824085939	1373.80004882813
1611.10633197312	1381.59997558594
1611.72434218386	1384.40002441406
1612.34227149904	1381.80004882813
1612.96011992612	1376.40002441406
1613.57788747254	1355.40002441406
1614.19557414575	1357.59997558594
1614.8131799532	1360
1615.43070490234	1356.40002441406
1616.04814900061	1362
1616.66551225545	1363.59997558594
1617.28279467433	1365
1617.89999626467	1361.19995117188
1618.51711703393	1366
1619.13415698955	1369.80004882813
1619.75111613898	1372.40002441406
1620.36799448966	1368.59997558594
1620.98479204903	1376
1621.60150882455	1373.59997558594
1622.21814482364	1366
1622.83470005376	1369.59997558594
1623.45117452235	1379.59997558594
1624.06756823685	1374.80004882813
1624.6838812047	1381.40002441406
1625.30011343335	1375.40002441406
1625.91626493022	1366.40002441406
1626.53233570278	1366.40002441406
1627.14832575845	1371.40002441406
1627.76423510468	1382.59997558594
1628.38006374891	1383
1628.99581169857	1378.59997558594
1629.61147896111	1383
1630.22706554397	1392.59997558594
1630.84257145457	1391
1631.45799670038	1393.80004882813
1632.07334128881	1381
1632.6886052273	1373.59997558594
1633.3037885233	1370.40002441406
1633.91889118425	1361.40002441406
1634.53391321757	1359
1635.1488546307	1357.19995117188
1635.76371543108	1356.19995117188
1636.37849562616	1340.40002441406
1636.99319522335	1349.59997558594
1637.60781423009	1364
1638.22235265383	1354.19995117188
1638.83681050198	1362.40002441406
1639.451187782	1365.80004882813
1640.0654845013	1380.19995117188
1640.67970066734	1366.19995117188
1641.29383628752	1375
1641.9078913693	1384.80004882813
1642.5218659201	1385.59997558594
1643.13575994735	1392.59997558594
1643.74957345849	1390.40002441406
1644.36330646094	1392.80004882813
1644.97695896213	1389.59997558594
1645.59053096951	1391.40002441406
1646.20402249049	1389.40002441406
1646.8174335325	1396.40002441406
1647.43076410298	1397.19995117188
1648.04401420935	1406.19995117188
1648.65718385905	1409.19995117188
1649.2702730595	1428.19995117188
1649.88328181812	1424.59997558594
1650.49621014236	1429.80004882813
1651.10905803963	1428.19995117188
1651.72182551735	1414.19995117188
1652.33451258297	1414
1652.9471192439	1399.19995117188
1653.55964550757	1397.80004882813
1654.1720913814	1399.80004882813
1654.78445687283	1394.19995117188
1655.39674198926	1383.59997558594
1656.00894673814	1391.59997558594
1656.62107112688	1371.59997558594
1657.23311516291	1367.40002441406
1657.84507885365	1352.40002441406
1658.45696220652	1345.59997558594
1659.06876522895	1347.80004882813
1659.68048792835	1345
1660.29213031217	1346.80004882813
1660.90369238779	1328.40002441406
1661.51517416267	1330.19995117188
1662.12657564421	1337.19995117188
1662.73789683984	1339
1663.34913775697	1323
1663.96029840303	1325.59997558594
1664.57137878544	1321.80004882813
1665.18237891161	1319.19995117188
1665.79329878897	1297.40002441406
1666.40413842493	1308.80004882813
1667.01489782691	1309.40002441406
1667.62557700233	1304.19995117188
1668.2361759586	1314
1668.84669470315	1326.59997558594
1669.4571332434	1313
1670.06749158675	1315
1670.67776974062	1323
1671.28796771243	1314.59997558594
1671.8980855096	1289.80004882813
1672.50812313954	1310.40002441406
1673.11808060967	1306.59997558594
1673.72795792739	1298.19995117188
1674.33775510013	1299.59997558594
1674.9474721353	1302
1675.55710904031	1295.19995117188
1676.16666582257	1303.80004882813
1676.7761424895	1300.40002441406
1677.38553904851	1291.19995117188
1677.99485550702	1283.59997558594
1678.60409187243	1278
1679.21324815215	1285
1679.8223243536	1282.59997558594
1680.43132048419	1278
1681.04023655132	1275.40002441406
1681.64907256241	1271
1682.25782852487	1270.19995117188
1682.86650444611	1261
1683.47510033353	1251.80004882813
1684.08361619455	1259.19995117188
1684.69205203657	1262.40002441406
1685.300407867	1259
1685.90868369325	1254.80004882813
1686.51687952272	1262
1687.12499536283	1260.40002441406
1687.73303122098	1261
1688.34098710457	1259.59997558594
1688.94886302101	1268
1689.55665897772	1258.59997558594
1690.16437498208	1251
1690.77201104152	1253
1691.37956716342	1245.59997558594
1691.9870433552	1249
1692.59443962426	1245.40002441406
1693.20175597801	1237.40002441406
1693.80899242384	1244.80004882813
1694.41614896916	1250.40002441406
1695.02322562138	1253
1695.63022238789	1246
1696.23713927609	1254.40002441406
1696.8439762934	1250.40002441406
1697.4507334472	1263
1698.05741074491	1258.19995117188
1698.66400819391	1258.80004882813
1699.27052580161	1245.59997558594
1699.87696357542	1233
1700.48332152272	1227.59997558594
1701.08959965092	1237.40002441406
1701.69579796742	1229.59997558594
1702.30191647962	1230
1702.90795519491	1232.59997558594
1703.51391412069	1236.59997558594
1704.11979326437	1230
1704.72559263332	1228.80004882813
1705.33131223496	1224.80004882813
1705.93695207668	1224.59997558594
1706.54251216588	1226.59997558594
1707.14799250994	1217.80004882813
1707.75339311628	1210
1708.35871399227	1199.40002441406
1708.96395514532	1205.59997558594
1709.56911658282	1202.80004882813
