634.948122577771	1320.80004882813
635.690341530823	1314.80004882813
636.43246851086	1312.80004882813
637.174503525845	1323.80004882813
637.916446583745	1321.19995117188
638.658297692538	1314.59997558594
639.400056860179	1316
640.141724094637	1328.59997558594
640.883299403885	1334
641.62478279588	1337.59997558594
642.366174278594	1338.80004882813
643.107473859989	1345.19995117188
643.848681548029	1351.80004882813
644.589797350679	1351.40002441406
645.330821275901	1364.80004882813
646.071753331665	1353.19995117188
646.812593525922	1355
647.553341866646	1338.40002441406
648.293998361798	1335.19995117188
649.03456301933	1347.80004882813
649.775035847216	1342
650.515416853409	1336.59997558594
651.255706045874	1342
651.995903432568	1359.59997558594
652.736009021453	1356.59997558594
653.476022820486	1352.40002441406
654.215944837629	1351.80004882813
654.955775080842	1358.19995117188
655.695513558081	1347
656.435160277301	1347
657.174715246465	1346.19995117188
657.914178473527	1352.19995117188
658.653549966449	1359.19995117188
659.392829733176	1359.59997558594
660.132017781678	1369
660.871114119901	1362
661.610118755803	1345.19995117188
662.349031697343	1355.40002441406
663.087852952468	1356.59997558594
663.826582529139	1342.59997558594
664.565220435305	1349.59997558594
665.30376667892	1352.19995117188
666.04222126794	1350
666.780584210316	1347.19995117188
667.518855514	1340.19995117188
668.25703518694	1354.59997558594
668.995123237096	1350
669.733119672413	1350.40002441406
670.471024500842	1350.80004882813
671.208837730333	1348.59997558594
671.946559368839	1357
672.684189424308	1351.19995117188
673.421727904689	1339.59997558594
674.159174817929	1328.80004882813
674.896530171977	1329.80004882813
675.633793974786	1336.40002441406
676.370966234295	1346.59997558594
677.108046958461	1340.19995117188
677.845036155219	1336.19995117188
678.581933832528	1341.80004882813
679.318739998323	1346
680.055454660558	1358.80004882813
680.792077827172	1351.59997558594
681.528609506116	1366
682.265049705331	1360.19995117188
683.001398432759	1372.59997558594
683.737655696349	1374.40002441406
684.47382150404	1367.40002441406
685.20989586378	1362.19995117188
685.945878783503	1353.59997558594
686.68177027116	1362
687.417570334688	1357.59997558594
688.153278982032	1359.80004882813
688.888896221129	1360.80004882813
689.624422059921	1372.59997558594
690.359856506349	1360.40002441406
691.095199568354	1363.80004882813
691.830451253874	1362.19995117188
692.565611570844	1360.80004882813
693.300680527212	1364.19995117188
694.03565813091	1361
694.770544389877	1360.80004882813
695.505339312053	1360
696.240042905372	1358.40002441406
696.974655177772	1351.19995117188
697.70917613719	1353
698.443605791561	1344
699.177944148826	1343.19995117188
699.912191216909	1340
700.646347003755	1353.59997558594
701.380411517295	1367
702.114384765465	1360
702.848266756195	1370.19995117188
703.582057497421	1369.40002441406
704.315756997074	1378.80004882813
705.049365263089	1375
705.782882303399	1373.19995117188
706.516308125936	1384.19995117188
707.249642738626	1374.59997558594
707.982886149403	1379.80004882813
708.716038366204	1383.59997558594
709.449099396949	1385.40002441406
710.182069249577	1388
710.914947932009	1366.19995117188
711.647735452181	1373.80004882813
712.380431818022	1364.40002441406
713.113037037454	1362
713.845551118411	1358.80004882813
714.577974068818	1360.59997558594
715.310305896604	1376
716.042546609694	1358.80004882813
716.774696216013	1367.80004882813
717.506754723493	1368
718.238722140053	1376.19995117188
718.970598473624	1375.19995117188
719.702383732127	1376.80004882813
720.43407792349	1382.59997558594
721.165681055634	1379
721.897193136486	1382.59997558594
722.628614173966	1379.40002441406
723.359944175997	1392
724.091183150505	1384.40002441406
724.822331105412	1391.19995117188
725.553388048638	1384
726.284353988106	1386.80004882813
727.015228931734	1377
727.746012887449	1390.19995117188
728.476705863162	1396.80004882813
729.207307866803	1402.40002441406
729.937818906289	1406.40002441406
730.668238989535	1409.80004882813
731.398568124459	1388.80004882813
732.128806318986	1401.40002441406
732.858953581034	1397
733.589009918514	1377.19995117188
734.318975339348	1390.59997558594
735.048849851452	1380
735.778633462744	1392
736.508326181137	1389.19995117188
737.237928014549	1396.80004882813
737.967438970897	1390.80004882813
738.696859058095	1375.40002441406
739.426188284054	1383.19995117188
740.155426656692	1377
740.884574183922	1377.59997558594
741.613630873659	1371.19995117188
742.342596733815	1374.80004882813
743.071471772302	1386.19995117188
743.800255997034	1387
744.528949415921	1388.40002441406
745.257552036877	1383
745.986063867811	1386.59997558594
746.714484916638	1379.59997558594
747.442815191261	1373.59997558594
748.171054699597	1372
748.899203449554	1361.59997558594
749.627261449039	1362
750.355228705966	1371.19995117188
751.083105228239	1386.19995117188
751.810891023765	1392
752.538586100459	1395.80004882813
753.266190466218	1393.80004882813
753.99370412896	1387.59997558594
754.721127096582	1390.59997558594
755.448459377	1392.19995117188
756.175700978114	1381
756.902851907828	1382.80004882813
757.629912174055	1386.40002441406
758.356881784688	1368.80004882813
759.083760747639	1380
759.810549070817	1389.80004882813
760.537246762113	1394.40002441406
761.263853829442	1400.40002441406
761.990370280698	1404.80004882813
762.716796123791	1391.40002441406
763.443131366618	1388.80004882813
764.169376017082	1383.59997558594
764.895530083085	1390.40002441406
765.621593572527	1389.40002441406
766.347566493312	1406.80004882813
767.073448853336	1413
767.799240660502	1419.40002441406
768.524941922707	1430
769.250552647854	1428.59997558594
769.976072843836	1431
770.701502518551	1433.59997558594
771.426841679905	1459
772.152090335793	1464
772.877248494107	1473.40002441406
773.602316162747	1477.80004882813
774.327293349609	1461.80004882813
775.052180062592	1455.80004882813
775.776976309589	1453.80004882813
776.501682098496	1448
777.226297437206	1437.19995117188
777.950822333616	1433.80004882813
778.675256795621	1439
779.399600831111	1431.19995117188
780.123854447983	1430.19995117188
780.84801765413	1412
781.572090457441	1420.19995117188
782.296072865811	1411
783.019964887131	1414
783.743766529297	1406
784.467477800194	1402.59997558594
785.191098707719	1393.80004882813
785.914629259756	1396.19995117188
786.638069464194	1399.80004882813
787.361419328932	1408.80004882813
788.084678861852	1391.80004882813
788.807848070845	1385.40002441406
789.530926963798	1389
790.253915548602	1389.59997558594
790.976813833144	1382
791.699621825307	1392
792.422339532986	1387.59997558594
793.144966964061	1400.40002441406
793.86750412642	1397.19995117188
794.589951027946	1409
795.312307676536	1404.40002441406
796.03457408006	1398.40002441406
796.756750246417	1391.59997558594
797.478836183477	1399.40002441406
798.200831899137	1394.40002441406
798.92273740127	1384
799.644552697769	1385
800.36627779651	1390
801.087912705374	1391.80004882813
801.809457432251	1396.80004882813
802.530911985017	1400.40002441406
803.252276371558	1393.40002441406
803.973550599748	1400.80004882813
804.694734677472	1392.80004882813
805.415828612611	1390.19995117188
806.136832413045	1399.19995117188
806.857746086646	1406.80004882813
807.578569641305	1397.80004882813
808.299303084892	1393.19995117188
809.019946425289	1400.59997558594
809.740499670372	1392.59997558594
810.460962828022	1398.19995117188
811.181335906114	1395
811.901618912524	1389.40002441406
812.621811855131	1410.59997558594
813.341914741809	1408.19995117188
814.061927580433	1401.80004882813
814.781850378881	1396
815.501683145025	1390
816.221425886743	1394.80004882813
816.941078611903	1400
817.660641328387	1392.80004882813
818.380114044065	1395.40002441406
819.099496766808	1389.19995117188
819.818789504492	1383.19995117188
820.53799226499	1385.40002441406
821.257105056168	1390.19995117188
821.976127885904	1395.40002441406
822.695060762064	1392
823.413903692525	1384.80004882813
824.132656685151	1391.80004882813
824.851319747817	1386.19995117188
825.569892888388	1390.59997558594
826.288376114739	1398.40002441406
827.006769434737	1397.40002441406
827.725072856249	1375.59997558594
828.443286387142	1388.59997558594
829.161410035285	1373.59997558594
829.87944380855	1377.80004882813
830.597387714798	1378
831.315241761898	1374
832.033005957715	1389
832.750680310119	1402.19995117188
833.468264826969	1412.19995117188
834.18575951614	1399
834.903164385486	1392.80004882813
835.620479442878	1386
836.337704696181	1395.80004882813
837.054840153255	1395.80004882813
837.771885821962	1400.59997558594
838.488841710172	1402
839.20570782574	1405.80004882813
839.922484176531	1401.59997558594
840.639170770409	1394
841.355767615231	1395.40002441406
842.072274718864	1385.80004882813
842.788692089164	1390.40002441406
843.505019733993	1393
844.221257661209	1395
844.937405878676	1385
845.65346439425	1401.59997558594
846.369433215789	1388.40002441406
847.085312351156	1392.19995117188
847.801101808205	1388.40002441406
848.516801594793	1376.40002441406
849.232411718781	1388.80004882813
849.947932188021	1390.19995117188
850.663363010376	1378.19995117188
851.378704193698	1392
852.093955745842	1384.59997558594
852.809117674669	1391.19995117188
853.524189988028	1382
854.239172693778	1384
854.954065799768	1385.59997558594
855.668869313857	1390.40002441406
856.383583243899	1382.40002441406
857.098207597743	1381.80004882813
857.812742383246	1393.59997558594
858.527187608255	1394.40002441406
859.241543280628	1391.80004882813
859.955809408218	1384.19995117188
860.669985998868	1382
861.384073060437	1393.59997558594
862.098070600772	1398.19995117188
862.811978627724	1390
863.52579714914	1393.80004882813
864.239526172873	1391.59997558594
864.953165706776	1385.19995117188
865.666715758687	1403.59997558594
866.380176336464	1394
867.093547447951	1389.59997558594
867.806829100996	1383.80004882813
868.520021303444	1385.59997558594
869.233124063149	1385.40002441406
869.94613738795	1385.40002441406
870.659061285693	1388
871.37189576423	1380.80004882813
872.084640831403	1383.80004882813
872.797296495057	1394.40002441406
873.509862763039	1398.19995117188
874.22233964319	1401.80004882813
874.934727143353	1400.40002441406
875.647025271374	1394
876.359234035097	1396.19995117188
877.071353442361	1393
877.783383501015	1384.80004882813
878.495324218895	1395.80004882813
879.207175603844	1401.59997558594
879.918937663705	1393.59997558594
880.630610406318	1390.80004882813
881.342193839524	1401
882.053687971161	1396.80004882813
882.765092809069	1408
883.476408361091	1401
884.187634635066	1387.19995117188
884.898771638828	1378
885.609819380221	1371.59997558594
886.320777867076	1373.19995117188
887.031647107236	1376
887.742427108536	1387.40002441406
888.453117878816	1376.40002441406
889.16371942591	1373.59997558594
889.874231757652	1390.59997558594
890.584654881883	1402
891.294988806434	1392
892.005233539141	1381.19995117188
892.715389087837	1380.19995117188
893.42545546036	1375.80004882813
894.135432664543	1380.40002441406
894.845320708216	1383.59997558594
895.555119599216	1395.19995117188
896.264829345375	1392.40002441406
896.974449954526	1407.80004882813
897.683981434496	1418
898.393423793125	1410.40002441406
899.102777038235	1415.40002441406
899.812041177664	1408.19995117188
900.521216219239	1404.80004882813
901.230302170793	1398.59997558594
901.939299040155	1406.19995117188
902.64820683515	1412.19995117188
903.357025563612	1421
904.065755233368	1419.40002441406
904.774395852247	1408.19995117188
905.482947428076	1414.40002441406
906.191409968682	1402
906.899783481897	1410
907.608067975538	1413.59997558594
908.316263457443	1397.59997558594
909.02436993543	1409.19995117188
909.732387417327	1404.19995117188
910.440315910959	1400.59997558594
911.148155424154	1397.19995117188
911.855905964731	1395
912.563567540521	1401
913.271140159339	1392.80004882813
913.978623829017	1383
914.686018557374	1385.80004882813
915.393324352237	1384
916.100541221421	1396.19995117188
916.807669172752	1402.40002441406
917.514708214054	1390
918.221658353142	1403.59997558594
918.928519597843	1400.40002441406
919.635291955976	1399
920.341975435358	1394.19995117188
921.048570043813	1401
921.75507578916	1401.80004882813
922.461492679212	1387.59997558594
923.167820721795	1389.40002441406
923.874059924726	1397.80004882813
924.58021029582	1390.80004882813
925.286271842893	1395.59997558594
925.992244573769	1387.80004882813
926.698128496262	1394.59997558594
927.403923618184	1395.40002441406
928.109629947355	1391.40002441406
928.815247491593	1406.80004882813
929.520776258708	1402.59997558594
930.226216256519	1400
930.931567492841	1399.19995117188
931.636829975482	1397.40002441406
932.342003712263	1407.59997558594
933.047088710995	1407.40002441406
933.752084979491	1401.40002441406
934.456992525564	1386.19995117188
935.161811357024	1384.80004882813
935.866541481688	1380.80004882813
936.571182907363	1378.80004882813
937.275735641861	1371.19995117188
937.980199692995	1361.59997558594
938.684575068572	1358.80004882813
939.388861776411	1357
940.093059824311	1373
940.797169220085	1378.80004882813
941.501189971544	1384.40002441406
942.205122086495	1374.40002441406
942.908965572751	1378
943.612720438111	1374.59997558594
944.316386690391	1373.80004882813
945.019964337391	1380.59997558594
945.723453386924	1371
946.426853846795	1377.40002441406
947.130165724808	1374.19995117188
947.83338902877	1372
948.536523766488	1364
949.239569945764	1368.40002441406
949.942527574402	1374.19995117188
950.64539666021	1360.19995117188
951.348177210993	1372.59997558594
952.050869234548	1374.40002441406
952.753472738683	1380.40002441406
953.455987731199	1367.59997558594
954.158414219898	1369.40002441406
954.860752212587	1364.40002441406
955.563001717061	1371.80004882813
956.265162741124	1375.19995117188
956.967235292576	1375.40002441406
957.669219379224	1375
958.371115008857	1373.80004882813
959.072922189283	1362.19995117188
959.774640928301	1363.40002441406
960.476271233708	1357.40002441406
961.177813113301	1362
961.879266574882	1373
962.580631626248	1377.19995117188
963.281908275194	1363.80004882813
963.98309652952	1367.40002441406
964.684196397022	1355.40002441406
965.3852078855	1356.80004882813
966.086131002745	1365.40002441406
966.786965756555	1380
967.487712154726	1387.40002441406
968.188370205055	1381.59997558594
968.888939915331	1381.80004882813
969.589421293352	1388
970.289814346909	1393.40002441406
970.990119083801	1408
971.690335511819	1395
972.39046363875	1390
973.090503472398	1388
973.790455020545	1383
974.490318290987	1383.59997558594
975.190093291516	1400
975.889780029923	1393.40002441406
976.589378513998	1395.19995117188
977.288888751527	1397.40002441406
977.988310750308	1384.19995117188
978.687644518122	1396.19995117188
979.386890062767	1399.19995117188
980.086047392025	1386.80004882813
980.785116513689	1382.19995117188
981.484097435542	1382.80004882813
982.182990165377	1387.19995117188
982.88179471098	1373.40002441406
983.580511080137	1382.40002441406
984.279139280632	1375.19995117188
984.977679320253	1384.19995117188
985.67613120679	1374.19995117188
986.374494948027	1369.59997558594
987.072770551745	1385
987.770958025731	1388
988.469057377772	1383.40002441406
989.167068615649	1381
989.864991747145	1386
990.562826780047	1372
991.260573722134	1370.19995117188
991.958232581195	1361.40002441406
992.655803365003	1363.80004882813
993.353286081346	1360.80004882813
994.050680738006	1355.80004882813
994.74798734276	1361.19995117188
995.44520590339	1385.80004882813
996.142336427681	1377.59997558594
996.839378923407	1379.19995117188
997.536333398348	1372.59997558594
998.233199860289	1374.80004882813
998.929978317004	1377
999.626668776274	1372.19995117188
1000.32327124587	1368.19995117188
1001.01978573359	1367.59997558594
1001.71621224718	1371.40002441406
1002.41255079445	1371.19995117188
1003.10880138315	1370
1003.80496402107	1369
1004.50103871599	1379.19995117188
1005.19702547567	1372.40002441406
1005.8929243079	1388.80004882813
1006.58873522045	1385.80004882813
1007.2844582211	1415
1007.98009331761	1414
1008.67564051776	1409.40002441406
1009.37109982933	1389.59997558594
1010.06647126009	1381.59997558594
1010.7617548178	1380.59997558594
1011.45695051026	1392.59997558594
1012.15205834522	1384.59997558594
1012.84707833045	1386.59997558594
1013.54201047373	1375.80004882813
1014.23685478284	1378.59997558594
1014.93161126553	1378.80004882813
1015.62627992959	1381
1016.32086078277	1371.40002441406
1017.01535383285	1378.19995117188
1017.70975908761	1363.40002441406
1018.40407655479	1379.19995117188
1019.09830624219	1376.80004882813
1019.79244815755	1376.19995117188
1020.48650230866	1373
1021.18046870328	1356.80004882813
1021.87434734917	1373
1022.56813825411	1368.59997558594
1023.26184142584	1379.19995117188
1023.95545687216	1387
1024.64898460082	1369.19995117188
1025.34242461957	1369.40002441406
1026.0357769362	1365
1026.72904155846	1370
1027.42221849412	1387.40002441406
1028.11530775094	1395.19995117188
1028.80830933668	1385.59997558594
1029.50122325911	1389.59997558594
1030.19404952599	1395.80004882813
1030.88678814508	1392.80004882813
1031.57943912414	1394.80004882813
1032.27200247093	1384.19995117188
1032.96447819323	1380.59997558594
1033.65686629878	1373.80004882813
1034.34916679534	1370.59997558594
1035.04137969068	1381.19995117188
1035.73350499256	1374.80004882813
1036.42554270874	1370.40002441406
1037.11749284697	1358.40002441406
1037.80935541501	1364.40002441406
1038.50113042062	1367.40002441406
1039.19281787156	1362.80004882813
1039.88441777559	1375.80004882813
1040.57593014046	1359.80004882813
1041.26735497393	1362.59997558594
1041.95869228376	1371.19995117188
1042.6499420777	1367.19995117188
1043.3411043635	1371.19995117188
1044.03217914893	1369.80004882813
1044.72316644174	1369.59997558594
1045.41406624968	1368.80004882813
1046.1048785805	1380
1046.79560344197	1379
1047.48624084182	1376
1048.17679078783	1374.40002441406
1048.86725328774	1352.19995117188
1049.55762834929	1361.80004882813
1050.24791598025	1358.80004882813
1050.93811618837	1358
1051.62822898139	1364.80004882813
1052.31825436707	1370.59997558594
1053.00819235315	1358.80004882813
1053.6980429474	1354.59997558594
1054.38780615755	1361.19995117188
1055.07748199136	1354
1055.76707045658	1364.80004882813
1056.45657156095	1351
1057.14598531222	1352.80004882813
1057.83531171814	1346.40002441406
1058.52455078646	1349.19995117188
1059.21370252494	1361.59997558594
1059.90276694129	1339.19995117188
1060.5917440433	1353.59997558594
1061.28063383868	1365
1061.9694363352	1368.40002441406
1062.65815154059	1379.40002441406
1063.34677946261	1358.40002441406
1064.03532010899	1361.80004882813
1064.72377348748	1360.80004882813
1065.41213960583	1356.59997558594
1066.10041847177	1347.59997558594
1066.78861009306	1350.59997558594
1067.47671447743	1348.59997558594
1068.16473163263	1352.40002441406
1068.85266156639	1347.40002441406
1069.54050428647	1341.40002441406
1070.2282598006	1359.80004882813
1070.91592811652	1356.40002441406
1071.60350924198	1359.80004882813
1072.29100318471	1353.19995117188
1072.97840995245	1357.59997558594
1073.66572955295	1346
1074.35296199394	1352
1075.04010728316	1359
1075.72716542836	1363.80004882813
1076.41413643726	1347.59997558594
1077.10102031761	1357.19995117188
1077.78781707715	1351
1078.4745267236	1358.19995117188
1079.16114926471	1372
1079.84768470822	1366.19995117188
1080.53413306185	1360
1081.22049433336	1368.80004882813
1081.90676853046	1360.40002441406
1082.5929556609	1367.40002441406
1083.27905573241	1361.19995117188
1083.96506875272	1370
1084.65099472957	1360.40002441406
1085.3368336707	1353.19995117188
1086.02258558383	1355.59997558594
1086.70825047669	1344.59997558594
1087.39382835703	1327.40002441406
1088.07931923257	1345.40002441406
1088.76472311104	1349
1089.45004000018	1354.40002441406
1090.13526990771	1353.59997558594
1090.82041284137	1362
1091.50546880889	1359.59997558594
1092.19043781799	1371.80004882813
1092.87531987642	1376.40002441406
1093.56011499188	1375.59997558594
1094.24482317212	1380.40002441406
1094.92944442486	1365.19995117188
1095.61397875783	1371.40002441406
1096.29842617876	1367.59997558594
1096.98278669537	1363.19995117188
1097.6670603154	1346.80004882813
1098.35124704656	1353.80004882813
1099.03534689659	1341.40002441406
1099.71935987322	1340.59997558594
1100.40328598416	1349.19995117188
1101.08712523713	1355.59997558594
1101.77087763988	1374
1102.45454320012	1358
1103.13812192557	1361.80004882813
1103.82161382396	1370.19995117188
1104.50501890301	1376.80004882813
1105.18833717045	1370.19995117188
1105.87156863399	1368.19995117188
1106.55471330137	1375
1107.2377711803	1358
1107.9207422785	1362.59997558594
1108.60362660369	1363
1109.2864241636	1373.59997558594
1109.96913496594	1370.19995117188
1110.65175901844	1375.40002441406
1111.33429632882	1366
1112.01674690479	1369.40002441406
1112.69911075408	1366.40002441406
1113.38138788439	1372
1114.06357830346	1380.59997558594
1114.745682019	1369.59997558594
1115.42769903872	1369.59997558594
1116.10962937035	1377.19995117188
1116.7914730216	1382.80004882813
1117.47323000018	1379.40002441406
1118.15490031382	1370.59997558594
1118.83648397022	1371.19995117188
1119.51798097712	1367.80004882813
1120.1993913422	1374.19995117188
1120.88071507321	1386.40002441406
1121.56195217784	1367.59997558594
1122.24310266381	1373.59997558594
1122.92416653884	1369.59997558594
1123.60514381064	1370.59997558594
1124.28603448692	1364
1124.9668385754	1370
1125.64755608378	1368.80004882813
1126.32818701978	1394
1127.00873139111	1385
1127.68918920548	1377.19995117188
1128.3695604706	1383.19995117188
1129.04984519419	1379.40002441406
1129.73004338394	1383.59997558594
1130.41015504758	1375.40002441406
1131.09018019281	1370.59997558594
1131.77011882734	1368.59997558594
1132.44997095888	1355.40002441406
1133.12973659514	1370.19995117188
1133.80941574381	1377.59997558594
1134.48900841263	1370
1135.16851460927	1370.40002441406
1135.84793434147	1369.59997558594
1136.52726761692	1358.80004882813
1137.20651444333	1355.40002441406
1137.8856748284	1345.40002441406
1138.56474877984	1360.59997558594
1139.24373630536	1354.19995117188
1139.92263741265	1352.80004882813
1140.60145210943	1347
1141.28018040339	1349.80004882813
1141.95882230225	1355.40002441406
1142.6373778137	1355
1143.31584694545	1360.19995117188
1143.99422970519	1353.80004882813
1144.67252610064	1369.59997558594
1145.35073613949	1370.80004882813
1146.02885982944	1370.59997558594
1146.7068971782	1368.19995117188
1147.38484819347	1349.59997558594
1148.06271288294	1347.59997558594
1148.74049125432	1351.59997558594
1149.41818331531	1359.40002441406
1150.0957890736	1353.59997558594
1150.77330853689	1367.19995117188
1151.45074171289	1369
1152.12808860928	1366.19995117188
1152.80534923378	1365.40002441406
1153.48252359407	1381
1154.15961169786	1352
1154.83661355283	1355
1155.51352916669	1350
1156.19035854713	1353.40002441406
1156.86710170185	1358.19995117188
1157.54375863855	1361
1158.22032936491	1360.19995117188
1158.89681388863	1353
1159.57321221741	1347
1160.24952435894	1364.40002441406
1160.92575032092	1381
1161.60189011103	1363.40002441406
1162.27794373697	1368
1162.95391120644	1363.80004882813
1163.62979252712	1367.40002441406
1164.3055877067	1376
1164.98129675288	1364.40002441406
1165.65691967336	1373
1166.33245647581	1370.59997558594
1167.00790716792	1376
1167.6832717574	1375
1168.35855025193	1361.19995117188
1169.0337426592	1361.19995117188
1169.70884898689	1359
1170.3838692427	1357.59997558594
1171.05880343431	1350
1171.73365156941	1346
1172.40841365569	1356.80004882813
1173.08308970083	1354.59997558594
1173.75767971253	1351.80004882813
1174.43218369847	1384.80004882813
1175.10660166633	1379.40002441406
1175.7809336238	1376.19995117188
1176.45517957857	1364.19995117188
1177.12933953832	1348.80004882813
1177.80341351073	1359.19995117188
1178.47740150349	1350.59997558594
1179.15130352429	1355.80004882813
1179.8251195808	1371.19995117188
1180.49884968071	1382.40002441406
1181.1724938317	1401.40002441406
1181.84605204145	1385.19995117188
1182.51952431766	1383.59997558594
1183.19291066799	1391.80004882813
1183.86621110013	1383
1184.53942562176	1407.40002441406
1185.21255424057	1385.19995117188
1185.88559696422	1372.19995117188
1186.55855380041	1367
1187.2314247568	1370.40002441406
1187.90420984109	1376.40002441406
1188.57690906095	1381.40002441406
1189.24952242405	1377
1189.92204993808	1381.19995117188
1190.59449161071	1367.80004882813
1191.26684744962	1384.59997558594
1191.93911746249	1372.59997558594
1192.61130165699	1362.80004882813
1193.28340004081	1368
1193.95541262161	1370.40002441406
1194.62733940707	1371
1195.29918040487	1380.80004882813
1195.97093562269	1362.19995117188
1196.64260506819	1367.40002441406
1197.31418874905	1368.80004882813
1197.98568667295	1367
1198.65709884755	1361.40002441406
1199.32842528053	1383.80004882813
1199.99966597957	1377
1200.67082095234	1367.80004882813
1201.3418902065	1352.40002441406
1202.01287374974	1358.40002441406
1202.68377158971	1367.19995117188
1203.3545837341	1350.40002441406
1204.02531019057	1365.59997558594
1204.6959509668	1374.59997558594
1205.36650607045	1356.80004882813
1206.03697550919	1357.59997558594
1206.70735929069	1364.80004882813
1207.37765742263	1379.59997558594
1208.04786991266	1367.80004882813
1208.71799676846	1371.59997558594
1209.38803799769	1359.40002441406
1210.05799360803	1365.40002441406
1210.72786360714	1376.80004882813
1211.39764800268	1365.40002441406
1212.06734680233	1369.19995117188
1212.73696001375	1357.40002441406
1213.4064876446	1362
1214.07592970255	1366.80004882813
1214.74528619526	1350
1215.4145571304	1363.19995117188
1216.08374251564	1353.59997558594
1216.75284235863	1365.59997558594
1217.42185666704	1368.59997558594
1218.09078544854	1355.40002441406
1218.75962871078	1358.19995117188
1219.42838646143	1339.80004882813
1220.09705870816	1337.19995117188
1220.76564545861	1336
1221.43414672046	1345.40002441406
1222.10256250136	1349.19995117188
1222.77089280898	1363.40002441406
1223.43913765098	1355.59997558594
1224.107297035	1364
1224.77537096873	1361.80004882813
1225.44335945981	1366.40002441406
1226.1112625159	1372.59997558594
1226.77908014467	1357.40002441406
1227.44681235376	1364.80004882813
1228.11445915085	1355
1228.78202054357	1366.40002441406
1229.44949653961	1362.80004882813
1230.11688714659	1361.40002441406
1230.7841923722	1353.19995117188
1231.45141222407	1351.40002441406
1232.11854670988	1339.80004882813
1232.78559583726	1334
1233.45255961388	1338.59997558594
1234.1194380474	1333.40002441406
1234.78623114546	1350.59997558594
1235.45293891572	1346
1236.11956136583	1344.40002441406
1236.78609850345	1360.59997558594
1237.45255033623	1366.19995117188
1238.11891687182	1368.59997558594
1238.78519811788	1349.19995117188
1239.45139408205	1354.19995117188
1240.11750477198	1351
1240.78353019534	1330
1241.44947035976	1328.19995117188
1242.11532527291	1346
1242.78109494242	1338.59997558594
1243.44677937595	1345.40002441406
1244.11237858115	1335
1244.77789256567	1345
1245.44332133715	1344.80004882813
1246.10866490325	1358.19995117188
1246.7739232716	1362.19995117188
1247.43909644987	1370.40002441406
1248.10418444569	1376.80004882813
1248.76918726671	1370.19995117188
1249.43410492059	1363.40002441406
1250.09893741496	1342.80004882813
1250.76368475747	1351.80004882813
1251.42834695576	1346.40002441406
1252.09292401749	1353
1252.75741595029	1339.40002441406
1253.42182276182	1351
1254.08614445971	1334.19995117188
1254.75038105161	1331
1255.41453254515	1337.80004882813
1256.07859894799	1335.80004882813
1256.74258026777	1351
1257.40647651213	1339.80004882813
1258.0702876887	1340.19995117188
1258.73401380514	1339.80004882813
1259.39765486908	1346
1260.06121088817	1333.19995117188
1260.72468187004	1335.19995117188
1261.38806782233	1337.40002441406
1262.05136875269	1327.80004882813
1262.71458466875	1331.59997558594
1263.37771557815	1354
1264.04076148854	1352
1264.70372240753	1356.80004882813
1265.3665983428	1346.40002441406
1266.02938930195	1339.19995117188
1266.69209529263	1334
1267.35471632249	1345.19995117188
1268.01725239914	1343.40002441406
1268.67970353024	1361.19995117188
1269.34206972342	1348.59997558594
1270.00435098631	1345.59997558594
1270.66654732655	1345.80004882813
1271.32865875177	1345
1271.9906852696	1347.80004882813
1272.65262688768	1350.40002441406
1273.31448361365	1350.40002441406
1273.97625545514	1346
1274.63794241978	1347.19995117188
1275.2995445152	1348.80004882813
1275.96106174903	1346
1276.62249412892	1344.59997558594
1277.28384166248	1344.40002441406
1277.94510435735	1351.80004882813
1278.60628222116	1357.19995117188
1279.26737526155	1363.40002441406
1279.92838348613	1355.40002441406
1280.58930690255	1351
1281.25014551842	1351.59997558594
1281.91089934139	1340.19995117188
1282.57156837907	1346.40002441406
1283.2321526391	1344.40002441406
1283.89265212911	1352
1284.55306685671	1351.19995117188
1285.21339682955	1330.59997558594
1285.87364205525	1337.59997558594
1286.53380254142	1325
1287.19387829571	1320.80004882813
1287.85386932573	1337.40002441406
1288.51377563911	1324.19995117188
1289.17359724348	1338.19995117188
1289.83333414646	1336.59997558594
1290.49298635567	1344
1291.15255387874	1338.19995117188
1291.8120367233	1342
1292.47143489696	1336.80004882813
1293.13074840736	1337.40002441406
1293.7899772621	1343
1294.44912146882	1332.59997558594
1295.10818103513	1326.80004882813
1295.76715596866	1324.59997558594
1296.42604627704	1323.80004882813
1297.08485196787	1329.19995117188
1297.74357304878	1341.59997558594
1298.4022095274	1335.19995117188
1299.06076141134	1337.59997558594
1299.71922870821	1337.40002441406
1300.37761142565	1340.80004882813
1301.03590957126	1360
1301.69412315268	1359
1302.3522521775	1350.80004882813
1303.01029665336	1350.80004882813
1303.66825658787	1353
1304.32613198865	1345.59997558594
1304.98392286332	1346.40002441406
1305.64162921948	1354.80004882813
1306.29925106476	1354.19995117188
1306.95678840677	1354.40002441406
1307.61424125312	1357.59997558594
1308.27160961145	1359
1308.92889348934	1366.59997558594
1309.58609289443	1352.40002441406
1310.24320783432	1355.19995117188
1310.90023831664	1365.19995117188
1311.55718434898	1364.80004882813
1312.21404593897	1372.40002441406
1312.87082309421	1367.59997558594
1313.52751582233	1368.59997558594
1314.18412413092	1359.40002441406
1314.84064802761	1348.59997558594
1315.49708752	1365
1316.1534426157	1358.40002441406
1316.80971332233	1365
1317.46589964749	1369
1318.1220015988	1364.80004882813
1318.77801918386	1356.80004882813
1319.43395241028	1347
1320.08980128567	1368.59997558594
1320.74556581764	1356.19995117188
1321.4012460138	1362.19995117188
1322.05684188176	1351.19995117188
1322.71235342911	1366.40002441406
1323.36778066347	1353.80004882813
1324.02312359245	1348.80004882813
1324.67838222365	1341.19995117188
1325.33355656468	1351.80004882813
1325.98864662314	1356.19995117188
1326.64365240663	1343.40002441406
1327.29857392277	1350.40002441406
1327.95341117915	1341.40002441406
1328.60816418339	1337.19995117188
1329.26283294308	1328.80004882813
1329.91741746582	1333.40002441406
1330.57191775923	1328.40002441406
1331.2263338309	1330.19995117188
1331.88066568843	1334.19995117188
1332.53491333943	1334.19995117188
1333.1890767915	1320.59997558594
1333.84315605224	1340
1334.49715112925	1332.59997558594
1335.15106203013	1332.40002441406
1335.80488876249	1334.19995117188
1336.45863133391	1339.19995117188
1337.112289752	1331
1337.76586402437	1342.59997558594
1338.4193541586	1336.80004882813
1339.0727601623	1345.80004882813
1339.72608204306	1339
1340.37931980849	1351.80004882813
1341.03247346617	1342.80004882813
1341.68554302372	1343.19995117188
1342.33852848871	1339.19995117188
1342.99142986876	1337.40002441406
1343.64424717145	1333.59997558594
1344.29698040438	1334.40002441406
1344.94962957515	1336.19995117188
1345.60219469135	1329.59997558594
1346.25467576058	1339.40002441406
1346.90707279042	1330.59997558594
1347.55938578848	1335.80004882813
1348.21161476235	1339.40002441406
1348.86375971962	1328.40002441406
1349.51582066787	1336
1350.16779761472	1352.40002441406
1350.81969056774	1348.59997558594
1351.47149953453	1356.59997558594
1352.12322452269	1362.59997558594
1352.77486553979	1371.59997558594
1353.42642259344	1370.80004882813
1354.07789569122	1377.59997558594
1354.72928484072	1387.80004882813
1355.38059004953	1391.59997558594
1356.03181132525	1402.59997558594
1356.68294867545	1387
1357.33400210773	1406.19995117188
1357.98497162968	1398.40002441406
1358.63585724889	1380
1359.28665897294	1400.80004882813
1359.93737680942	1384.80004882813
1360.58801076591	1389.80004882813
1361.23856085001	1392.80004882813
1361.88902706929	1402
1362.53940943135	1396.59997558594
1363.18970794377	1401.59997558594
1363.83992261413	1400.19995117188
1364.49005345003	1401.80004882813
1365.14010045904	1388.59997558594
1365.79006364874	1378.59997558594
1366.43994302673	1386.59997558594
1367.08973860058	1388.59997558594
1367.73945037788	1388.19995117188
1368.38907836621	1384.40002441406
1369.03862257315	1381.40002441406
1369.68808300629	1361.80004882813
1370.3374596732	1359.19995117188
1370.98675258148	1365
1371.63596173868	1364.59997558594
1372.28508715241	1352.80004882813
1372.93412883024	1352.19995117188
1373.58308677974	1344.40002441406
1374.2319610085	1349.59997558594
1374.8807515241	1343.59997558594
1375.52945833412	1331.80004882813
1376.17808144612	1328.59997558594
1376.82662086771	1316.59997558594
1377.47507660644	1324.80004882813
1378.12344866989	1314.19995117188
1378.77173706565	1323.19995117188
1379.41994180129	1307.80004882813
1380.06806288439	1320
1380.71610032252	1325.19995117188
1381.36405412326	1323
1382.01192429419	1317
1382.65971084287	1312.80004882813
1383.30741377688	1316.40002441406
1383.95503310381	1322
1384.60256883121	1312.19995117188
1385.25002096667	1326.80004882813
1385.89738951775	1318.80004882813
1386.54467449204	1314
1387.19187589709	1310.19995117188
1387.8389937405	1306
1388.48602802982	1311.59997558594
1389.13297877262	1325.19995117188
1389.77984597649	1322.80004882813
1390.42662964899	1324.19995117188
1391.07332979768	1306
1391.71994643015	1312.80004882813
1392.36647955395	1327.40002441406
1393.01292917667	1317.40002441406
1393.65929530586	1317.59997558594
1394.3055779491	1313.19995117188
1394.95177711395	1317.59997558594
1395.59789280799	1315
1396.24392503877	1310.59997558594
1396.88987381387	1321.59997558594
1397.53573914086	1310
1398.1815210273	1313.19995117188
1398.82721948075	1316
1399.47283450878	1318.40002441406
1400.11836611897	1322.59997558594
1400.76381431886	1325.59997558594
1401.40917911603	1329.59997558594
1402.05446051805	1310.59997558594
1402.69965853247	1294.19995117188
1403.34477316686	1308.40002441406
1403.98980442878	1312.80004882813
1404.6347523258	1305.80004882813
1405.27961686548	1314.40002441406
1405.92439805538	1315.59997558594
1406.56909590306	1309.40002441406
1407.21371041608	1310
1407.85824160202	1314.59997558594
1408.50268946841	1305.40002441406
1409.14705402284	1298
1409.79133527285	1299.19995117188
1410.43553322601	1309.59997558594
1411.07964788987	1306.80004882813
1411.723679272	1302.59997558594
1412.36762737996	1317.80004882813
1413.01149222129	1309
1413.65527380357	1319.19995117188
1414.29897213435	1315.59997558594
1414.94258722118	1317
1415.58611907163	1311
1416.22956769325	1315.80004882813
1416.87293309359	1313
1417.51621528021	1317.40002441406
1418.15941426067	1310.40002441406
1418.80253004253	1320.59997558594
1419.44556263333	1325.40002441406
1420.08851204063	1321.59997558594
1420.731378272	1328
1421.37416133497	1338.59997558594
1422.0168612371	1334.59997558594
1422.65947798596	1333
1423.30201158908	1322.19995117188
1423.94446205403	1318
1424.58682938835	1324.59997558594
1425.2291135996	1319.59997558594
1425.87131469532	1330
1426.51343268308	1328.59997558594
1427.15546757042	1330
1427.79741936488	1321.59997558594
1428.43928807403	1317
1429.0810737054	1324.19995117188
1429.72277626656	1324.59997558594
1430.36439576504	1327.59997558594
1431.00593220841	1316
1431.64738560419	1295.19995117188
1432.28875595995	1303
1432.93004328324	1303.80004882813
1433.57124758159	1295.59997558594
1434.21236886255	1306
1434.85340713368	1305.80004882813
1435.49436240252	1303.19995117188
1436.13523467661	1312.40002441406
1436.77602396349	1303.80004882813
1437.41673027073	1318.40002441406
1438.05735360585	1323.80004882813
1438.69789397641	1308.19995117188
1439.33835138994	1325.40002441406
1439.978725854	1319.80004882813
1440.61901737612	1317.80004882813
1441.25922596385	1313.80004882813
1441.89935162473	1326.19995117188
1442.53939436631	1318.19995117188
1443.17935419612	1314.59997558594
1443.81923112171	1311
1444.45902515061	1313.40002441406
1445.09873629038	1304.19995117188
1445.73836454854	1303
1446.37790993265	1291.59997558594
1447.01737245024	1301.40002441406
1447.65675210885	1289.19995117188
1448.29604891602	1297.19995117188
1448.93526287928	1303.80004882813
1449.57439400618	1284
1450.21344230426	1279.59997558594
1450.85240778105	1286.40002441406
1451.49129044409	1278.59997558594
1452.13009030092	1293.40002441406
1452.76880735907	1288.59997558594
1453.40744162608	1308.19995117188
1454.04599310949	1307.19995117188
1454.68446181683	1309.19995117188
1455.32284775564	1319.19995117188
1455.96115093345	1311.80004882813
1456.5993713578	1323.40002441406
1457.23750903623	1310.59997558594
1457.87556397626	1308.80004882813
1458.51353618543	1301.40002441406
1459.15142567127	1307
1459.78923244132	1306
1460.42695650311	1312.40002441406
1461.06459786417	1308.80004882813
1461.70215653203	1303
1462.33963251423	1305.59997558594
1462.97702581829	1298
1463.61433645175	1299
1464.25156442214	1304.80004882813
1464.88870973699	1301.80004882813
1465.52577240382	1303
1466.16275243017	1309.19995117188
1466.79964982356	1300.80004882813
1467.43646459154	1308.59997558594
1468.07319674161	1300.59997558594
1468.70984628132	1307
1469.34641321818	1313.19995117188
1469.98289755974	1311.59997558594
1470.6192993135	1298
1471.25561848701	1298
1471.89185508779	1307.59997558594
1472.52800912336	1300.80004882813
1473.16408060124	1304.80004882813
1473.80006952897	1310.40002441406
1474.43597591407	1293.19995117188
1475.07179976406	1294
1475.70754108647	1284
1476.34319988883	1282.59997558594
1476.97877617865	1296.80004882813
1477.61426996345	1310.40002441406
1478.24968125077	1296.80004882813
1478.88501004812	1303.80004882813
1479.52025636303	1306.59997558594
1480.15542020302	1307
1480.79050157561	1303.59997558594
1481.42550048832	1304.59997558594
1482.06041694867	1299.40002441406
1482.69525096418	1318.19995117188
1483.33000254237	1305.59997558594
1483.96467169077	1296.80004882813
1484.59925841689	1307.40002441406
1485.23376272825	1300.59997558594
1485.86818463237	1297.80004882813
1486.50252413677	1302.59997558594
1487.13678124896	1301.59997558594
1487.77095597646	1303.19995117188
1488.4050483268	1311
1489.03905830749	1302.80004882813
1489.67298592604	1307
1490.30683118996	1303.40002441406
1490.9405941068	1311.19995117188
1491.57427468403	1295.59997558594
1492.2078729292	1305
1492.84138884981	1300.80004882813
1493.47482245338	1318.80004882813
1494.10817374742	1308.19995117188
1494.74144273944	1303.40002441406
1495.37462943696	1311.80004882813
1496.0077338475	1308.40002441406
1496.64075597856	1312.19995117188
1497.27369583765	1308
1497.9065534323	1317.40002441406
1498.53932877001	1312.19995117188
1499.17202185829	1302
1499.80463270465	1290.80004882813
1500.43716131661	1294.80004882813
1501.06960770167	1286.40002441406
1501.70197186735	1299.40002441406
1502.33425382116	1306.80004882813
1502.96645357059	1308.80004882813
1503.59857112317	1313
1504.23060648641	1307.80004882813
1504.8625596678	1306
1505.49443067486	1304.59997558594
1506.1262195151	1313.40002441406
1506.75792619602	1309.80004882813
1507.38955072513	1325.19995117188
1508.02109310993	1320.80004882813
1508.65255335794	1319.59997558594
1509.28393147666	1314.19995117188
1509.91522747359	1322.19995117188
1510.54644135624	1306.19995117188
1511.17757313212	1318.19995117188
1511.80862280872	1309
1512.43959039356	1289
1513.07047589413	1298.19995117188
1513.70127931795	1305.80004882813
1514.33200067251	1302.40002441406
1514.96263996531	1313.59997558594
1515.59319720386	1308.80004882813
1516.22367239567	1309
1516.85406554822	1316
1517.48437666903	1317.80004882813
1518.1146057656	1306.59997558594
1518.74475284542	1299
1519.374817916	1303.40002441406
1520.00480098483	1311
1520.63470205942	1298.40002441406
1521.26452114726	1304.19995117188
1521.89425825586	1287.19995117188
1522.52391339271	1291.40002441406
1523.15348656531	1280.19995117188
1523.78297778116	1274
1524.41238704775	1283.59997558594
1525.04171437259	1284
1525.67095976317	1270.40002441406
1526.30012322699	1293.40002441406
1526.92920477154	1288.80004882813
1527.55820440432	1280.40002441406
1528.18712213283	1269.59997558594
1528.81595796455	1280.40002441406
1529.44471190699	1274
1530.07338396764	1266.80004882813
1530.70197415399	1270.19995117188
1531.33048247353	1259.80004882813
1531.95890893377	1267.80004882813
1532.58725354219	1262.59997558594
1533.21551630629	1273
1533.84369723356	1278.80004882813
1534.47179633148	1280
1535.09981360757	1286.40002441406
1535.72774906929	1291.40002441406
1536.35560272415	1282.80004882813
1536.98337457963	1288.80004882813
1537.61106464323	1286.59997558594
1538.23867292243	1291.19995117188
1538.86619942473	1297.40002441406
1539.49364415762	1293.40002441406
1540.12100712857	1290.19995117188
1540.74828834509	1296.40002441406
1541.37548781466	1291
1542.00260554478	1290.59997558594
1542.62964154291	1294.19995117188
1543.25659581655	1287.80004882813
1543.8834683732	1282.80004882813
1544.51025922034	1278.59997558594
1545.13696836544	1277.80004882813
1545.76359581601	1269.59997558594
1546.39014157952	1266
1547.01660566345	1248.80004882813
1547.64298807531	1260.59997558594
1548.26928882255	1261
1548.89550791269	1272.59997558594
1549.52164535318	1262
1550.14770115153	1266
1550.77367531521	1261.80004882813
1551.39956785171	1270.59997558594
1552.0253787685	1262.19995117188
1552.65110807307	1269.40002441406
1553.2767557729	1276.59997558594
1553.90232187548	1270.19995117188
1554.52780638828	1274.59997558594
1555.15320931879	1271.19995117188
1555.77853067447	1280.59997558594
1556.40377046282	1272.59997558594
1557.02892869132	1277.19995117188
1557.65400536744	1278
1558.27900049866	1282.40002441406
1558.90391409247	1282.59997558594
1559.52874615633	1278.19995117188
1560.15349669773	1270.80004882813
1560.77816572414	1287.80004882813
1561.40275324305	1278
1562.02725926192	1279.80004882813
1562.65168378824	1289
1563.27602682948	1290.59997558594
1563.90028839311	1288.59997558594
1564.52446848662	1287.19995117188
1565.14856711748	1280.59997558594
1565.77258429316	1284
1566.39652002113	1279
1567.02037430887	1275.80004882813
1567.64414716387	1282
1568.26783859357	1278.40002441406
1568.89144860547	1290
1569.51497720703	1284.80004882813
1570.13842440573	1282.40002441406
1570.76179020904	1274.80004882813
1571.38507462442	1289.59997558594
1572.00827765936	1286.80004882813
1572.63139932132	1282.19995117188
1573.25443961777	1283.59997558594
1573.87739855618	1286.59997558594
1574.50027614402	1280.40002441406
1575.12307238877	1287.59997558594
1575.74578729789	1272.80004882813
1576.36842087885	1275.40002441406
1576.99097313912	1274.40002441406
1577.61344408616	1282.19995117188
1578.23583372745	1276
1578.85814207046	1273.19995117188
1579.48036912264	1279.19995117188
1580.10251489147	1273
1580.72457938441	1259
1581.34656260893	1262
1581.9684645725	1265.80004882813
1582.59028528258	1263.59997558594
1583.21202474663	1269.59997558594
1583.83368297212	1277.40002441406
1584.45525996652	1279.80004882813
1585.07675573728	1276.19995117188
1585.69817029188	1272.59997558594
1586.31950363778	1271.40002441406
1586.94075578243	1253.19995117188
1587.5619267333	1263.80004882813
1588.18301649786	1251.80004882813
1588.80402508357	1244
1589.42495249788	1248
1590.04579874826	1245
1590.66656384217	1248.80004882813
1591.28724778707	1239.19995117188
1591.90785059042	1241.19995117188
1592.52837225968	1230.19995117188
1593.14881280232	1233.19995117188
1593.76917222578	1229.80004882813
1594.38945053753	1226.19995117188
1595.00964774502	1238.59997558594
1595.62976385573	1233.40002441406
1596.24979887709	1244.40002441406
1596.86975281657	1240.59997558594
1597.48962568164	1252.19995117188
1598.10941747974	1249
1598.72912821832	1247.19995117188
1599.34875790486	1249.19995117188
1599.9683065468	1239.40002441406
1600.58777415159	1243.19995117188
1601.2071607267	1254
1601.82646627958	1238.40002441406
1602.44569081769	1247
1603.06483434846	1241
1603.68389687937	1237.19995117188
1604.30287841786	1236.19995117188
1604.92177897139	1236.19995117188
1605.54059854741	1230.59997558594
1606.15933715337	1227
1606.77799479672	1225
1607.39657148492	1230
1608.01506722542	1229.80004882813
1608.63348202566	1227.80004882813
1609.2518158931	1232.19995117188
1609.87006883519	1220.40002441406
1610.48824085939	1223.40002441406
1611.10633197312	1230.19995117188
1611.72434218386	1223
1612.34227149904	1226.59997558594
1612.96011992612	1222.59997558594
1613.57788747254	1223.40002441406
1614.19557414575	1220.80004882813
1614.8131799532	1220.19995117188
1615.43070490234	1214.40002441406
1616.04814900061	1224.19995117188
1616.66551225545	1217.40002441406
1617.28279467433	1207.19995117188
1617.89999626467	1210.40002441406
1618.51711703393	1227.80004882813
1619.13415698955	1223
1619.75111613898	1217
1620.36799448966	1220
1620.98479204903	1231.40002441406
1621.60150882455	1221.40002441406
1622.21814482364	1226.80004882813
1622.83470005376	1225.40002441406
1623.45117452235	1222.40002441406
1624.06756823685	1227.80004882813
1624.6838812047	1229.19995117188
1625.30011343335	1226.59997558594
1625.91626493022	1219.19995117188
1626.53233570278	1225
1627.14832575845	1220.40002441406
1627.76423510468	1225.59997558594
1628.38006374891	1215.80004882813
1628.99581169857	1220.59997558594
1629.61147896111	1233.59997558594
1630.22706554397	1232
1630.84257145457	1236.19995117188
1631.45799670038	1238.59997558594
1632.07334128881	1231.19995117188
1632.6886052273	1222.40002441406
1633.3037885233	1217.40002441406
1633.91889118425	1217.19995117188
1634.53391321757	1216
1635.1488546307	1213.19995117188
1635.76371543108	1204.40002441406
1636.37849562616	1204.59997558594
1636.99319522335	1209.19995117188
1637.60781423009	1205.59997558594
1638.22235265383	1207.59997558594
1638.83681050198	1211.59997558594
1639.451187782	1212.80004882813
1640.0654845013	1223.80004882813
1640.67970066734	1225.40002441406
1641.29383628752	1231.80004882813
1641.9078913693	1233.19995117188
1642.5218659201	1232.59997558594
1643.13575994735	1235.19995117188
1643.74957345849	1225.40002441406
1644.36330646094	1224.19995117188
1644.97695896213	1230.40002441406
1645.59053096951	1220
1646.20402249049	1225.19995117188
1646.8174335325	1232.19995117188
1647.43076410298	1240.40002441406
1648.04401420935	1235
1648.65718385905	1251.40002441406
1649.2702730595	1253.40002441406
1649.88328181812	1262.80004882813
1650.49621014236	1258
1651.10905803963	1257.59997558594
1651.72182551735	1249.19995117188
1652.33451258297	1249.59997558594
1652.9471192439	1243.19995117188
1653.55964550757	1237
1654.1720913814	1239.40002441406
1654.78445687283	1236.80004882813
1655.39674198926	1240.19995117188
1656.00894673814	1229
1656.62107112688	1223
1657.23311516291	1226.40002441406
1657.84507885365	1207.59997558594
1658.45696220652	1215.59997558594
1659.06876522895	1196.59997558594
1659.68048792835	1192.80004882813
1660.29213031217	1203.59997558594
1660.90369238779	1205.40002441406
1661.51517416267	1199.59997558594
1662.12657564421	1198.80004882813
1662.73789683984	1199.80004882813
1663.34913775697	1200.80004882813
1663.96029840303	1199.40002441406
1664.57137878544	1189.59997558594
1665.18237891161	1187.40002441406
1665.79329878897	1182
1666.40413842493	1188.59997558594
1667.01489782691	1177.59997558594
1667.62557700233	1183.59997558594
1668.2361759586	1181
1668.84669470315	1187.19995117188
1669.4571332434	1188.40002441406
1670.06749158675	1196.80004882813
1670.67776974062	1193.40002441406
1671.28796771243	1178.19995117188
1671.8980855096	1176.80004882813
1672.50812313954	1176.59997558594
1673.11808060967	1176.19995117188
1673.72795792739	1176.40002441406
1674.33775510013	1171.19995117188
1674.9474721353	1173.59997558594
1675.55710904031	1184.59997558594
1676.16666582257	1177.19995117188
1676.7761424895	1176.59997558594
1677.38553904851	1185.40002441406
1677.99485550702	1176.59997558594
1678.60409187243	1174.19995117188
1679.21324815215	1171.40002441406
1679.8223243536	1170
1680.43132048419	1165.40002441406
1681.04023655132	1164.80004882813
1681.64907256241	1166
1682.25782852487	1159.40002441406
1682.86650444611	1155.59997558594
1683.47510033353	1151.59997558594
1684.08361619455	1150.40002441406
1684.69205203657	1156.80004882813
1685.300407867	1146.40002441406
1685.90868369325	1156.40002441406
1686.51687952272	1150
1687.12499536283	1145.40002441406
1687.73303122098	1146.19995117188
1688.34098710457	1147.19995117188
1688.94886302101	1156.40002441406
1689.55665897772	1149
1690.16437498208	1143
1690.77201104152	1137.40002441406
1691.37956716342	1134
1691.9870433552	1144.40002441406
1692.59443962426	1145.40002441406
1693.20175597801	1138
1693.80899242384	1145
1694.41614896916	1145.59997558594
1695.02322562138	1150.19995117188
1695.63022238789	1145.19995117188
1696.23713927609	1152.40002441406
1696.8439762934	1144.59997558594
1697.4507334472	1143.19995117188
1698.05741074491	1151.19995117188
1698.66400819391	1139.19995117188
1699.27052580161	1136.40002441406
1699.87696357542	1129.80004882813
1700.48332152272	1128.40002441406
1701.08959965092	1124
1701.69579796742	1125.40002441406
1702.30191647962	1132.59997558594
1702.90795519491	1125.80004882813
1703.51391412069	1135
1704.11979326437	1130
1704.72559263332	1141.59997558594
1705.33131223496	1128.59997558594
1705.93695207668	1122
1706.54251216588	1127.40002441406
1707.14799250994	1116.40002441406
1707.75339311628	1109.19995117188
1708.35871399227	1118.19995117188
1708.96395514532	1115
1709.56911658282	1110.19995117188
