634.948122577771	1189.59997558594
635.690341530823	1189.59997558594
636.43246851086	1190
637.174503525845	1190.80004882813
637.916446583745	1200.40002441406
638.658297692538	1209.80004882813
639.400056860179	1210
640.141724094637	1208.80004882813
640.883299403885	1203
641.62478279588	1218
642.366174278594	1217.40002441406
643.107473859989	1213
643.848681548029	1211
644.589797350679	1222.80004882813
645.330821275901	1222.40002441406
646.071753331665	1220.40002441406
646.812593525922	1211.40002441406
647.553341866646	1216.40002441406
648.293998361798	1209.59997558594
649.03456301933	1212
649.775035847216	1206.19995117188
650.515416853409	1207
651.255706045874	1211.19995117188
651.995903432568	1213.59997558594
652.736009021453	1224
653.476022820486	1228
654.215944837629	1226.80004882813
654.955775080842	1208.59997558594
655.695513558081	1218.59997558594
656.435160277301	1218.40002441406
657.174715246465	1216.40002441406
657.914178473527	1211.80004882813
658.653549966449	1233.80004882813
659.392829733176	1226
660.132017781678	1222.19995117188
660.871114119901	1215
661.610118755803	1213.59997558594
662.349031697343	1228
663.087852952468	1237
663.826582529139	1225.80004882813
664.565220435305	1215.40002441406
665.30376667892	1230.19995117188
666.04222126794	1213.19995117188
666.780584210316	1223.40002441406
667.518855514	1217.80004882813
668.25703518694	1219.40002441406
668.995123237096	1223.59997558594
669.733119672413	1215
670.471024500842	1227.19995117188
671.208837730333	1225.80004882813
671.946559368839	1228
672.684189424308	1212.19995117188
673.421727904689	1203.59997558594
674.159174817929	1206.80004882813
674.896530171977	1204.40002441406
675.633793974786	1190.40002441406
676.370966234295	1205.19995117188
677.108046958461	1200.80004882813
677.845036155219	1211.19995117188
678.581933832528	1211.40002441406
679.318739998323	1221
680.055454660558	1221.59997558594
680.792077827172	1230.59997558594
681.528609506116	1235.59997558594
682.265049705331	1233.19995117188
683.001398432759	1231.19995117188
683.737655696349	1225
684.47382150404	1224.59997558594
685.20989586378	1222.80004882813
685.945878783503	1219.80004882813
686.68177027116	1212.80004882813
687.417570334688	1210.80004882813
688.153278982032	1212
688.888896221129	1222.59997558594
689.624422059921	1235
690.359856506349	1229.40002441406
691.095199568354	1235.59997558594
691.830451253874	1234
692.565611570844	1225.40002441406
693.300680527212	1223.19995117188
694.03565813091	1216.59997558594
694.770544389877	1220.80004882813
695.505339312053	1228.80004882813
696.240042905372	1219.40002441406
696.974655177772	1217.19995117188
697.70917613719	1210.40002441406
698.443605791561	1216.80004882813
699.177944148826	1208.59997558594
699.912191216909	1220.40002441406
700.646347003755	1214.80004882813
701.380411517295	1217.40002441406
702.114384765465	1228.19995117188
702.848266756195	1228
703.582057497421	1232.59997558594
704.315756997074	1226.80004882813
705.049365263089	1237.80004882813
705.782882303399	1240.40002441406
706.516308125936	1243.19995117188
707.249642738626	1240
707.982886149403	1237.59997558594
708.716038366204	1236.19995117188
709.449099396949	1239.80004882813
710.182069249577	1242.19995117188
710.914947932009	1241.19995117188
711.647735452181	1236.80004882813
712.380431818022	1235.80004882813
713.113037037454	1226.80004882813
713.845551118411	1223
714.577974068818	1226.40002441406
715.310305896604	1218.80004882813
716.042546609694	1223.19995117188
716.774696216013	1227
717.506754723493	1228.59997558594
718.238722140053	1232.59997558594
718.970598473624	1230.80004882813
719.702383732127	1230.59997558594
720.43407792349	1233
721.165681055634	1235.59997558594
721.897193136486	1241.80004882813
722.628614173966	1246.59997558594
723.359944175997	1253.19995117188
724.091183150505	1242.80004882813
724.822331105412	1246.80004882813
725.553388048638	1256.80004882813
726.284353988106	1246.80004882813
727.015228931734	1251
727.746012887449	1248
728.476705863162	1243.40002441406
729.207307866803	1254.19995117188
729.937818906289	1256.59997558594
730.668238989535	1243.59997558594
731.398568124459	1246.40002441406
732.128806318986	1240.80004882813
732.858953581034	1237.80004882813
733.589009918514	1243
734.318975339348	1237.19995117188
735.048849851452	1238.80004882813
735.778633462744	1235.59997558594
736.508326181137	1241.40002441406
737.237928014549	1242.40002441406
737.967438970897	1235.59997558594
738.696859058095	1233.59997558594
739.426188284054	1234.59997558594
740.155426656692	1234.40002441406
740.884574183922	1236.59997558594
741.613630873659	1243.59997558594
742.342596733815	1235.40002441406
743.071471772302	1223
743.800255997034	1249
744.528949415921	1242.19995117188
745.257552036877	1251.40002441406
745.986063867811	1243.40002441406
746.714484916638	1245
747.442815191261	1231.59997558594
748.171054699597	1227.59997558594
748.899203449554	1224.59997558594
749.627261449039	1233.19995117188
750.355228705966	1226
751.083105228239	1239.40002441406
751.810891023765	1238.40002441406
752.538586100459	1240.40002441406
753.266190466218	1249.59997558594
753.99370412896	1242
754.721127096582	1260.19995117188
755.448459377	1236.19995117188
756.175700978114	1234.19995117188
756.902851907828	1226.80004882813
757.629912174055	1240.80004882813
758.356881784688	1232
759.083760747639	1242.40002441406
759.810549070817	1240.40002441406
760.537246762113	1247
761.263853829442	1257.59997558594
761.990370280698	1256.59997558594
762.716796123791	1257
763.443131366618	1245.59997558594
764.169376017082	1242.19995117188
764.895530083085	1254.40002441406
765.621593572527	1256.59997558594
766.347566493312	1255.40002441406
767.073448853336	1264.80004882813
767.799240660502	1271.40002441406
768.524941922707	1276.80004882813
769.250552647854	1269.59997558594
769.976072843836	1283.59997558594
770.701502518551	1285.40002441406
771.426841679905	1294.40002441406
772.152090335793	1290.59997558594
772.877248494107	1307.59997558594
773.602316162747	1308.19995117188
774.327293349609	1302
775.052180062592	1297
775.776976309589	1290.40002441406
776.501682098496	1288.59997558594
777.226297437206	1286.19995117188
777.950822333616	1280
778.675256795621	1270
779.399600831111	1277
780.123854447983	1275
780.84801765413	1271
781.572090457441	1274.40002441406
782.296072865811	1261.59997558594
783.019964887131	1246.80004882813
783.743766529297	1253.19995117188
784.467477800194	1255.59997558594
785.191098707719	1247.19995117188
785.914629259756	1247.19995117188
786.638069464194	1245.59997558594
787.361419328932	1246.19995117188
788.084678861852	1248.19995117188
788.807848070845	1242.80004882813
789.530926963798	1239.40002441406
790.253915548602	1250.19995117188
790.976813833144	1240.80004882813
791.699621825307	1237.19995117188
792.422339532986	1244.40002441406
793.144966964061	1240.40002441406
793.86750412642	1250.19995117188
794.589951027946	1260.80004882813
795.312307676536	1256.19995117188
796.03457408006	1262
796.756750246417	1247.40002441406
797.478836183477	1252.40002441406
798.200831899137	1249.19995117188
798.92273740127	1233
799.644552697769	1243.80004882813
800.36627779651	1241.59997558594
801.087912705374	1247
801.809457432251	1248.59997558594
802.530911985017	1250.19995117188
803.252276371558	1242
803.973550599748	1235.40002441406
804.694734677472	1239.19995117188
805.415828612611	1256
806.136832413045	1247.59997558594
806.857746086646	1250.59997558594
807.578569641305	1255.59997558594
808.299303084892	1252.40002441406
809.019946425289	1247
809.740499670372	1240
810.460962828022	1255.40002441406
811.181335906114	1254.40002441406
811.901618912524	1245.19995117188
812.621811855131	1253.80004882813
813.341914741809	1244
814.061927580433	1251.80004882813
814.781850378881	1245.40002441406
815.501683145025	1248.19995117188
816.221425886743	1250.59997558594
816.941078611903	1244
817.660641328387	1239.40002441406
818.380114044065	1243
819.099496766808	1241
819.818789504492	1244.40002441406
820.53799226499	1243
821.257105056168	1231.40002441406
821.976127885904	1242.40002441406
822.695060762064	1251
823.413903692525	1244.40002441406
824.132656685151	1239
824.851319747817	1245.59997558594
825.569892888388	1242.59997558594
826.288376114739	1244
827.006769434737	1251
827.725072856249	1247.59997558594
828.443286387142	1242
829.161410035285	1241.59997558594
829.87944380855	1236.19995117188
830.597387714798	1225.80004882813
831.315241761898	1231.59997558594
832.033005957715	1240.80004882813
832.750680310119	1241.19995117188
833.468264826969	1253.80004882813
834.18575951614	1248.80004882813
834.903164385486	1247
835.620479442878	1247
836.337704696181	1250.19995117188
837.054840153255	1249.80004882813
837.771885821962	1247.19995117188
838.488841710172	1254.40002441406
839.20570782574	1250.80004882813
839.922484176531	1252.80004882813
840.639170770409	1241.40002441406
841.355767615231	1233
842.072274718864	1241.59997558594
842.788692089164	1243
843.505019733993	1235
844.221257661209	1237.80004882813
844.937405878676	1252
845.65346439425	1241.59997558594
846.369433215789	1237.40002441406
847.085312351156	1237.80004882813
847.801101808205	1235.19995117188
848.516801594793	1241
849.232411718781	1242.40002441406
849.947932188021	1243.19995117188
850.663363010376	1229.80004882813
851.378704193698	1229.80004882813
852.093955745842	1232.40002441406
852.809117674669	1234.40002441406
853.524189988028	1245
854.239172693778	1237.19995117188
854.954065799768	1244.40002441406
855.668869313857	1247.19995117188
856.383583243899	1239
857.098207597743	1240.19995117188
857.812742383246	1247.80004882813
858.527187608255	1252.59997558594
859.241543280628	1243
859.955809408218	1229
860.669985998868	1241.80004882813
861.384073060437	1243.40002441406
862.098070600772	1248
862.811978627724	1244.40002441406
863.52579714914	1246.80004882813
864.239526172873	1242.19995117188
864.953165706776	1242.59997558594
865.666715758687	1236.59997558594
866.380176336464	1240
867.093547447951	1239.19995117188
867.806829100996	1237.19995117188
868.520021303444	1234.59997558594
869.233124063149	1236
869.94613738795	1245.59997558594
870.659061285693	1236
871.37189576423	1223
872.084640831403	1230
872.797296495057	1241
873.509862763039	1234
874.22233964319	1249.80004882813
874.934727143353	1244.80004882813
875.647025271374	1251
876.359234035097	1246.40002441406
877.071353442361	1233.80004882813
877.783383501015	1246.80004882813
878.495324218895	1242.80004882813
879.207175603844	1239.80004882813
879.918937663705	1239.59997558594
880.630610406318	1234.59997558594
881.342193839524	1242.59997558594
882.053687971161	1250.40002441406
882.765092809069	1251.80004882813
883.476408361091	1252.59997558594
884.187634635066	1243
884.898771638828	1224.40002441406
885.609819380221	1221.59997558594
886.320777867076	1236.80004882813
887.031647107236	1231.59997558594
887.742427108536	1232.40002441406
888.453117878816	1234.19995117188
889.16371942591	1236.59997558594
889.874231757652	1238.40002441406
890.584654881883	1239.59997558594
891.294988806434	1245.59997558594
892.005233539141	1227.80004882813
892.715389087837	1236.59997558594
893.42545546036	1235.59997558594
894.135432664543	1241
894.845320708216	1229
895.555119599216	1241.40002441406
896.264829345375	1247.40002441406
896.974449954526	1252.59997558594
897.683981434496	1252.80004882813
898.393423793125	1254.59997558594
899.102777038235	1259.40002441406
899.812041177664	1254.59997558594
900.521216219239	1250.80004882813
901.230302170793	1250.19995117188
901.939299040155	1257.19995117188
902.64820683515	1254.59997558594
903.357025563612	1259
904.065755233368	1251.59997558594
904.774395852247	1258.80004882813
905.482947428076	1262
906.191409968682	1250.80004882813
906.899783481897	1248.40002441406
907.608067975538	1249.80004882813
908.316263457443	1246.19995117188
909.02436993543	1252
909.732387417327	1251.80004882813
910.440315910959	1241.40002441406
911.148155424154	1244.19995117188
911.855905964731	1243.19995117188
912.563567540521	1246.40002441406
913.271140159339	1249.80004882813
913.978623829017	1238.19995117188
914.686018557374	1244.40002441406
915.393324352237	1242.19995117188
916.100541221421	1251.59997558594
916.807669172752	1247.59997558594
917.514708214054	1245.40002441406
918.221658353142	1250.59997558594
918.928519597843	1250.40002441406
919.635291955976	1255.19995117188
920.341975435358	1240.80004882813
921.048570043813	1235.40002441406
921.75507578916	1246.40002441406
922.461492679212	1241.19995117188
923.167820721795	1243
923.874059924726	1243.40002441406
924.58021029582	1233.59997558594
925.286271842893	1244.19995117188
925.992244573769	1239.19995117188
926.698128496262	1245.40002441406
927.403923618184	1253.19995117188
928.109629947355	1249.40002441406
928.815247491593	1242.59997558594
929.520776258708	1251.80004882813
930.226216256519	1248
930.931567492841	1255.80004882813
931.636829975482	1249.59997558594
932.342003712263	1264.19995117188
933.047088710995	1247
933.752084979491	1244
934.456992525564	1238.40002441406
935.161811357024	1228
935.866541481688	1228.59997558594
936.571182907363	1223.59997558594
937.275735641861	1230
937.980199692995	1214
938.684575068572	1219
939.388861776411	1218.59997558594
940.093059824311	1212
940.797169220085	1226.40002441406
941.501189971544	1228.80004882813
942.205122086495	1219.80004882813
942.908965572751	1238
943.612720438111	1234.19995117188
944.316386690391	1240.59997558594
945.019964337391	1233
945.723453386924	1221.40002441406
946.426853846795	1221.40002441406
947.130165724808	1221.19995117188
947.83338902877	1227.59997558594
948.536523766488	1230.59997558594
949.239569945764	1227
949.942527574402	1230.19995117188
950.64539666021	1222.40002441406
951.348177210993	1231
952.050869234548	1237.59997558594
952.753472738683	1233.40002441406
953.455987731199	1217.19995117188
954.158414219898	1228.59997558594
954.860752212587	1226.19995117188
955.563001717061	1219
956.265162741124	1232.59997558594
956.967235292576	1224.40002441406
957.669219379224	1222
958.371115008857	1225.40002441406
959.072922189283	1211.59997558594
959.774640928301	1221.19995117188
960.476271233708	1229
961.177813113301	1221.59997558594
961.879266574882	1217.19995117188
962.580631626248	1223.19995117188
963.281908275194	1220.80004882813
963.98309652952	1217.59997558594
964.684196397022	1213
965.3852078855	1218
966.086131002745	1234.59997558594
966.786965756555	1228.80004882813
967.487712154726	1231.40002441406
968.188370205055	1236.40002441406
968.888939915331	1229.59997558594
969.589421293352	1243
970.289814346909	1244.80004882813
970.990119083801	1247
971.690335511819	1245.59997558594
972.39046363875	1243.80004882813
973.090503472398	1235.40002441406
973.790455020545	1243.59997558594
974.490318290987	1236
975.190093291516	1237.80004882813
975.889780029923	1245.80004882813
976.589378513998	1236
977.288888751527	1241.80004882813
977.988310750308	1242.59997558594
978.687644518122	1239.40002441406
979.386890062767	1234.19995117188
980.086047392025	1233.40002441406
980.785116513689	1234
981.484097435542	1236.19995117188
982.182990165377	1229.59997558594
982.88179471098	1223.40002441406
983.580511080137	1221.19995117188
984.279139280632	1225.59997558594
984.977679320253	1225.19995117188
985.67613120679	1221
986.374494948027	1226.19995117188
987.072770551745	1226.59997558594
987.770958025731	1226.59997558594
988.469057377772	1230.19995117188
989.167068615649	1228.80004882813
989.864991747145	1229
990.562826780047	1234.19995117188
991.260573722134	1228.40002441406
991.958232581195	1236.40002441406
992.655803365003	1213
993.353286081346	1214.59997558594
994.050680738006	1221.19995117188
994.74798734276	1220
995.44520590339	1222
996.142336427681	1238.59997558594
996.839378923407	1235.80004882813
997.536333398348	1232.40002441406
998.233199860289	1234.40002441406
998.929978317004	1225.59997558594
999.626668776274	1221.40002441406
1000.32327124587	1224.80004882813
1001.01978573359	1230.19995117188
1001.71621224718	1228
1002.41255079445	1222.59997558594
1003.10880138315	1228.59997558594
1003.80496402107	1232.40002441406
1004.50103871599	1228.40002441406
1005.19702547567	1229.59997558594
1005.8929243079	1231
1006.58873522045	1251.80004882813
1007.2844582211	1255.80004882813
1007.98009331761	1243.59997558594
1008.67564051776	1249
1009.37109982933	1245.59997558594
1010.06647126009	1237.80004882813
1010.7617548178	1243
1011.45695051026	1242.80004882813
1012.15205834522	1237
1012.84707833045	1231.40002441406
1013.54201047373	1230
1014.23685478284	1229.19995117188
1014.93161126553	1236.19995117188
1015.62627992959	1222
1016.32086078277	1239.19995117188
1017.01535383285	1220.19995117188
1017.70975908761	1223.80004882813
1018.40407655479	1221.59997558594
1019.09830624219	1237.59997558594
1019.79244815755	1229.59997558594
1020.48650230866	1230.19995117188
1021.18046870328	1221.40002441406
1021.87434734917	1216.19995117188
1022.56813825411	1224.40002441406
1023.26184142584	1237.80004882813
1023.95545687216	1236
1024.64898460082	1234.80004882813
1025.34242461957	1226.40002441406
1026.0357769362	1227.19995117188
1026.72904155846	1221.80004882813
1027.42221849412	1229.59997558594
1028.11530775094	1226.80004882813
1028.80830933668	1232
1029.50122325911	1227.59997558594
1030.19404952599	1242
1030.88678814508	1240
1031.57943912414	1242.19995117188
1032.27200247093	1224.19995117188
1032.96447819323	1229
1033.65686629878	1224.40002441406
1034.34916679534	1231.80004882813
1035.04137969068	1230
1035.73350499256	1228
1036.42554270874	1226.59997558594
1037.11749284697	1225.59997558594
1037.80935541501	1224.80004882813
1038.50113042062	1226.59997558594
1039.19281787156	1223
1039.88441777559	1223.19995117188
1040.57593014046	1222.80004882813
1041.26735497393	1228
1041.95869228376	1222.59997558594
1042.6499420777	1224.59997558594
1043.3411043635	1237
1044.03217914893	1234.80004882813
1044.72316644174	1227.40002441406
1045.41406624968	1221
1046.1048785805	1234.59997558594
1046.79560344197	1236.19995117188
1047.48624084182	1225.80004882813
1048.17679078783	1224
1048.86725328774	1225.19995117188
1049.55762834929	1218.19995117188
1050.24791598025	1219
1050.93811618837	1233
1051.62822898139	1222.19995117188
1052.31825436707	1219
1053.00819235315	1232.59997558594
1053.6980429474	1216.80004882813
1054.38780615755	1225
1055.07748199136	1213
1055.76707045658	1225.19995117188
1056.45657156095	1215.59997558594
1057.14598531222	1218.19995117188
1057.83531171814	1215.40002441406
1058.52455078646	1221.19995117188
1059.21370252494	1219
1059.90276694129	1217.40002441406
1060.5917440433	1217.40002441406
1061.28063383868	1217.19995117188
1061.9694363352	1215.19995117188
1062.65815154059	1225.80004882813
1063.34677946261	1219.40002441406
1064.03532010899	1226.80004882813
1064.72377348748	1222.19995117188
1065.41213960583	1209
1066.10041847177	1216.40002441406
1066.78861009306	1215
1067.47671447743	1213.19995117188
1068.16473163263	1211.59997558594
1068.85266156639	1206.80004882813
1069.54050428647	1209.59997558594
1070.2282598006	1221
1070.91592811652	1222
1071.60350924198	1217.59997558594
1072.29100318471	1218.19995117188
1072.97840995245	1218
1073.66572955295	1208.40002441406
1074.35296199394	1205.80004882813
1075.04010728316	1215.59997558594
1075.72716542836	1212
1076.41413643726	1201.59997558594
1077.10102031761	1212
1077.78781707715	1213.80004882813
1078.4745267236	1217.59997558594
1079.16114926471	1217.59997558594
1079.84768470822	1224.59997558594
1080.53413306185	1226.59997558594
1081.22049433336	1226.40002441406
1081.90676853046	1219
1082.5929556609	1226.19995117188
1083.27905573241	1227.59997558594
1083.96506875272	1222.19995117188
1084.65099472957	1213.59997558594
1085.3368336707	1224.80004882813
1086.02258558383	1213
1086.70825047669	1205.59997558594
1087.39382835703	1205
1088.07931923257	1215.40002441406
1088.76472311104	1217
1089.45004000018	1213.40002441406
1090.13526990771	1215.40002441406
1090.82041284137	1225.40002441406
1091.50546880889	1225
1092.19043781799	1242.40002441406
1092.87531987642	1239.19995117188
1093.56011499188	1239.19995117188
1094.24482317212	1237.19995117188
1094.92944442486	1223.40002441406
1095.61397875783	1223.80004882813
1096.29842617876	1221.40002441406
1096.98278669537	1213.40002441406
1097.6670603154	1215.59997558594
1098.35124704656	1205.19995117188
1099.03534689659	1216.19995117188
1099.71935987322	1214.59997558594
1100.40328598416	1219.59997558594
1101.08712523713	1216.59997558594
1101.77087763988	1224.59997558594
1102.45454320012	1231.59997558594
1103.13812192557	1224.19995117188
1103.82161382396	1230.19995117188
1104.50501890301	1226.19995117188
1105.18833717045	1230.19995117188
1105.87156863399	1229.80004882813
1106.55471330137	1224.59997558594
1107.2377711803	1226.40002441406
1107.9207422785	1213.80004882813
1108.60362660369	1228.19995117188
1109.2864241636	1214.59997558594
1109.96913496594	1231.19995117188
1110.65175901844	1227.19995117188
1111.33429632882	1220.80004882813
1112.01674690479	1222.80004882813
1112.69911075408	1225.40002441406
1113.38138788439	1235.40002441406
1114.06357830346	1234.19995117188
1114.745682019	1230
1115.42769903872	1227.80004882813
1116.10962937035	1234.80004882813
1116.7914730216	1227
1117.47323000018	1241
1118.15490031382	1233
1118.83648397022	1236.80004882813
1119.51798097712	1234
1120.1993913422	1242
1120.88071507321	1235.80004882813
1121.56195217784	1235.40002441406
1122.24310266381	1225.59997558594
1122.92416653884	1231.40002441406
1123.60514381064	1220.80004882813
1124.28603448692	1228
1124.9668385754	1231.80004882813
1125.64755608378	1230
1126.32818701978	1238
1127.00873139111	1242.59997558594
1127.68918920548	1235
1128.3695604706	1238.40002441406
1129.04984519419	1227.80004882813
1129.73004338394	1236.80004882813
1130.41015504758	1237.59997558594
1131.09018019281	1228.59997558594
1131.77011882734	1231.19995117188
1132.44997095888	1230.59997558594
1133.12973659514	1225.59997558594
1133.80941574381	1234
1134.48900841263	1235.80004882813
1135.16851460927	1225.80004882813
1135.84793434147	1229.59997558594
1136.52726761692	1225
1137.20651444333	1214.59997558594
1137.8856748284	1223.19995117188
1138.56474877984	1220.40002441406
1139.24373630536	1210.80004882813
1139.92263741265	1201.59997558594
1140.60145210943	1212
1141.28018040339	1212.59997558594
1141.95882230225	1216.80004882813
1142.6373778137	1215
1143.31584694545	1222
1143.99422970519	1226
1144.67252610064	1232
1145.35073613949	1227
1146.02885982944	1224.19995117188
1146.7068971782	1226.59997558594
1147.38484819347	1223.59997558594
1148.06271288294	1226
1148.74049125432	1221.40002441406
1149.41818331531	1222
1150.0957890736	1222.59997558594
1150.77330853689	1227.40002441406
1151.45074171289	1217.80004882813
1152.12808860928	1229
1152.80534923378	1233.40002441406
1153.48252359407	1228.40002441406
1154.15961169786	1224.19995117188
1154.83661355283	1213
1155.51352916669	1216.40002441406
1156.19035854713	1216.19995117188
1156.86710170185	1214
1157.54375863855	1226.40002441406
1158.22032936491	1211.59997558594
1158.89681388863	1217.59997558594
1159.57321221741	1217.19995117188
1160.24952435894	1226
1160.92575032092	1230
1161.60189011103	1228.40002441406
1162.27794373697	1227
1162.95391120644	1230.59997558594
1163.62979252712	1230.59997558594
1164.3055877067	1239.40002441406
1164.98129675288	1222.59997558594
1165.65691967336	1231.80004882813
1166.33245647581	1230.80004882813
1167.00790716792	1236.59997558594
1167.6832717574	1233.19995117188
1168.35855025193	1236.59997558594
1169.0337426592	1224.40002441406
1169.70884898689	1227.19995117188
1170.3838692427	1228.19995117188
1171.05880343431	1218.59997558594
1171.73365156941	1219.40002441406
1172.40841365569	1215.80004882813
1173.08308970083	1230.19995117188
1173.75767971253	1238.19995117188
1174.43218369847	1244
1175.10660166633	1242.40002441406
1175.7809336238	1233
1176.45517957857	1237.80004882813
1177.12933953832	1228.40002441406
1177.80341351073	1225.80004882813
1178.47740150349	1222.40002441406
1179.15130352429	1235
1179.8251195808	1239.19995117188
1180.49884968071	1253.19995117188
1181.1724938317	1252.19995117188
1181.84605204145	1257.80004882813
1182.51952431766	1255.40002441406
1183.19291066799	1260.59997558594
1183.86621110013	1257
1184.53942562176	1257.19995117188
1185.21255424057	1259.40002441406
1185.88559696422	1255
1186.55855380041	1247
1187.2314247568	1250.40002441406
1187.90420984109	1238.80004882813
1188.57690906095	1248.19995117188
1189.24952242405	1265
1189.92204993808	1254.80004882813
1190.59449161071	1253.40002441406
1191.26684744962	1235.19995117188
1191.93911746249	1249.59997558594
1192.61130165699	1246
1193.28340004081	1238.40002441406
1193.95541262161	1246
1194.62733940707	1236.80004882813
1195.29918040487	1258.59997558594
1195.97093562269	1250.40002441406
1196.64260506819	1245
1197.31418874905	1243.40002441406
1197.98568667295	1239.19995117188
1198.65709884755	1254.59997558594
1199.32842528053	1251.59997558594
1199.99966597957	1249.19995117188
1200.67082095234	1249
1201.3418902065	1230.80004882813
1202.01287374974	1239
1202.68377158971	1236.59997558594
1203.3545837341	1230.80004882813
1204.02531019057	1226.80004882813
1204.6959509668	1240.59997558594
1205.36650607045	1240.19995117188
1206.03697550919	1225
1206.70735929069	1233
1207.37765742263	1234.40002441406
1208.04786991266	1241
1208.71799676846	1246.19995117188
1209.38803799769	1236.40002441406
1210.05799360803	1244.40002441406
1210.72786360714	1250.80004882813
1211.39764800268	1244.59997558594
1212.06734680233	1234.80004882813
1212.73696001375	1236.59997558594
1213.4064876446	1222
1214.07592970255	1231.59997558594
1214.74528619526	1234.40002441406
1215.4145571304	1233.40002441406
1216.08374251564	1232
1216.75284235863	1223.19995117188
1217.42185666704	1225.19995117188
1218.09078544854	1224
1218.75962871078	1216.40002441406
1219.42838646143	1213
1220.09705870816	1215.59997558594
1220.76564545861	1211.19995117188
1221.43414672046	1214
1222.10256250136	1208.19995117188
1222.77089280898	1225.40002441406
1223.43913765098	1223
1224.107297035	1228.59997558594
1224.77537096873	1228.19995117188
1225.44335945981	1234.40002441406
1226.1112625159	1233
1226.77908014467	1231.40002441406
1227.44681235376	1220.40002441406
1228.11445915085	1228.40002441406
1228.78202054357	1226.80004882813
1229.44949653961	1224.19995117188
1230.11688714659	1226
1230.7841923722	1230.40002441406
1231.45141222407	1216.59997558594
1232.11854670988	1221
1232.78559583726	1211.40002441406
1233.45255961388	1217
1234.1194380474	1224.19995117188
1234.78623114546	1217
1235.45293891572	1214.40002441406
1236.11956136583	1208
1236.78609850345	1222.80004882813
1237.45255033623	1235.59997558594
1238.11891687182	1234.59997558594
1238.78519811788	1225.19995117188
1239.45139408205	1231.80004882813
1240.11750477198	1215.59997558594
1240.78353019534	1215.80004882813
1241.44947035976	1209.40002441406
1242.11532527291	1205.19995117188
1242.78109494242	1218.59997558594
1243.44677937595	1209.40002441406
1244.11237858115	1220.59997558594
1244.77789256567	1208.59997558594
1245.44332133715	1206.80004882813
1246.10866490325	1220.59997558594
1246.7739232716	1233.59997558594
1247.43909644987	1235
1248.10418444569	1237.40002441406
1248.76918726671	1235.19995117188
1249.43410492059	1223.40002441406
1250.09893741496	1219
1250.76368475747	1223.40002441406
1251.42834695576	1223.40002441406
1252.09292401749	1215.80004882813
1252.75741595029	1224.19995117188
1253.42182276182	1217.40002441406
1254.08614445971	1215.40002441406
1254.75038105161	1217
1255.41453254515	1207.59997558594
1256.07859894799	1202.40002441406
1256.74258026777	1214.40002441406
1257.40647651213	1207.19995117188
1258.0702876887	1219
1258.73401380514	1212.80004882813
1259.39765486908	1213
1260.06121088817	1208.19995117188
1260.72468187004	1214.40002441406
1261.38806782233	1200.80004882813
1262.05136875269	1207.19995117188
1262.71458466875	1216.80004882813
1263.37771557815	1225.59997558594
1264.04076148854	1224.59997558594
1264.70372240753	1224.40002441406
1265.3665983428	1223.59997558594
1266.02938930195	1217.80004882813
1266.69209529263	1216.40002441406
1267.35471632249	1226.80004882813
1268.01725239914	1215
1268.67970353024	1213.80004882813
1269.34206972342	1228.19995117188
1270.00435098631	1220.80004882813
1270.66654732655	1225.40002441406
1271.32865875177	1226.19995117188
1271.9906852696	1217
1272.65262688768	1223
1273.31448361365	1210.80004882813
1273.97625545514	1216.59997558594
1274.63794241978	1219.40002441406
1275.2995445152	1222.59997558594
1275.96106174903	1220.19995117188
1276.62249412892	1226.19995117188
1277.28384166248	1229
1277.94510435735	1230.40002441406
1278.60628222116	1238.19995117188
1279.26737526155	1234.59997558594
1279.92838348613	1230.40002441406
1280.58930690255	1224
1281.25014551842	1224.80004882813
1281.91089934139	1214.19995117188
1282.57156837907	1211
1283.2321526391	1217.59997558594
1283.89265212911	1219.80004882813
1284.55306685671	1218.59997558594
1285.21339682955	1208.59997558594
1285.87364205525	1213.59997558594
1286.53380254142	1207.59997558594
1287.19387829571	1191.19995117188
1287.85386932573	1209.59997558594
1288.51377563911	1206.80004882813
1289.17359724348	1211.80004882813
1289.83333414646	1217
1290.49298635567	1221.19995117188
1291.15255387874	1217.80004882813
1291.8120367233	1229
1292.47143489696	1229.59997558594
1293.13074840736	1222.59997558594
1293.7899772621	1221.80004882813
1294.44912146882	1229
1295.10818103513	1211.40002441406
1295.76715596866	1214
1296.42604627704	1214
1297.08485196787	1215.59997558594
1297.74357304878	1214.19995117188
1298.4022095274	1221.19995117188
1299.06076141134	1222.19995117188
1299.71922870821	1215.19995117188
1300.37761142565	1224.19995117188
1301.03590957126	1240.40002441406
1301.69412315268	1230.59997558594
1302.3522521775	1242.80004882813
1303.01029665336	1232.40002441406
1303.66825658787	1233.19995117188
1304.32613198865	1232.19995117188
1304.98392286332	1228.40002441406
1305.64162921948	1222.40002441406
1306.29925106476	1237
1306.95678840677	1242.40002441406
1307.61424125312	1239.80004882813
1308.27160961145	1239.59997558594
1308.92889348934	1229
1309.58609289443	1226.80004882813
1310.24320783432	1229.40002441406
1310.90023831664	1223.40002441406
1311.55718434898	1233.40002441406
1312.21404593897	1232.40002441406
1312.87082309421	1243
1313.52751582233	1235.80004882813
1314.18412413092	1227.19995117188
1314.84064802761	1225.80004882813
1315.49708752	1225.80004882813
1316.1534426157	1228.19995117188
1316.80971332233	1236.40002441406
1317.46589964749	1233
1318.1220015988	1221.80004882813
1318.77801918386	1232
1319.43395241028	1226.59997558594
1320.08980128567	1237.40002441406
1320.74556581764	1229
1321.4012460138	1230.19995117188
1322.05684188176	1237.19995117188
1322.71235342911	1231.19995117188
1323.36778066347	1227
1324.02312359245	1222.40002441406
1324.67838222365	1226.19995117188
1325.33355656468	1234.80004882813
1325.98864662314	1236.19995117188
1326.64365240663	1225.19995117188
1327.29857392277	1217.19995117188
1327.95341117915	1220.80004882813
1328.60816418339	1226
1329.26283294308	1214.80004882813
1329.91741746582	1217
1330.57191775923	1212.40002441406
1331.2263338309	1209.80004882813
1331.88066568843	1207.19995117188
1332.53491333943	1211.19995117188
1333.1890767915	1208.19995117188
1333.84315605224	1225.59997558594
1334.49715112925	1219.19995117188
1335.15106203013	1224.40002441406
1335.80488876249	1224.80004882813
1336.45863133391	1224.19995117188
1337.112289752	1222
1337.76586402437	1226.59997558594
1338.4193541586	1222.40002441406
1339.0727601623	1231.19995117188
1339.72608204306	1241.40002441406
1340.37931980849	1227.59997558594
1341.03247346617	1234.80004882813
1341.68554302372	1238
1342.33852848871	1226.80004882813
1342.99142986876	1237.80004882813
1343.64424717145	1231.40002441406
1344.29698040438	1227.59997558594
1344.94962957515	1230.80004882813
1345.60219469135	1221.40002441406
1346.25467576058	1234
1346.90707279042	1228.40002441406
1347.55938578848	1231.80004882813
1348.21161476235	1235.80004882813
1348.86375971962	1230.80004882813
1349.51582066787	1241
1350.16779761472	1237.19995117188
1350.81969056774	1242.19995117188
1351.47149953453	1245.19995117188
1352.12322452269	1258.80004882813
1352.77486553979	1248
1353.42642259344	1257
1354.07789569122	1274
1354.72928484072	1270
1355.38059004953	1268.40002441406
1356.03181132525	1282.19995117188
1356.68294867545	1281.80004882813
1357.33400210773	1276.19995117188
1357.98497162968	1270.19995117188
1358.63585724889	1278
1359.28665897294	1259.80004882813
1359.93737680942	1265.59997558594
1360.58801076591	1268
1361.23856085001	1263.19995117188
1361.88902706929	1271.80004882813
1362.53940943135	1274.59997558594
1363.18970794377	1267.40002441406
1363.83992261413	1267.19995117188
1364.49005345003	1257.59997558594
1365.14010045904	1262.19995117188
1365.79006364874	1259
1366.43994302673	1253.80004882813
1367.08973860058	1262.80004882813
1367.73945037788	1264
1368.38907836621	1255.59997558594
1369.03862257315	1248.80004882813
1369.68808300629	1248.19995117188
1370.3374596732	1238.80004882813
1370.98675258148	1235.59997558594
1371.63596173868	1238
1372.28508715241	1242.80004882813
1372.93412883024	1228.59997558594
1373.58308677974	1220.40002441406
1374.2319610085	1226.80004882813
1374.8807515241	1214.19995117188
1375.52945833412	1216.19995117188
1376.17808144612	1210.19995117188
1376.82662086771	1212.40002441406
1377.47507660644	1211
1378.12344866989	1201.80004882813
1378.77173706565	1199
1379.41994180129	1205.19995117188
1380.06806288439	1213.80004882813
1380.71610032252	1208.40002441406
1381.36405412326	1204
1382.01192429419	1197
1382.65971084287	1200.40002441406
1383.30741377688	1196.40002441406
1383.95503310381	1191.59997558594
1384.60256883121	1194.19995117188
1385.25002096667	1204
1385.89738951775	1201
1386.54467449204	1205.59997558594
1387.19187589709	1199.19995117188
1387.8389937405	1206
1388.48602802982	1202.80004882813
1389.13297877262	1207
1389.77984597649	1215.40002441406
1390.42662964899	1211.59997558594
1391.07332979768	1206
1391.71994643015	1204
1392.36647955395	1191.19995117188
1393.01292917667	1210
1393.65929530586	1208.40002441406
1394.3055779491	1202.19995117188
1394.95177711395	1206.19995117188
1395.59789280799	1207.19995117188
1396.24392503877	1209
1396.88987381387	1201
1397.53573914086	1199.19995117188
1398.1815210273	1202
1398.82721948075	1208.80004882813
1399.47283450878	1205.19995117188
1400.11836611897	1202.59997558594
1400.76381431886	1211.59997558594
1401.40917911603	1200
1402.05446051805	1196
1402.69965853247	1202.59997558594
1403.34477316686	1193.40002441406
1403.98980442878	1199.59997558594
1404.6347523258	1193.19995117188
1405.27961686548	1193.19995117188
1405.92439805538	1206.59997558594
1406.56909590306	1209.59997558594
1407.21371041608	1197.40002441406
1407.85824160202	1202
1408.50268946841	1206
1409.14705402284	1194.40002441406
1409.79133527285	1198.59997558594
1410.43553322601	1199.59997558594
1411.07964788987	1193.80004882813
1411.723679272	1202
1412.36762737996	1199
1413.01149222129	1199.19995117188
1413.65527380357	1207
1414.29897213435	1208.59997558594
1414.94258722118	1200.59997558594
1415.58611907163	1198.40002441406
1416.22956769325	1208.59997558594
1416.87293309359	1207.19995117188
1417.51621528021	1214.80004882813
1418.15941426067	1218.80004882813
1418.80253004253	1198
1419.44556263333	1198.80004882813
1420.08851204063	1208.80004882813
1420.731378272	1212
1421.37416133497	1215.80004882813
1422.0168612371	1209.80004882813
1422.65947798596	1214.59997558594
1423.30201158908	1214.19995117188
1423.94446205403	1210.19995117188
1424.58682938835	1205.59997558594
1425.2291135996	1207.59997558594
1425.87131469532	1213
1426.51343268308	1210.59997558594
1427.15546757042	1211.80004882813
1427.79741936488	1218.19995117188
1428.43928807403	1213.80004882813
1429.0810737054	1212.59997558594
1429.72277626656	1217.59997558594
1430.36439576504	1211
1431.00593220841	1212.59997558594
1431.64738560419	1200
1432.28875595995	1204
1432.93004328324	1188.59997558594
1433.57124758159	1198.59997558594
1434.21236886255	1193.80004882813
1434.85340713368	1197.80004882813
1435.49436240252	1202
1436.13523467661	1201.40002441406
1436.77602396349	1205.80004882813
1437.41673027073	1200.80004882813
1438.05735360585	1207
1438.69789397641	1208.40002441406
1439.33835138994	1219
1439.978725854	1206.19995117188
1440.61901737612	1209.80004882813
1441.25922596385	1206.40002441406
1441.89935162473	1208.59997558594
1442.53939436631	1213.59997558594
1443.17935419612	1213
1443.81923112171	1211
1444.45902515061	1198.59997558594
1445.09873629038	1199.40002441406
1445.73836454854	1199.40002441406
1446.37790993265	1198.59997558594
1447.01737245024	1199
1447.65675210885	1201.80004882813
1448.29604891602	1205
1448.93526287928	1194.19995117188
1449.57439400618	1190.19995117188
1450.21344230426	1192
1450.85240778105	1190.19995117188
1451.49129044409	1187.80004882813
1452.13009030092	1188.59997558594
1452.76880735907	1198.19995117188
1453.40744162608	1198.40002441406
1454.04599310949	1201.40002441406
1454.68446181683	1208.59997558594
1455.32284775564	1205.80004882813
1455.96115093345	1210.19995117188
1456.5993713578	1215.59997558594
1457.23750903623	1215.40002441406
1457.87556397626	1196.19995117188
1458.51353618543	1197.59997558594
1459.15142567127	1200.59997558594
1459.78923244132	1214
1460.42695650311	1210
1461.06459786417	1201.40002441406
1461.70215653203	1202.59997558594
1462.33963251423	1193.19995117188
1462.97702581829	1191.19995117188
1463.61433645175	1194
1464.25156442214	1190.80004882813
1464.88870973699	1194.80004882813
1465.52577240382	1205.80004882813
1466.16275243017	1210.40002441406
1466.79964982356	1202.80004882813
1467.43646459154	1189.40002441406
1468.07319674161	1204.19995117188
1468.70984628132	1201.19995117188
1469.34641321818	1201.59997558594
1469.98289755974	1207.19995117188
1470.6192993135	1204.80004882813
1471.25561848701	1204.80004882813
1471.89185508779	1201
1472.52800912336	1211
1473.16408060124	1209.19995117188
1473.80006952897	1206.19995117188
1474.43597591407	1194.80004882813
1475.07179976406	1194.80004882813
1475.70754108647	1189.59997558594
1476.34319988883	1196
1476.97877617865	1200
1477.61426996345	1195.40002441406
1478.24968125077	1200.19995117188
1478.88501004812	1210.19995117188
1479.52025636303	1209.19995117188
1480.15542020302	1204
1480.79050157561	1197.40002441406
1481.42550048832	1208.59997558594
1482.06041694867	1210.59997558594
1482.69525096418	1203
1483.33000254237	1204.19995117188
1483.96467169077	1207.40002441406
1484.59925841689	1202.19995117188
1485.23376272825	1207
1485.86818463237	1204.59997558594
1486.50252413677	1207.59997558594
1487.13678124896	1215.59997558594
1487.77095597646	1211.19995117188
1488.4050483268	1201.59997558594
1489.03905830749	1191.80004882813
1489.67298592604	1204.59997558594
1490.30683118996	1201
1490.9405941068	1208
1491.57427468403	1220.19995117188
1492.2078729292	1214.40002441406
1492.84138884981	1212.59997558594
1493.47482245338	1211.80004882813
1494.10817374742	1201.80004882813
1494.74144273944	1213.80004882813
1495.37462943696	1208.80004882813
1496.0077338475	1217.40002441406
1496.64075597856	1213.59997558594
1497.27369583765	1210.80004882813
1497.9065534323	1207.59997558594
1498.53932877001	1200.80004882813
1499.17202185829	1197.19995117188
1499.80463270465	1198.40002441406
1500.43716131661	1188.40002441406
1501.06960770167	1189.19995117188
1501.70197186735	1202.80004882813
1502.33425382116	1189.40002441406
1502.96645357059	1203.59997558594
1503.59857112317	1200
1504.23060648641	1199.40002441406
1504.8625596678	1205.59997558594
1505.49443067486	1205
1506.1262195151	1206.59997558594
1506.75792619602	1204.19995117188
1507.38955072513	1202.80004882813
1508.02109310993	1209.19995117188
1508.65255335794	1206.19995117188
1509.28393147666	1214.19995117188
1509.91522747359	1212.59997558594
1510.54644135624	1207.19995117188
1511.17757313212	1198.80004882813
1511.80862280872	1196.59997558594
1512.43959039356	1199.19995117188
1513.07047589413	1190.40002441406
1513.70127931795	1201.59997558594
1514.33200067251	1201
1514.96263996531	1199.40002441406
1515.59319720386	1202.40002441406
1516.22367239567	1204.40002441406
1516.85406554822	1208.19995117188
1517.48437666903	1206.40002441406
1518.1146057656	1199.59997558594
1518.74475284542	1197.80004882813
1519.374817916	1199.40002441406
1520.00480098483	1197.40002441406
1520.63470205942	1214.80004882813
1521.26452114726	1207.40002441406
1521.89425825586	1201.59997558594
1522.52391339271	1190.19995117188
1523.15348656531	1198.40002441406
1523.78297778116	1199.19995117188
1524.41238704775	1198.40002441406
1525.04171437259	1189
1525.67095976317	1196.59997558594
1526.30012322699	1186.40002441406
1526.92920477154	1196.80004882813
1527.55820440432	1191.59997558594
1528.18712213283	1197.40002441406
1528.81595796455	1183.19995117188
1529.44471190699	1192.80004882813
1530.07338396764	1185
1530.70197415399	1186.19995117188
1531.33048247353	1190.19995117188
1531.95890893377	1177
1532.58725354219	1176.19995117188
1533.21551630629	1187.19995117188
1533.84369723356	1188
1534.47179633148	1194.80004882813
1535.09981360757	1197.19995117188
1535.72774906929	1193.40002441406
1536.35560272415	1193
1536.98337457963	1196.59997558594
1537.61106464323	1203.80004882813
1538.23867292243	1203.80004882813
1538.86619942473	1198.40002441406
1539.49364415762	1203.40002441406
1540.12100712857	1202.19995117188
1540.74828834509	1200.19995117188
1541.37548781466	1209.80004882813
1542.00260554478	1201.40002441406
1542.62964154291	1206.80004882813
1543.25659581655	1189
1543.8834683732	1189.80004882813
1544.51025922034	1187.59997558594
1545.13696836544	1186.19995117188
1545.76359581601	1186
1546.39014157952	1179
1547.01660566345	1178
1547.64298807531	1179.19995117188
1548.26928882255	1174.19995117188
1548.89550791269	1177.59997558594
1549.52164535318	1176.19995117188
1550.14770115153	1194.59997558594
1550.77367531521	1187.40002441406
1551.39956785171	1184
1552.0253787685	1180.40002441406
1552.65110807307	1176.80004882813
1553.2767557729	1172.40002441406
1553.90232187548	1179
1554.52780638828	1187.19995117188
1555.15320931879	1180.80004882813
1555.77853067447	1178.80004882813
1556.40377046282	1194
1557.02892869132	1188.59997558594
1557.65400536744	1179
1558.27900049866	1188.59997558594
1558.90391409247	1176.40002441406
1559.52874615633	1182.59997558594
1560.15349669773	1185.40002441406
1560.77816572414	1184.59997558594
1561.40275324305	1187.80004882813
1562.02725926192	1185.19995117188
1562.65168378824	1192.59997558594
1563.27602682948	1198
1563.90028839311	1190.80004882813
1564.52446848662	1189
1565.14856711748	1195.59997558594
1565.77258429316	1187.80004882813
1566.39652002113	1192.40002441406
1567.02037430887	1188
1567.64414716387	1195.40002441406
1568.26783859357	1192.59997558594
1568.89144860547	1192
1569.51497720703	1188.59997558594
1570.13842440573	1196
1570.76179020904	1191.19995117188
1571.38507462442	1198.40002441406
1572.00827765936	1192.80004882813
1572.63139932132	1191.40002441406
1573.25443961777	1187.19995117188
1573.87739855618	1180
1574.50027614402	1181.40002441406
1575.12307238877	1176.80004882813
1575.74578729789	1175.40002441406
1576.36842087885	1183.59997558594
1576.99097313912	1178.59997558594
1577.61344408616	1186
1578.23583372745	1173
1578.85814207046	1182
1579.48036912264	1181.40002441406
1580.10251489147	1182.59997558594
1580.72457938441	1169
1581.34656260893	1173.40002441406
1581.9684645725	1165
1582.59028528258	1167
1583.21202474663	1173.80004882813
1583.83368297212	1176.80004882813
1584.45525996652	1187.80004882813
1585.07675573728	1175.80004882813
1585.69817029188	1184.19995117188
1586.31950363778	1178.40002441406
1586.94075578243	1170.40002441406
1587.5619267333	1171.40002441406
1588.18301649786	1166.59997558594
1588.80402508357	1158.59997558594
1589.42495249788	1167.40002441406
1590.04579874826	1163.40002441406
1590.66656384217	1153.80004882813
1591.28724778707	1158
1591.90785059042	1154
1592.52837225968	1157.59997558594
1593.14881280232	1146.59997558594
1593.76917222578	1152
1594.38945053753	1145.19995117188
1595.00964774502	1149.40002441406
1595.62976385573	1158.80004882813
1596.24979887709	1166.40002441406
1596.86975281657	1159.80004882813
1597.48962568164	1163.40002441406
1598.10941747974	1157.80004882813
1598.72912821832	1166.40002441406
1599.34875790486	1155.59997558594
1599.9683065468	1160.80004882813
1600.58777415159	1162.80004882813
1601.2071607267	1156.80004882813
1601.82646627958	1154
1602.44569081769	1161.80004882813
1603.06483434846	1156.59997558594
1603.68389687937	1157.59997558594
1604.30287841786	1151.80004882813
1604.92177897139	1148.59997558594
1605.54059854741	1149.59997558594
1606.15933715337	1152
1606.77799479672	1145.19995117188
1607.39657148492	1150
1608.01506722542	1154.80004882813
1608.63348202566	1142.19995117188
1609.2518158931	1143
1609.87006883519	1141.59997558594
1610.48824085939	1149.59997558594
1611.10633197312	1144.80004882813
1611.72434218386	1145.59997558594
1612.34227149904	1150
1612.96011992612	1139.59997558594
1613.57788747254	1144.19995117188
1614.19557414575	1136.59997558594
1614.8131799532	1128.59997558594
1615.43070490234	1140.59997558594
1616.04814900061	1142.40002441406
1616.66551225545	1136.80004882813
1617.28279467433	1145
1617.89999626467	1139.19995117188
1618.51711703393	1141
1619.13415698955	1129.59997558594
1619.75111613898	1136
1620.36799448966	1143.59997558594
1620.98479204903	1140
1621.60150882455	1137.80004882813
1622.21814482364	1147.80004882813
1622.83470005376	1141.80004882813
1623.45117452235	1139.59997558594
1624.06756823685	1141.19995117188
1624.6838812047	1144.40002441406
1625.30011343335	1143.80004882813
1625.91626493022	1140.19995117188
1626.53233570278	1140.59997558594
1627.14832575845	1143.19995117188
1627.76423510468	1141.40002441406
1628.38006374891	1144.19995117188
1628.99581169857	1135.19995117188
1629.61147896111	1146.19995117188
1630.22706554397	1143.40002441406
1630.84257145457	1151.19995117188
1631.45799670038	1149
1632.07334128881	1145.80004882813
1632.6886052273	1144.19995117188
1633.3037885233	1135.19995117188
1633.91889118425	1130
1634.53391321757	1134.59997558594
1635.1488546307	1128.40002441406
1635.76371543108	1114.59997558594
1636.37849562616	1134.19995117188
1636.99319522335	1125.59997558594
1637.60781423009	1127
1638.22235265383	1127.80004882813
1638.83681050198	1127.40002441406
1639.451187782	1136.80004882813
1640.0654845013	1133.40002441406
1640.67970066734	1143.19995117188
1641.29383628752	1142.40002441406
1641.9078913693	1145.40002441406
1642.5218659201	1151.80004882813
1643.13575994735	1149.40002441406
1643.74957345849	1147.80004882813
1644.36330646094	1152.40002441406
1644.97695896213	1154.40002441406
1645.59053096951	1148.59997558594
1646.20402249049	1143.59997558594
1646.8174335325	1143.59997558594
1647.43076410298	1156
1648.04401420935	1156.40002441406
1648.65718385905	1160.80004882813
1649.2702730595	1159.40002441406
1649.88328181812	1166.40002441406
1650.49621014236	1170.19995117188
1651.10905803963	1157.59997558594
1651.72182551735	1150.19995117188
1652.33451258297	1148.19995117188
1652.9471192439	1141.40002441406
1653.55964550757	1134.40002441406
1654.1720913814	1141.80004882813
1654.78445687283	1141.19995117188
1655.39674198926	1134.19995117188
1656.00894673814	1137.19995117188
1656.62107112688	1132.80004882813
1657.23311516291	1125.40002441406
1657.84507885365	1131.59997558594
1658.45696220652	1126
1659.06876522895	1124.40002441406
1659.68048792835	1123.80004882813
1660.29213031217	1120.80004882813
1660.90369238779	1123.80004882813
1661.51517416267	1118
1662.12657564421	1120.19995117188
1662.73789683984	1115.59997558594
1663.34913775697	1113.40002441406
1663.96029840303	1114.59997558594
1664.57137878544	1106.19995117188
1665.18237891161	1103
1665.79329878897	1097.40002441406
1666.40413842493	1103
1667.01489782691	1109
1667.62557700233	1106.80004882813
1668.2361759586	1110.40002441406
1668.84669470315	1113
1669.4571332434	1111
1670.06749158675	1109.40002441406
1670.67776974062	1111.19995117188
1671.28796771243	1099.19995117188
1671.8980855096	1102.59997558594
1672.50812313954	1104.59997558594
1673.11808060967	1097.19995117188
1673.72795792739	1100.19995117188
1674.33775510013	1099
1674.9474721353	1099.80004882813
1675.55710904031	1096.40002441406
1676.16666582257	1095.40002441406
1676.7761424895	1098.40002441406
1677.38553904851	1087
1677.99485550702	1089.19995117188
1678.60409187243	1090.19995117188
1679.21324815215	1091.19995117188
1679.8223243536	1094
1680.43132048419	1086.59997558594
1681.04023655132	1092
1681.64907256241	1090.80004882813
1682.25782852487	1084
1682.86650444611	1086.19995117188
1683.47510033353	1084.80004882813
1684.08361619455	1081.40002441406
1684.69205203657	1075
1685.300407867	1073.80004882813
1685.90868369325	1077.19995117188
1686.51687952272	1070.19995117188
1687.12499536283	1076.80004882813
1687.73303122098	1075.19995117188
1688.34098710457	1080.40002441406
1688.94886302101	1078.40002441406
1689.55665897772	1074.40002441406
1690.16437498208	1070.19995117188
1690.77201104152	1069.40002441406
1691.37956716342	1061.59997558594
1691.9870433552	1064
1692.59443962426	1066.80004882813
1693.20175597801	1067.19995117188
1693.80899242384	1072.19995117188
1694.41614896916	1074
1695.02322562138	1073.40002441406
1695.63022238789	1080.59997558594
1696.23713927609	1077.80004882813
1696.8439762934	1077.80004882813
1697.4507334472	1073.80004882813
1698.05741074491	1082.59997558594
1698.66400819391	1071.80004882813
1699.27052580161	1067.80004882813
1699.87696357542	1066.80004882813
1700.48332152272	1066.80004882813
1701.08959965092	1061.59997558594
1701.69579796742	1061.19995117188
1702.30191647962	1063.19995117188
1702.90795519491	1066.19995117188
1703.51391412069	1058.80004882813
1704.11979326437	1055.59997558594
1704.72559263332	1066
1705.33131223496	1053.80004882813
1705.93695207668	1059.40002441406
1706.54251216588	1060.40002441406
1707.14799250994	1050.80004882813
1707.75339311628	1053.40002441406
1708.35871399227	1045
1708.96395514532	1051.80004882813
1709.56911658282	1043.80004882813
