634.948122577771	1347.19995117188
635.690341530823	1350.19995117188
636.43246851086	1341.59997558594
637.174503525845	1349.59997558594
637.916446583745	1361.19995117188
638.658297692538	1350.59997558594
639.400056860179	1362.80004882813
640.141724094637	1369.40002441406
640.883299403885	1371.59997558594
641.62478279588	1367.59997558594
642.366174278594	1373.40002441406
643.107473859989	1376.40002441406
643.848681548029	1386.59997558594
644.589797350679	1390.59997558594
645.330821275901	1386.80004882813
646.071753331665	1395.19995117188
646.812593525922	1386.59997558594
647.553341866646	1379.19995117188
648.293998361798	1362.40002441406
649.03456301933	1379.80004882813
649.775035847216	1368.80004882813
650.515416853409	1375
651.255706045874	1389
651.995903432568	1394.80004882813
652.736009021453	1389.40002441406
653.476022820486	1390.59997558594
654.215944837629	1395.19995117188
654.955775080842	1388.40002441406
655.695513558081	1386
656.435160277301	1388.80004882813
657.174715246465	1375.19995117188
657.914178473527	1383.19995117188
658.653549966449	1404.40002441406
659.392829733176	1401.40002441406
660.132017781678	1403
660.871114119901	1391.59997558594
661.610118755803	1383.19995117188
662.349031697343	1398.59997558594
663.087852952468	1376.40002441406
663.826582529139	1386.40002441406
664.565220435305	1379.40002441406
665.30376667892	1388.19995117188
666.04222126794	1385.40002441406
666.780584210316	1393.59997558594
667.518855514	1391.40002441406
668.25703518694	1398.40002441406
668.995123237096	1387.80004882813
669.733119672413	1383.19995117188
670.471024500842	1391.40002441406
671.208837730333	1390.19995117188
671.946559368839	1387.59997558594
672.684189424308	1394.80004882813
673.421727904689	1373
674.159174817929	1368.19995117188
674.896530171977	1365.19995117188
675.633793974786	1364.40002441406
676.370966234295	1368.40002441406
677.108046958461	1373.19995117188
677.845036155219	1371
678.581933832528	1371.59997558594
679.318739998323	1388.40002441406
680.055454660558	1387
680.792077827172	1392.40002441406
681.528609506116	1391.59997558594
682.265049705331	1409.40002441406
683.001398432759	1401.80004882813
683.737655696349	1400.19995117188
684.47382150404	1400.40002441406
685.20989586378	1398.80004882813
685.945878783503	1394.19995117188
686.68177027116	1396.80004882813
687.417570334688	1388.40002441406
688.153278982032	1395.19995117188
688.888896221129	1401
689.624422059921	1393.80004882813
690.359856506349	1394.59997558594
691.095199568354	1405.40002441406
691.830451253874	1396.59997558594
692.565611570844	1391.40002441406
693.300680527212	1387.40002441406
694.03565813091	1385.80004882813
694.770544389877	1390.59997558594
695.505339312053	1397.40002441406
696.240042905372	1388.59997558594
696.974655177772	1382.19995117188
697.70917613719	1388
698.443605791561	1384
699.177944148826	1392
699.912191216909	1396.59997558594
700.646347003755	1393.19995117188
701.380411517295	1402.59997558594
702.114384765465	1411
702.848266756195	1404
703.582057497421	1401.80004882813
704.315756997074	1431
705.049365263089	1410.59997558594
705.782882303399	1411.19995117188
706.516308125936	1424.40002441406
707.249642738626	1423.40002441406
707.982886149403	1431.40002441406
708.716038366204	1425.19995117188
709.449099396949	1420
710.182069249577	1425.80004882813
710.914947932009	1413.19995117188
711.647735452181	1419
712.380431818022	1405.40002441406
713.113037037454	1404
713.845551118411	1392
714.577974068818	1395
715.310305896604	1401.19995117188
716.042546609694	1408.80004882813
716.774696216013	1404.80004882813
717.506754723493	1408.59997558594
718.238722140053	1414.80004882813
718.970598473624	1415.80004882813
719.702383732127	1411.80004882813
720.43407792349	1419
721.165681055634	1427.80004882813
721.897193136486	1421.40002441406
722.628614173966	1436.40002441406
723.359944175997	1430.59997558594
724.091183150505	1436.19995117188
724.822331105412	1440.40002441406
725.553388048638	1419.59997558594
726.284353988106	1420.19995117188
727.015228931734	1415
727.746012887449	1415.40002441406
728.476705863162	1444.59997558594
729.207307866803	1447.80004882813
729.937818906289	1446.80004882813
730.668238989535	1441
731.398568124459	1424.59997558594
732.128806318986	1421.40002441406
732.858953581034	1421
733.589009918514	1427.59997558594
734.318975339348	1416.40002441406
735.048849851452	1424.40002441406
735.778633462744	1424.59997558594
736.508326181137	1420.59997558594
737.237928014549	1422.19995117188
737.967438970897	1415
738.696859058095	1410.80004882813
739.426188284054	1402.80004882813
740.155426656692	1406.80004882813
740.884574183922	1408.19995117188
741.613630873659	1415.59997558594
742.342596733815	1424.59997558594
743.071471772302	1411.40002441406
743.800255997034	1428
744.528949415921	1423
745.257552036877	1419.19995117188
745.986063867811	1417.40002441406
746.714484916638	1402.40002441406
747.442815191261	1409.19995117188
748.171054699597	1409.59997558594
748.899203449554	1407.40002441406
749.627261449039	1409.59997558594
750.355228705966	1409.19995117188
751.083105228239	1419.80004882813
751.810891023765	1428.80004882813
752.538586100459	1440.59997558594
753.266190466218	1434
753.99370412896	1436.80004882813
754.721127096582	1431.19995117188
755.448459377	1433.19995117188
756.175700978114	1427.59997558594
756.902851907828	1426.19995117188
757.629912174055	1427
758.356881784688	1415.59997558594
759.083760747639	1426.19995117188
759.810549070817	1429.19995117188
760.537246762113	1434.59997558594
761.263853829442	1439.80004882813
761.990370280698	1435.59997558594
762.716796123791	1436
763.443131366618	1429.19995117188
764.169376017082	1430.80004882813
764.895530083085	1433.59997558594
765.621593572527	1442.40002441406
766.347566493312	1445.40002441406
767.073448853336	1460.59997558594
767.799240660502	1460
768.524941922707	1465.80004882813
769.250552647854	1470.19995117188
769.976072843836	1481.59997558594
770.701502518551	1486
771.426841679905	1501.19995117188
772.152090335793	1508.40002441406
772.877248494107	1499.80004882813
773.602316162747	1510.80004882813
774.327293349609	1499.59997558594
775.052180062592	1506.59997558594
775.776976309589	1485
776.501682098496	1488.40002441406
777.226297437206	1478.19995117188
777.950822333616	1480.19995117188
778.675256795621	1487.59997558594
779.399600831111	1483.80004882813
780.123854447983	1476.19995117188
780.84801765413	1458.80004882813
781.572090457441	1458
782.296072865811	1448.80004882813
783.019964887131	1449.59997558594
783.743766529297	1444
784.467477800194	1451.19995117188
785.191098707719	1448.80004882813
785.914629259756	1445.19995117188
786.638069464194	1445.40002441406
787.361419328932	1447.59997558594
788.084678861852	1434.80004882813
788.807848070845	1428
789.530926963798	1416.59997558594
790.253915548602	1427.19995117188
790.976813833144	1426.59997558594
791.699621825307	1414.59997558594
792.422339532986	1433.80004882813
793.144966964061	1433.40002441406
793.86750412642	1447.40002441406
794.589951027946	1451.40002441406
795.312307676536	1455
796.03457408006	1453.19995117188
796.756750246417	1448.40002441406
797.478836183477	1441.19995117188
798.200831899137	1426.19995117188
798.92273740127	1417.80004882813
799.644552697769	1422.80004882813
800.36627779651	1424.40002441406
801.087912705374	1433.40002441406
801.809457432251	1431.80004882813
802.530911985017	1439.19995117188
803.252276371558	1426.19995117188
803.973550599748	1427.80004882813
804.694734677472	1442
805.415828612611	1438
806.136832413045	1441.80004882813
806.857746086646	1442.40002441406
807.578569641305	1444.19995117188
808.299303084892	1442.80004882813
809.019946425289	1424.59997558594
809.740499670372	1450
810.460962828022	1438
811.181335906114	1435.80004882813
811.901618912524	1444.59997558594
812.621811855131	1436.19995117188
813.341914741809	1441.80004882813
814.061927580433	1446.80004882813
814.781850378881	1428
815.501683145025	1428.40002441406
816.221425886743	1433.40002441406
816.941078611903	1434
817.660641328387	1433
818.380114044065	1421.80004882813
819.099496766808	1421.40002441406
819.818789504492	1424.19995117188
820.53799226499	1430.40002441406
821.257105056168	1424.59997558594
821.976127885904	1420.19995117188
822.695060762064	1418.80004882813
823.413903692525	1418.40002441406
824.132656685151	1433
824.851319747817	1430
825.569892888388	1431.80004882813
826.288376114739	1448.80004882813
827.006769434737	1445.80004882813
827.725072856249	1424.19995117188
828.443286387142	1433.59997558594
829.161410035285	1422.80004882813
829.87944380855	1412.80004882813
830.597387714798	1407.59997558594
831.315241761898	1427
832.033005957715	1432.19995117188
832.750680310119	1444.19995117188
833.468264826969	1447.80004882813
834.18575951614	1446.80004882813
834.903164385486	1435.80004882813
835.620479442878	1436.19995117188
836.337704696181	1440.59997558594
837.054840153255	1436.59997558594
837.771885821962	1452.80004882813
838.488841710172	1449
839.20570782574	1448.80004882813
839.922484176531	1445
840.639170770409	1430.40002441406
841.355767615231	1432.40002441406
842.072274718864	1433
842.788692089164	1429.19995117188
843.505019733993	1441.19995117188
844.221257661209	1437.80004882813
844.937405878676	1428.59997558594
845.65346439425	1436.80004882813
846.369433215789	1428.19995117188
847.085312351156	1426.59997558594
847.801101808205	1418.19995117188
848.516801594793	1429.19995117188
849.232411718781	1422
849.947932188021	1433.80004882813
850.663363010376	1425
851.378704193698	1425.80004882813
852.093955745842	1426.80004882813
852.809117674669	1440.40002441406
853.524189988028	1428.59997558594
854.239172693778	1429
854.954065799768	1437
855.668869313857	1430.19995117188
856.383583243899	1425
857.098207597743	1432.40002441406
857.812742383246	1433.19995117188
858.527187608255	1439.19995117188
859.241543280628	1421.80004882813
859.955809408218	1418.59997558594
860.669985998868	1428.40002441406
861.384073060437	1431.59997558594
862.098070600772	1436.40002441406
862.811978627724	1431
863.52579714914	1436.19995117188
864.239526172873	1434
864.953165706776	1431.40002441406
865.666715758687	1429.80004882813
866.380176336464	1438.40002441406
867.093547447951	1442
867.806829100996	1435.80004882813
868.520021303444	1435.40002441406
869.233124063149	1427.19995117188
869.94613738795	1423.80004882813
870.659061285693	1424
871.37189576423	1414
872.084640831403	1427.19995117188
872.797296495057	1439.19995117188
873.509862763039	1446.80004882813
874.22233964319	1427.40002441406
874.934727143353	1428.80004882813
875.647025271374	1420.59997558594
876.359234035097	1422
877.071353442361	1436.59997558594
877.783383501015	1427.80004882813
878.495324218895	1430.40002441406
879.207175603844	1435.19995117188
879.918937663705	1434.40002441406
880.630610406318	1448.40002441406
881.342193839524	1444.40002441406
882.053687971161	1442.19995117188
882.765092809069	1441.40002441406
883.476408361091	1436.40002441406
884.187634635066	1437
884.898771638828	1420.59997558594
885.609819380221	1431.59997558594
886.320777867076	1429.40002441406
887.031647107236	1407
887.742427108536	1403.40002441406
888.453117878816	1417.19995117188
889.16371942591	1415
889.874231757652	1420.19995117188
890.584654881883	1428.19995117188
891.294988806434	1431.80004882813
892.005233539141	1417
892.715389087837	1419
893.42545546036	1419.80004882813
894.135432664543	1416.40002441406
894.845320708216	1425.59997558594
895.555119599216	1434
896.264829345375	1436.19995117188
896.974449954526	1450.59997558594
897.683981434496	1453.40002441406
898.393423793125	1457
899.102777038235	1454
899.812041177664	1445.19995117188
900.521216219239	1453.59997558594
901.230302170793	1453.19995117188
901.939299040155	1443.59997558594
902.64820683515	1456.40002441406
903.357025563612	1451.80004882813
904.065755233368	1458.19995117188
904.774395852247	1448.59997558594
905.482947428076	1453.19995117188
906.191409968682	1451.19995117188
906.899783481897	1455.80004882813
907.608067975538	1445.80004882813
908.316263457443	1442
909.02436993543	1443.80004882813
909.732387417327	1451.59997558594
910.440315910959	1445
911.148155424154	1441
911.855905964731	1439.40002441406
912.563567540521	1435.19995117188
913.271140159339	1430.80004882813
913.978623829017	1431.80004882813
914.686018557374	1433.19995117188
915.393324352237	1431.19995117188
916.100541221421	1440.19995117188
916.807669172752	1432
917.514708214054	1446.19995117188
918.221658353142	1461.59997558594
918.928519597843	1445.59997558594
919.635291955976	1446.59997558594
920.341975435358	1437.40002441406
921.048570043813	1430.40002441406
921.75507578916	1429
922.461492679212	1429.40002441406
923.167820721795	1426.80004882813
923.874059924726	1436.19995117188
924.58021029582	1444.59997558594
925.286271842893	1425.19995117188
925.992244573769	1422.80004882813
926.698128496262	1436.80004882813
927.403923618184	1430
928.109629947355	1446.59997558594
928.815247491593	1438
929.520776258708	1433.19995117188
930.226216256519	1446
930.931567492841	1447.19995117188
931.636829975482	1444
932.342003712263	1446.80004882813
933.047088710995	1444.80004882813
933.752084979491	1428.80004882813
934.456992525564	1431
935.161811357024	1415
935.866541481688	1408.80004882813
936.571182907363	1417.80004882813
937.275735641861	1413.40002441406
937.980199692995	1406.80004882813
938.684575068572	1406.59997558594
939.388861776411	1414.19995117188
940.093059824311	1401.80004882813
940.797169220085	1424
941.501189971544	1429
942.205122086495	1423.40002441406
942.908965572751	1420.40002441406
943.612720438111	1424.59997558594
944.316386690391	1421.59997558594
945.019964337391	1409
945.723453386924	1418.40002441406
946.426853846795	1423.19995117188
947.130165724808	1413.80004882813
947.83338902877	1411.80004882813
948.536523766488	1401
949.239569945764	1407.59997558594
949.942527574402	1413.59997558594
950.64539666021	1412
951.348177210993	1420.80004882813
952.050869234548	1423.19995117188
952.753472738683	1421.40002441406
953.455987731199	1400.59997558594
954.158414219898	1414.19995117188
954.860752212587	1414.19995117188
955.563001717061	1417.40002441406
956.265162741124	1424
956.967235292576	1402.40002441406
957.669219379224	1422.59997558594
958.371115008857	1413.19995117188
959.072922189283	1401.59997558594
959.774640928301	1398.19995117188
960.476271233708	1413
961.177813113301	1399.80004882813
961.879266574882	1410.59997558594
962.580631626248	1405.80004882813
963.281908275194	1407
963.98309652952	1404.80004882813
964.684196397022	1401.59997558594
965.3852078855	1404.40002441406
966.086131002745	1418.40002441406
966.786965756555	1439.40002441406
967.487712154726	1434.80004882813
968.188370205055	1427.19995117188
968.888939915331	1434.80004882813
969.589421293352	1428.59997558594
970.289814346909	1440.80004882813
970.990119083801	1436.59997558594
971.690335511819	1431.80004882813
972.39046363875	1424.59997558594
973.090503472398	1438.19995117188
973.790455020545	1443.80004882813
974.490318290987	1438.19995117188
975.190093291516	1441.40002441406
975.889780029923	1430.59997558594
976.589378513998	1449.40002441406
977.288888751527	1454.40002441406
977.988310750308	1429
978.687644518122	1424
979.386890062767	1437.59997558594
980.086047392025	1432
980.785116513689	1433.59997558594
981.484097435542	1419.40002441406
982.182990165377	1427.40002441406
982.88179471098	1416.40002441406
983.580511080137	1410
984.279139280632	1412.40002441406
984.977679320253	1420
985.67613120679	1416.59997558594
986.374494948027	1416.59997558594
987.072770551745	1409.59997558594
987.770958025731	1425
988.469057377772	1424.59997558594
989.167068615649	1416
989.864991747145	1418.80004882813
990.562826780047	1420.19995117188
991.260573722134	1412
991.958232581195	1415.19995117188
992.655803365003	1398
993.353286081346	1396.80004882813
994.050680738006	1400.19995117188
994.74798734276	1407.80004882813
995.44520590339	1420.80004882813
996.142336427681	1430
996.839378923407	1420
997.536333398348	1422
998.233199860289	1422.40002441406
998.929978317004	1420.19995117188
999.626668776274	1425.19995117188
1000.32327124587	1418.59997558594
1001.01978573359	1412
1001.71621224718	1400.80004882813
1002.41255079445	1412.40002441406
1003.10880138315	1419.40002441406
1003.80496402107	1418
1004.50103871599	1423
1005.19702547567	1421.40002441406
1005.8929243079	1434.80004882813
1006.58873522045	1454.80004882813
1007.2844582211	1455.40002441406
1007.98009331761	1451.80004882813
1008.67564051776	1444
1009.37109982933	1441.40002441406
1010.06647126009	1424.59997558594
1010.7617548178	1436.59997558594
1011.45695051026	1438.59997558594
1012.15205834522	1444.80004882813
1012.84707833045	1426.80004882813
1013.54201047373	1429.59997558594
1014.23685478284	1429
1014.93161126553	1421.19995117188
1015.62627992959	1429.19995117188
1016.32086078277	1418.19995117188
1017.01535383285	1413
1017.70975908761	1414.59997558594
1018.40407655479	1422.80004882813
1019.09830624219	1420.59997558594
1019.79244815755	1418
1020.48650230866	1410.59997558594
1021.18046870328	1407.40002441406
1021.87434734917	1408.19995117188
1022.56813825411	1424.19995117188
1023.26184142584	1417.59997558594
1023.95545687216	1417.59997558594
1024.64898460082	1415.80004882813
1025.34242461957	1409.59997558594
1026.0357769362	1419.59997558594
1026.72904155846	1425.40002441406
1027.42221849412	1431.80004882813
1028.11530775094	1429.40002441406
1028.80830933668	1428.40002441406
1029.50122325911	1429.80004882813
1030.19404952599	1439.19995117188
1030.88678814508	1426.80004882813
1031.57943912414	1421.59997558594
1032.27200247093	1425.59997558594
1032.96447819323	1412.80004882813
1033.65686629878	1419.19995117188
1034.34916679534	1414.59997558594
1035.04137969068	1419.19995117188
1035.73350499256	1433
1036.42554270874	1420.19995117188
1037.11749284697	1407.80004882813
1037.80935541501	1412.80004882813
1038.50113042062	1407
1039.19281787156	1400.80004882813
1039.88441777559	1414
1040.57593014046	1405
1041.26735497393	1395.80004882813
1041.95869228376	1410.59997558594
1042.6499420777	1421.59997558594
1043.3411043635	1426
1044.03217914893	1418.40002441406
1044.72316644174	1413.19995117188
1045.41406624968	1421
1046.1048785805	1422.40002441406
1046.79560344197	1420.19995117188
1047.48624084182	1425.80004882813
1048.17679078783	1417.40002441406
1048.86725328774	1414.40002441406
1049.55762834929	1407.40002441406
1050.24791598025	1402.19995117188
1050.93811618837	1403.40002441406
1051.62822898139	1405
1052.31825436707	1399.19995117188
1053.00819235315	1404
1053.6980429474	1395
1054.38780615755	1390.40002441406
1055.07748199136	1399.59997558594
1055.76707045658	1400.40002441406
1056.45657156095	1399
1057.14598531222	1402.19995117188
1057.83531171814	1389.80004882813
1058.52455078646	1396
1059.21370252494	1393.40002441406
1059.90276694129	1391.19995117188
1060.5917440433	1391.59997558594
1061.28063383868	1416.59997558594
1061.9694363352	1418.80004882813
1062.65815154059	1420
1063.34677946261	1410.40002441406
1064.03532010899	1412.19995117188
1064.72377348748	1403.80004882813
1065.41213960583	1384.19995117188
1066.10041847177	1400.59997558594
1066.78861009306	1395.40002441406
1067.47671447743	1392
1068.16473163263	1389.80004882813
1068.85266156639	1390
1069.54050428647	1395
1070.2282598006	1407.19995117188
1070.91592811652	1405
1071.60350924198	1401.40002441406
1072.29100318471	1405.40002441406
1072.97840995245	1405.59997558594
1073.66572955295	1403.59997558594
1074.35296199394	1402
1075.04010728316	1402.40002441406
1075.72716542836	1403
1076.41413643726	1402.59997558594
1077.10102031761	1400.80004882813
1077.78781707715	1411.19995117188
1078.4745267236	1412.80004882813
1079.16114926471	1427.40002441406
1079.84768470822	1406.40002441406
1080.53413306185	1425.40002441406
1081.22049433336	1415.19995117188
1081.90676853046	1412.19995117188
1082.5929556609	1419.59997558594
1083.27905573241	1424.80004882813
1083.96506875272	1417.59997558594
1084.65099472957	1403.40002441406
1085.3368336707	1398.19995117188
1086.02258558383	1401
1086.70825047669	1386.59997558594
1087.39382835703	1389
1088.07931923257	1405.40002441406
1088.76472311104	1394.40002441406
1089.45004000018	1408.40002441406
1090.13526990771	1396.19995117188
1090.82041284137	1419.80004882813
1091.50546880889	1414
1092.19043781799	1432.40002441406
1092.87531987642	1439.40002441406
1093.56011499188	1426.59997558594
1094.24482317212	1421.59997558594
1094.92944442486	1419.40002441406
1095.61397875783	1416.19995117188
1096.29842617876	1402.19995117188
1096.98278669537	1388
1097.6670603154	1399.59997558594
1098.35124704656	1395.19995117188
1099.03534689659	1404.40002441406
1099.71935987322	1388
1100.40328598416	1387.19995117188
1101.08712523713	1411.80004882813
1101.77087763988	1414.40002441406
1102.45454320012	1430.40002441406
1103.13812192557	1422.80004882813
1103.82161382396	1436
1104.50501890301	1432.40002441406
1105.18833717045	1427.40002441406
1105.87156863399	1424.59997558594
1106.55471330137	1419.40002441406
1107.2377711803	1406.59997558594
1107.9207422785	1405.59997558594
1108.60362660369	1413.40002441406
1109.2864241636	1413.80004882813
1109.96913496594	1427.40002441406
1110.65175901844	1413.59997558594
1111.33429632882	1404.59997558594
1112.01674690479	1403.80004882813
1112.69911075408	1413.19995117188
1113.38138788439	1424.59997558594
1114.06357830346	1429.80004882813
1114.745682019	1414.80004882813
1115.42769903872	1421.59997558594
1116.10962937035	1423
1116.7914730216	1429.59997558594
1117.47323000018	1435.59997558594
1118.15490031382	1431
1118.83648397022	1433.59997558594
1119.51798097712	1432.80004882813
1120.1993913422	1428.59997558594
1120.88071507321	1433.19995117188
1121.56195217784	1418.40002441406
1122.24310266381	1421
1122.92416653884	1413.19995117188
1123.60514381064	1414.19995117188
1124.28603448692	1417.59997558594
1124.9668385754	1415.59997558594
1125.64755608378	1423.40002441406
1126.32818701978	1428.19995117188
1127.00873139111	1431
1127.68918920548	1434.40002441406
1128.3695604706	1434
1129.04984519419	1429.59997558594
1129.73004338394	1428.40002441406
1130.41015504758	1424.59997558594
1131.09018019281	1422.59997558594
1131.77011882734	1426.40002441406
1132.44997095888	1421
1133.12973659514	1428
1133.80941574381	1428.19995117188
1134.48900841263	1429.80004882813
1135.16851460927	1421.59997558594
1135.84793434147	1425.59997558594
1136.52726761692	1410.19995117188
1137.20651444333	1404
1137.8856748284	1404.40002441406
1138.56474877984	1391.80004882813
1139.24373630536	1388.59997558594
1139.92263741265	1388.59997558594
1140.60145210943	1381.80004882813
1141.28018040339	1391.19995117188
1141.95882230225	1402.80004882813
1142.6373778137	1399.40002441406
1143.31584694545	1405.19995117188
1143.99422970519	1415.40002441406
1144.67252610064	1421.40002441406
1145.35073613949	1419.80004882813
1146.02885982944	1413.80004882813
1146.7068971782	1403
1147.38484819347	1395.59997558594
1148.06271288294	1411
1148.74049125432	1404.59997558594
1149.41818331531	1413.19995117188
1150.0957890736	1410.19995117188
1150.77330853689	1415.59997558594
1151.45074171289	1409.80004882813
1152.12808860928	1417.40002441406
1152.80534923378	1418.19995117188
1153.48252359407	1411.19995117188
1154.15961169786	1409.59997558594
1154.83661355283	1408.80004882813
1155.51352916669	1400
1156.19035854713	1401.40002441406
1156.86710170185	1401.59997558594
1157.54375863855	1401.59997558594
1158.22032936491	1395.19995117188
1158.89681388863	1398.59997558594
1159.57321221741	1398.40002441406
1160.24952435894	1409.40002441406
1160.92575032092	1421.19995117188
1161.60189011103	1425.59997558594
1162.27794373697	1419.19995117188
1162.95391120644	1426.19995117188
1163.62979252712	1424.40002441406
1164.3055877067	1424.19995117188
1164.98129675288	1416.19995117188
1165.65691967336	1417.59997558594
1166.33245647581	1422.19995117188
1167.00790716792	1416.19995117188
1167.6832717574	1428.40002441406
1168.35855025193	1425.59997558594
1169.0337426592	1421.40002441406
1169.70884898689	1421.80004882813
1170.3838692427	1408.59997558594
1171.05880343431	1401.40002441406
1171.73365156941	1391.40002441406
1172.40841365569	1413.19995117188
1173.08308970083	1408
1173.75767971253	1424.40002441406
1174.43218369847	1432
1175.10660166633	1413.40002441406
1175.7809336238	1422
1176.45517957857	1415.19995117188
1177.12933953832	1415.59997558594
1177.80341351073	1409.40002441406
1178.47740150349	1404.19995117188
1179.15130352429	1406.19995117188
1179.8251195808	1410
1180.49884968071	1439.19995117188
1181.1724938317	1453.59997558594
1181.84605204145	1440.80004882813
1182.51952431766	1433.59997558594
1183.19291066799	1449.80004882813
1183.86621110013	1455.59997558594
1184.53942562176	1442.19995117188
1185.21255424057	1445
1185.88559696422	1417.59997558594
1186.55855380041	1419
1187.2314247568	1414.59997558594
1187.90420984109	1420
1188.57690906095	1443.40002441406
1189.24952242405	1437.40002441406
1189.92204993808	1426.40002441406
1190.59449161071	1427.40002441406
1191.26684744962	1421.40002441406
1191.93911746249	1419.59997558594
1192.61130165699	1413.59997558594
1193.28340004081	1423.40002441406
1193.95541262161	1417.19995117188
1194.62733940707	1417.80004882813
1195.29918040487	1423.80004882813
1195.97093562269	1420.80004882813
1196.64260506819	1426.40002441406
1197.31418874905	1408.40002441406
1197.98568667295	1417.40002441406
1198.65709884755	1413.19995117188
1199.32842528053	1426.19995117188
1199.99966597957	1428.40002441406
1200.67082095234	1422.80004882813
1201.3418902065	1406.19995117188
1202.01287374974	1407.80004882813
1202.68377158971	1392.19995117188
1203.3545837341	1414.40002441406
1204.02531019057	1413.80004882813
1204.6959509668	1403
1205.36650607045	1410.80004882813
1206.03697550919	1405.80004882813
1206.70735929069	1414.59997558594
1207.37765742263	1420.59997558594
1208.04786991266	1419.80004882813
1208.71799676846	1424.80004882813
1209.38803799769	1424
1210.05799360803	1417.19995117188
1210.72786360714	1422.80004882813
1211.39764800268	1434.80004882813
1212.06734680233	1431.19995117188
1212.73696001375	1416.19995117188
1213.4064876446	1417.19995117188
1214.07592970255	1410.59997558594
1214.74528619526	1420.19995117188
1215.4145571304	1413.19995117188
1216.08374251564	1423.40002441406
1216.75284235863	1416
1217.42185666704	1412
1218.09078544854	1393.19995117188
1218.75962871078	1407.19995117188
1219.42838646143	1395.80004882813
1220.09705870816	1385.80004882813
1220.76564545861	1394.40002441406
1221.43414672046	1385.40002441406
1222.10256250136	1406.19995117188
1222.77089280898	1410
1223.43913765098	1411.59997558594
1224.107297035	1408
1224.77537096873	1429.19995117188
1225.44335945981	1426.40002441406
1226.1112625159	1422.19995117188
1226.77908014467	1426.59997558594
1227.44681235376	1416.19995117188
1228.11445915085	1421.59997558594
1228.78202054357	1412.80004882813
1229.44949653961	1414.40002441406
1230.11688714659	1415.19995117188
1230.7841923722	1409.80004882813
1231.45141222407	1410.59997558594
1232.11854670988	1403
1232.78559583726	1390
1233.45255961388	1387
1234.1194380474	1394.80004882813
1234.78623114546	1388
1235.45293891572	1399.59997558594
1236.11956136583	1398
1236.78609850345	1400.40002441406
1237.45255033623	1426
1238.11891687182	1422.80004882813
1238.78519811788	1409.80004882813
1239.45139408205	1394.40002441406
1240.11750477198	1391.59997558594
1240.78353019534	1394.19995117188
1241.44947035976	1387.40002441406
1242.11532527291	1378.40002441406
1242.78109494242	1387.40002441406
1243.44677937595	1382.19995117188
1244.11237858115	1398
1244.77789256567	1394.19995117188
1245.44332133715	1385
1246.10866490325	1386.19995117188
1246.7739232716	1404.40002441406
1247.43909644987	1418.80004882813
1248.10418444569	1423.19995117188
1248.76918726671	1421.40002441406
1249.43410492059	1417.40002441406
1250.09893741496	1408.40002441406
1250.76368475747	1407
1251.42834695576	1398.59997558594
1252.09292401749	1403.40002441406
1252.75741595029	1400.80004882813
1253.42182276182	1383
1254.08614445971	1388.19995117188
1254.75038105161	1397.40002441406
1255.41453254515	1399.40002441406
1256.07859894799	1391.40002441406
1256.74258026777	1387.40002441406
1257.40647651213	1402
1258.0702876887	1399.40002441406
1258.73401380514	1407.40002441406
1259.39765486908	1405.19995117188
1260.06121088817	1398
1260.72468187004	1393.59997558594
1261.38806782233	1390.59997558594
1262.05136875269	1392.59997558594
1262.71458466875	1392.59997558594
1263.37771557815	1402.19995117188
1264.04076148854	1401.19995117188
1264.70372240753	1397.40002441406
1265.3665983428	1405.19995117188
1266.02938930195	1405.19995117188
1266.69209529263	1394.80004882813
1267.35471632249	1394
1268.01725239914	1401
1268.67970353024	1401.40002441406
1269.34206972342	1404.80004882813
1270.00435098631	1406
1270.66654732655	1402.80004882813
1271.32865875177	1392.19995117188
1271.9906852696	1397
1272.65262688768	1399
1273.31448361365	1413
1273.97625545514	1401
1274.63794241978	1398
1275.2995445152	1395.80004882813
1275.96106174903	1396.59997558594
1276.62249412892	1401.80004882813
1277.28384166248	1404.59997558594
1277.94510435735	1420.40002441406
1278.60628222116	1423.19995117188
1279.26737526155	1427.19995117188
1279.92838348613	1407.19995117188
1280.58930690255	1410.80004882813
1281.25014551842	1405
1281.91089934139	1390
1282.57156837907	1389.19995117188
1283.2321526391	1394
1283.89265212911	1404.40002441406
1284.55306685671	1400
1285.21339682955	1380
1285.87364205525	1393
1286.53380254142	1375.19995117188
1287.19387829571	1374.59997558594
1287.85386932573	1369.40002441406
1288.51377563911	1386.80004882813
1289.17359724348	1403
1289.83333414646	1398.59997558594
1290.49298635567	1395.19995117188
1291.15255387874	1402.40002441406
1291.8120367233	1405.80004882813
1292.47143489696	1409
1293.13074840736	1398
1293.7899772621	1403.80004882813
1294.44912146882	1386.59997558594
1295.10818103513	1387.80004882813
1295.76715596866	1390.59997558594
1296.42604627704	1379.40002441406
1297.08485196787	1396.19995117188
1297.74357304878	1390
1298.4022095274	1397.80004882813
1299.06076141134	1390.40002441406
1299.71922870821	1393
1300.37761142565	1389.80004882813
1301.03590957126	1408.40002441406
1301.69412315268	1410.59997558594
1302.3522521775	1415.19995117188
1303.01029665336	1405.40002441406
1303.66825658787	1402
1304.32613198865	1401.59997558594
1304.98392286332	1395.19995117188
1305.64162921948	1405.80004882813
1306.29925106476	1409
1306.95678840677	1417.40002441406
1307.61424125312	1412
1308.27160961145	1418.80004882813
1308.92889348934	1421.80004882813
1309.58609289443	1403.80004882813
1310.24320783432	1425.80004882813
1310.90023831664	1410.80004882813
1311.55718434898	1413
1312.21404593897	1420.59997558594
1312.87082309421	1415
1313.52751582233	1422.80004882813
1314.18412413092	1402
1314.84064802761	1407
1315.49708752	1402.40002441406
1316.1534426157	1407.59997558594
1316.80971332233	1413.59997558594
1317.46589964749	1403.40002441406
1318.1220015988	1413
1318.77801918386	1409.80004882813
1319.43395241028	1420.40002441406
1320.08980128567	1407.19995117188
1320.74556581764	1410.59997558594
1321.4012460138	1431.40002441406
1322.05684188176	1413.80004882813
1322.71235342911	1405.40002441406
1323.36778066347	1400.19995117188
1324.02312359245	1396.19995117188
1324.67838222365	1396.59997558594
1325.33355656468	1420
1325.98864662314	1405.80004882813
1326.64365240663	1418.59997558594
1327.29857392277	1391
1327.95341117915	1400.59997558594
1328.60816418339	1403.40002441406
1329.26283294308	1383.80004882813
1329.91741746582	1385.19995117188
1330.57191775923	1376.80004882813
1331.2263338309	1380
1331.88066568843	1377.40002441406
1332.53491333943	1380.19995117188
1333.1890767915	1372.59997558594
1333.84315605224	1381
1334.49715112925	1386
1335.15106203013	1397.59997558594
1335.80488876249	1394.40002441406
1336.45863133391	1389.80004882813
1337.112289752	1391.40002441406
1337.76586402437	1387.80004882813
1338.4193541586	1392.80004882813
1339.0727601623	1402.59997558594
1339.72608204306	1403.40002441406
1340.37931980849	1400.59997558594
1341.03247346617	1398.59997558594
1341.68554302372	1399
1342.33852848871	1400.80004882813
1342.99142986876	1396.19995117188
1343.64424717145	1395
1344.29698040438	1387
1344.94962957515	1397
1345.60219469135	1398.59997558594
1346.25467576058	1397.40002441406
1346.90707279042	1406.19995117188
1347.55938578848	1389.59997558594
1348.21161476235	1394.19995117188
1348.86375971962	1392.40002441406
1349.51582066787	1393.80004882813
1350.16779761472	1406.80004882813
1350.81969056774	1407.80004882813
1351.47149953453	1403.80004882813
1352.12322452269	1407.80004882813
1352.77486553979	1432
1353.42642259344	1426.40002441406
1354.07789569122	1437
1354.72928484072	1439.80004882813
1355.38059004953	1449.59997558594
1356.03181132525	1440
1356.68294867545	1453.19995117188
1357.33400210773	1446.40002441406
1357.98497162968	1454.19995117188
1358.63585724889	1433.80004882813
1359.28665897294	1428.59997558594
1359.93737680942	1440.80004882813
1360.58801076591	1435.80004882813
1361.23856085001	1453.19995117188
1361.88902706929	1436.19995117188
1362.53940943135	1458.19995117188
1363.18970794377	1460.80004882813
1363.83992261413	1452.59997558594
1364.49005345003	1445.19995117188
1365.14010045904	1451.59997558594
1365.79006364874	1455.40002441406
1366.43994302673	1434
1367.08973860058	1441.40002441406
1367.73945037788	1437
1368.38907836621	1443.80004882813
1369.03862257315	1428.80004882813
1369.68808300629	1423.80004882813
1370.3374596732	1411.19995117188
1370.98675258148	1409.19995117188
1371.63596173868	1416.19995117188
1372.28508715241	1413.19995117188
1372.93412883024	1396.80004882813
1373.58308677974	1404.59997558594
1374.2319610085	1392.59997558594
1374.8807515241	1392.80004882813
1375.52945833412	1377.80004882813
1376.17808144612	1377.40002441406
1376.82662086771	1374.59997558594
1377.47507660644	1373
1378.12344866989	1370.40002441406
1378.77173706565	1364
1379.41994180129	1366.19995117188
1380.06806288439	1363.80004882813
1380.71610032252	1373
1381.36405412326	1371.80004882813
1382.01192429419	1364.59997558594
1382.65971084287	1360.40002441406
1383.30741377688	1367.40002441406
1383.95503310381	1367.40002441406
1384.60256883121	1369.80004882813
1385.25002096667	1385.19995117188
1385.89738951775	1381.40002441406
1386.54467449204	1371.80004882813
1387.19187589709	1375.19995117188
1387.8389937405	1369
1388.48602802982	1369.19995117188
1389.13297877262	1362.19995117188
1389.77984597649	1375.59997558594
1390.42662964899	1372
1391.07332979768	1361.80004882813
1391.71994643015	1370.40002441406
1392.36647955395	1366.40002441406
1393.01292917667	1364.80004882813
1393.65929530586	1358.40002441406
1394.3055779491	1373.40002441406
1394.95177711395	1371.80004882813
1395.59789280799	1369.59997558594
1396.24392503877	1361
1396.88987381387	1369.80004882813
1397.53573914086	1364
1398.1815210273	1370.59997558594
1398.82721948075	1361
1399.47283450878	1374.40002441406
1400.11836611897	1370.40002441406
1400.76381431886	1371
1401.40917911603	1366.40002441406
1402.05446051805	1353
1402.69965853247	1361.40002441406
1403.34477316686	1362.80004882813
1403.98980442878	1353.19995117188
1404.6347523258	1354
1405.27961686548	1357.80004882813
1405.92439805538	1366.80004882813
1406.56909590306	1361.80004882813
1407.21371041608	1350.19995117188
1407.85824160202	1360
1408.50268946841	1356.19995117188
1409.14705402284	1355.19995117188
1409.79133527285	1348.19995117188
1410.43553322601	1347.19995117188
1411.07964788987	1351.59997558594
1411.723679272	1371.19995117188
1412.36762737996	1357.19995117188
1413.01149222129	1361.80004882813
1413.65527380357	1355
1414.29897213435	1362.40002441406
1414.94258722118	1367
1415.58611907163	1346.80004882813
1416.22956769325	1362
1416.87293309359	1364.19995117188
1417.51621528021	1361.40002441406
1418.15941426067	1365
1418.80253004253	1364.19995117188
1419.44556263333	1367
1420.08851204063	1367
1420.731378272	1358
1421.37416133497	1366.40002441406
1422.0168612371	1383.59997558594
1422.65947798596	1370.40002441406
1423.30201158908	1361.19995117188
1423.94446205403	1368.40002441406
1424.58682938835	1371
1425.2291135996	1353.80004882813
1425.87131469532	1366
1426.51343268308	1373.59997558594
1427.15546757042	1374.19995117188
1427.79741936488	1371.19995117188
1428.43928807403	1372.59997558594
1429.0810737054	1370
1429.72277626656	1374.80004882813
1430.36439576504	1368.59997558594
1431.00593220841	1361.80004882813
1431.64738560419	1349
1432.28875595995	1345.19995117188
1432.93004328324	1344
1433.57124758159	1335
1434.21236886255	1343.40002441406
1434.85340713368	1341.40002441406
1435.49436240252	1345.80004882813
1436.13523467661	1351.19995117188
1436.77602396349	1356
1437.41673027073	1358.19995117188
1438.05735360585	1368.40002441406
1438.69789397641	1369
1439.33835138994	1369.40002441406
1439.978725854	1367.59997558594
1440.61901737612	1352.40002441406
1441.25922596385	1370.59997558594
1441.89935162473	1360
1442.53939436631	1362.80004882813
1443.17935419612	1360.19995117188
1443.81923112171	1362.80004882813
1444.45902515061	1353.59997558594
1445.09873629038	1358.19995117188
1445.73836454854	1345.59997558594
1446.37790993265	1341
1447.01737245024	1353
1447.65675210885	1345.59997558594
1448.29604891602	1342.80004882813
1448.93526287928	1338.59997558594
1449.57439400618	1327.59997558594
1450.21344230426	1330.80004882813
1450.85240778105	1325.80004882813
1451.49129044409	1332.80004882813
1452.13009030092	1331.59997558594
1452.76880735907	1343.59997558594
1453.40744162608	1353.59997558594
1454.04599310949	1351.80004882813
1454.68446181683	1351.59997558594
1455.32284775564	1357.40002441406
1455.96115093345	1360.19995117188
1456.5993713578	1353
1457.23750903623	1352.40002441406
1457.87556397626	1346.40002441406
1458.51353618543	1341
1459.15142567127	1341.19995117188
1459.78923244132	1354.19995117188
1460.42695650311	1348.40002441406
1461.06459786417	1355.40002441406
1461.70215653203	1352.59997558594
1462.33963251423	1336.40002441406
1462.97702581829	1340
1463.61433645175	1329.59997558594
1464.25156442214	1343.40002441406
1464.88870973699	1346.19995117188
1465.52577240382	1346.40002441406
1466.16275243017	1345.40002441406
1466.79964982356	1340.40002441406
1467.43646459154	1350.19995117188
1468.07319674161	1351.80004882813
1468.70984628132	1349.59997558594
1469.34641321818	1349
1469.98289755974	1350.40002441406
1470.6192993135	1351.80004882813
1471.25561848701	1349.19995117188
1471.89185508779	1353.59997558594
1472.52800912336	1349
1473.16408060124	1335
1473.80006952897	1331
1474.43597591407	1340.80004882813
1475.07179976406	1329.59997558594
1475.70754108647	1332.40002441406
1476.34319988883	1336.80004882813
1476.97877617865	1334.80004882813
1477.61426996345	1346.59997558594
1478.24968125077	1339.59997558594
1478.88501004812	1362.40002441406
1479.52025636303	1356.40002441406
1480.15542020302	1351.59997558594
1480.79050157561	1349.40002441406
1481.42550048832	1353.59997558594
1482.06041694867	1348
1482.69525096418	1350
1483.33000254237	1349.40002441406
1483.96467169077	1341.19995117188
1484.59925841689	1342.59997558594
1485.23376272825	1337
1485.86818463237	1335
1486.50252413677	1351.59997558594
1487.13678124896	1344.19995117188
1487.77095597646	1347
1488.4050483268	1337.80004882813
1489.03905830749	1337.59997558594
1489.67298592604	1344.40002441406
1490.30683118996	1355.59997558594
1490.9405941068	1358.19995117188
1491.57427468403	1358.19995117188
1492.2078729292	1348.59997558594
1492.84138884981	1364.80004882813
1493.47482245338	1359.59997558594
1494.10817374742	1370.80004882813
1494.74144273944	1360
1495.37462943696	1367.80004882813
1496.0077338475	1351
1496.64075597856	1371
1497.27369583765	1358.40002441406
1497.9065534323	1362.19995117188
1498.53932877001	1350.80004882813
1499.17202185829	1336.80004882813
1499.80463270465	1344
1500.43716131661	1336.80004882813
1501.06960770167	1334.40002441406
1501.70197186735	1344.59997558594
1502.33425382116	1340
1502.96645357059	1345.59997558594
1503.59857112317	1354.59997558594
1504.23060648641	1363.40002441406
1504.8625596678	1351.80004882813
1505.49443067486	1363.40002441406
1506.1262195151	1365.19995117188
1506.75792619602	1351.80004882813
1507.38955072513	1349.59997558594
1508.02109310993	1365
1508.65255335794	1370.80004882813
1509.28393147666	1372.80004882813
1509.91522747359	1365
1510.54644135624	1357.19995117188
1511.17757313212	1352.80004882813
1511.80862280872	1348.19995117188
1512.43959039356	1352.40002441406
1513.07047589413	1350.19995117188
1513.70127931795	1350.40002441406
1514.33200067251	1357.40002441406
1514.96263996531	1357.80004882813
1515.59319720386	1361.40002441406
1516.22367239567	1357.19995117188
1516.85406554822	1354.59997558594
1517.48437666903	1343.59997558594
1518.1146057656	1348.40002441406
1518.74475284542	1349.59997558594
1519.374817916	1341.19995117188
1520.00480098483	1349.59997558594
1520.63470205942	1339
1521.26452114726	1344
1521.89425825586	1339.40002441406
1522.52391339271	1341
1523.15348656531	1329
1523.78297778116	1329.40002441406
1524.41238704775	1325.59997558594
1525.04171437259	1338
1525.67095976317	1331.19995117188
1526.30012322699	1328
1526.92920477154	1337.19995117188
1527.55820440432	1330.40002441406
1528.18712213283	1325.19995117188
1528.81595796455	1330
1529.44471190699	1316.80004882813
1530.07338396764	1312
1530.70197415399	1313
1531.33048247353	1293.40002441406
1531.95890893377	1306.40002441406
1532.58725354219	1305.19995117188
1533.21551630629	1307.19995117188
1533.84369723356	1324.40002441406
1534.47179633148	1315.19995117188
1535.09981360757	1333.80004882813
1535.72774906929	1324.80004882813
1536.35560272415	1338.19995117188
1536.98337457963	1326.59997558594
1537.61106464323	1326.80004882813
1538.23867292243	1320.19995117188
1538.86619942473	1336
1539.49364415762	1335.59997558594
1540.12100712857	1337.59997558594
1540.74828834509	1337.19995117188
1541.37548781466	1346.40002441406
1542.00260554478	1346.59997558594
1542.62964154291	1324.59997558594
1543.25659581655	1325.19995117188
1543.8834683732	1325.19995117188
1544.51025922034	1318.40002441406
1545.13696836544	1312
1545.76359581601	1308.40002441406
1546.39014157952	1296.59997558594
1547.01660566345	1303.19995117188
1547.64298807531	1297.59997558594
1548.26928882255	1303.19995117188
1548.89550791269	1307.19995117188
1549.52164535318	1303.80004882813
1550.14770115153	1315.80004882813
1550.77367531521	1310.80004882813
1551.39956785171	1313.19995117188
1552.0253787685	1302
1552.65110807307	1311.40002441406
1553.2767557729	1314.19995117188
1553.90232187548	1318
1554.52780638828	1310.19995117188
1555.15320931879	1304.40002441406
1555.77853067447	1313.19995117188
1556.40377046282	1310.80004882813
1557.02892869132	1319.40002441406
1557.65400536744	1324
1558.27900049866	1319.19995117188
1558.90391409247	1321
1559.52874615633	1321.80004882813
1560.15349669773	1318
1560.77816572414	1324.59997558594
1561.40275324305	1324.40002441406
1562.02725926192	1323
1562.65168378824	1329
1563.27602682948	1329.59997558594
1563.90028839311	1336.40002441406
1564.52446848662	1331.40002441406
1565.14856711748	1335.59997558594
1565.77258429316	1322.80004882813
1566.39652002113	1332.40002441406
1567.02037430887	1331.59997558594
1567.64414716387	1323.19995117188
1568.26783859357	1338
1568.89144860547	1327.80004882813
1569.51497720703	1324
1570.13842440573	1325.19995117188
1570.76179020904	1314.80004882813
1571.38507462442	1322.80004882813
1572.00827765936	1320.59997558594
1572.63139932132	1330.59997558594
1573.25443961777	1331.19995117188
1573.87739855618	1317.80004882813
1574.50027614402	1319.40002441406
1575.12307238877	1319.40002441406
1575.74578729789	1318.59997558594
1576.36842087885	1324.40002441406
1576.99097313912	1315.59997558594
1577.61344408616	1325.19995117188
1578.23583372745	1327.40002441406
1578.85814207046	1324.80004882813
1579.48036912264	1326.19995117188
1580.10251489147	1319.80004882813
1580.72457938441	1313.59997558594
1581.34656260893	1295.19995117188
1581.9684645725	1298
1582.59028528258	1307
1583.21202474663	1314.80004882813
1583.83368297212	1314
1584.45525996652	1322.40002441406
1585.07675573728	1319
1585.69817029188	1314
1586.31950363778	1316.80004882813
1586.94075578243	1311.19995117188
1587.5619267333	1306.80004882813
1588.18301649786	1295.40002441406
1588.80402508357	1292
1589.42495249788	1280.80004882813
1590.04579874826	1294
1590.66656384217	1282
1591.28724778707	1285.80004882813
1591.90785059042	1278
1592.52837225968	1276
1593.14881280232	1263
1593.76917222578	1258.80004882813
1594.38945053753	1268.80004882813
1595.00964774502	1272.80004882813
1595.62976385573	1268.19995117188
1596.24979887709	1280
1596.86975281657	1277.19995117188
1597.48962568164	1285.59997558594
1598.10941747974	1289.19995117188
1598.72912821832	1280.59997558594
1599.34875790486	1282.80004882813
1599.9683065468	1281.40002441406
1600.58777415159	1283.19995117188
1601.2071607267	1281.19995117188
1601.82646627958	1271.80004882813
1602.44569081769	1272.59997558594
1603.06483434846	1269.59997558594
1603.68389687937	1279.80004882813
1604.30287841786	1273.40002441406
1604.92177897139	1264.40002441406
1605.54059854741	1276.19995117188
1606.15933715337	1266.40002441406
1606.77799479672	1271
1607.39657148492	1266
1608.01506722542	1260
1608.63348202566	1255.19995117188
1609.2518158931	1268.59997558594
1609.87006883519	1256
1610.48824085939	1261.40002441406
1611.10633197312	1262.80004882813
1611.72434218386	1251.80004882813
1612.34227149904	1262.59997558594
1612.96011992612	1253.19995117188
1613.57788747254	1252.19995117188
1614.19557414575	1251.19995117188
1614.8131799532	1235
1615.43070490234	1247.59997558594
1616.04814900061	1260
1616.66551225545	1254.80004882813
1617.28279467433	1258.19995117188
1617.89999626467	1246.19995117188
1618.51711703393	1251.59997558594
1619.13415698955	1259.59997558594
1619.75111613898	1260.80004882813
1620.36799448966	1258.80004882813
1620.98479204903	1252.80004882813
1621.60150882455	1260.80004882813
1622.21814482364	1267.40002441406
1622.83470005376	1261.59997558594
1623.45117452235	1261
1624.06756823685	1260.19995117188
1624.6838812047	1258.19995117188
1625.30011343335	1258.59997558594
1625.91626493022	1257.59997558594
1626.53233570278	1254.80004882813
1627.14832575845	1254.40002441406
1627.76423510468	1253.59997558594
1628.38006374891	1252.80004882813
1628.99581169857	1261.80004882813
1629.61147896111	1256.59997558594
1630.22706554397	1272.80004882813
1630.84257145457	1265.59997558594
1631.45799670038	1266
1632.07334128881	1255
1632.6886052273	1250
1633.3037885233	1234.59997558594
1633.91889118425	1231.59997558594
1634.53391321757	1234.19995117188
1635.1488546307	1234.19995117188
1635.76371543108	1228.80004882813
1636.37849562616	1230.59997558594
1636.99319522335	1231.19995117188
1637.60781423009	1229
1638.22235265383	1224.80004882813
1638.83681050198	1222.19995117188
1639.451187782	1232.80004882813
1640.0654845013	1248.40002441406
1640.67970066734	1235.40002441406
1641.29383628752	1245.80004882813
1641.9078913693	1249.19995117188
1642.5218659201	1261.19995117188
1643.13575994735	1259.19995117188
1643.74957345849	1255.40002441406
1644.36330646094	1255.80004882813
1644.97695896213	1250.80004882813
1645.59053096951	1248
1646.20402249049	1265.59997558594
1646.8174335325	1266
1647.43076410298	1264.80004882813
1648.04401420935	1264.40002441406
1648.65718385905	1277.59997558594
1649.2702730595	1282.19995117188
1649.88328181812	1298
1650.49621014236	1282.19995117188
1651.10905803963	1285.59997558594
1651.72182551735	1278.40002441406
1652.33451258297	1272.19995117188
1652.9471192439	1272.80004882813
1653.55964550757	1257.19995117188
1654.1720913814	1250.80004882813
1654.78445687283	1253.80004882813
1655.39674198926	1258.59997558594
1656.00894673814	1251.40002441406
1656.62107112688	1254.19995117188
1657.23311516291	1243.19995117188
1657.84507885365	1236.19995117188
1658.45696220652	1225.40002441406
1659.06876522895	1233.19995117188
1659.68048792835	1223.80004882813
1660.29213031217	1227.80004882813
1660.90369238779	1235
1661.51517416267	1229.19995117188
1662.12657564421	1228.19995117188
1662.73789683984	1237.19995117188
1663.34913775697	1225.80004882813
1663.96029840303	1222
1664.57137878544	1223.80004882813
1665.18237891161	1209
1665.79329878897	1214.59997558594
1666.40413842493	1204.59997558594
1667.01489782691	1210.80004882813
1667.62557700233	1212
1668.2361759586	1206.59997558594
1668.84669470315	1211.59997558594
1669.4571332434	1221.19995117188
1670.06749158675	1219.40002441406
1670.67776974062	1208.59997558594
1671.28796771243	1208.59997558594
1671.8980855096	1211.59997558594
1672.50812313954	1204.80004882813
1673.11808060967	1205
1673.72795792739	1202
1674.33775510013	1198.59997558594
1674.9474721353	1205.80004882813
1675.55710904031	1198.59997558594
1676.16666582257	1197
1676.7761424895	1202.19995117188
1677.38553904851	1195
1677.99485550702	1199
1678.60409187243	1196.59997558594
1679.21324815215	1191.40002441406
1679.8223243536	1198.19995117188
1680.43132048419	1183.19995117188
1681.04023655132	1182
1681.64907256241	1185
1682.25782852487	1173.59997558594
1682.86650444611	1177.40002441406
1683.47510033353	1169
1684.08361619455	1173.40002441406
1684.69205203657	1171.59997558594
1685.300407867	1162.80004882813
1685.90868369325	1171.19995117188
1686.51687952272	1177.19995117188
1687.12499536283	1170.19995117188
1687.73303122098	1167.80004882813
1688.34098710457	1166.40002441406
1688.94886302101	1161.59997558594
1689.55665897772	1170.19995117188
1690.16437498208	1153.59997558594
1690.77201104152	1162.59997558594
1691.37956716342	1154
1691.9870433552	1152.40002441406
1692.59443962426	1162.40002441406
1693.20175597801	1156
1693.80899242384	1150.80004882813
1694.41614896916	1158
1695.02322562138	1160.40002441406
1695.63022238789	1169.40002441406
1696.23713927609	1172.19995117188
1696.8439762934	1164.59997558594
1697.4507334472	1172.59997558594
1698.05741074491	1166
1698.66400819391	1161.80004882813
1699.27052580161	1154.59997558594
1699.87696357542	1139.80004882813
1700.48332152272	1146.19995117188
1701.08959965092	1148.80004882813
1701.69579796742	1143
1702.30191647962	1142.80004882813
1702.90795519491	1144.80004882813
1703.51391412069	1142.19995117188
1704.11979326437	1154.40002441406
1704.72559263332	1148.80004882813
1705.33131223496	1143.40002441406
1705.93695207668	1149.59997558594
1706.54251216588	1140.59997558594
1707.14799250994	1131.80004882813
1707.75339311628	1131.59997558594
1708.35871399227	1124
1708.96395514532	1126
1709.56911658282	1121.80004882813
