634.948122577771	1299.80004882813
635.690341530823	1294.19995117188
636.43246851086	1299.19995117188
637.174503525845	1294.80004882813
637.916446583745	1307.19995117188
638.658297692538	1307.59997558594
639.400056860179	1309.80004882813
640.141724094637	1312.40002441406
640.883299403885	1324.59997558594
641.62478279588	1321.59997558594
642.366174278594	1327.80004882813
643.107473859989	1335.19995117188
643.848681548029	1344.19995117188
644.589797350679	1353.80004882813
645.330821275901	1344.19995117188
646.071753331665	1345.40002441406
646.812593525922	1334.80004882813
647.553341866646	1340.40002441406
648.293998361798	1328.40002441406
649.03456301933	1327.80004882813
649.775035847216	1313.80004882813
650.515416853409	1327.80004882813
651.255706045874	1331.59997558594
651.995903432568	1333.19995117188
652.736009021453	1341.80004882813
653.476022820486	1347.80004882813
654.215944837629	1345.59997558594
654.955775080842	1342.40002441406
655.695513558081	1334.40002441406
656.435160277301	1330.19995117188
657.174715246465	1323.40002441406
657.914178473527	1335.80004882813
658.653549966449	1342.40002441406
659.392829733176	1344
660.132017781678	1343.19995117188
660.871114119901	1334.40002441406
661.610118755803	1345.40002441406
662.349031697343	1336.19995117188
663.087852952468	1342.59997558594
663.826582529139	1341
664.565220435305	1333
665.30376667892	1337
666.04222126794	1345.40002441406
666.780584210316	1330.19995117188
667.518855514	1331.80004882813
668.25703518694	1339.80004882813
668.995123237096	1344.19995117188
669.733119672413	1342.40002441406
670.471024500842	1336.40002441406
671.208837730333	1340.40002441406
671.946559368839	1344.40002441406
672.684189424308	1322
673.421727904689	1315.40002441406
674.159174817929	1311
674.896530171977	1301.40002441406
675.633793974786	1303.59997558594
676.370966234295	1305.59997558594
677.108046958461	1319.19995117188
677.845036155219	1308
678.581933832528	1315.80004882813
679.318739998323	1329.80004882813
680.055454660558	1347
680.792077827172	1358.40002441406
681.528609506116	1368.40002441406
682.265049705331	1368.80004882813
683.001398432759	1348.80004882813
683.737655696349	1350
684.47382150404	1353.19995117188
685.20989586378	1337.59997558594
685.945878783503	1343
686.68177027116	1334.19995117188
687.417570334688	1342.19995117188
688.153278982032	1343.40002441406
688.888896221129	1364.80004882813
689.624422059921	1347.80004882813
690.359856506349	1355.80004882813
691.095199568354	1348.59997558594
691.830451253874	1350.40002441406
692.565611570844	1354.80004882813
693.300680527212	1350
694.03565813091	1338.40002441406
694.770544389877	1350
695.505339312053	1335.19995117188
696.240042905372	1345.19995117188
696.974655177772	1342.80004882813
697.70917613719	1338.40002441406
698.443605791561	1340.40002441406
699.177944148826	1339.80004882813
699.912191216909	1342.19995117188
700.646347003755	1336.40002441406
701.380411517295	1344.80004882813
702.114384765465	1335
702.848266756195	1347.80004882813
703.582057497421	1358.80004882813
704.315756997074	1358.80004882813
705.049365263089	1366.59997558594
705.782882303399	1361.40002441406
706.516308125936	1371
707.249642738626	1360
707.982886149403	1369.80004882813
708.716038366204	1359.80004882813
709.449099396949	1361.19995117188
710.182069249577	1363.19995117188
710.914947932009	1355.40002441406
711.647735452181	1352.80004882813
712.380431818022	1351.40002441406
713.113037037454	1354.80004882813
713.845551118411	1348.80004882813
714.577974068818	1334.19995117188
715.310305896604	1343.40002441406
716.042546609694	1343.80004882813
716.774696216013	1345
717.506754723493	1360
718.238722140053	1369
718.970598473624	1364.80004882813
719.702383732127	1361.59997558594
720.43407792349	1346.19995117188
721.165681055634	1354.59997558594
721.897193136486	1364.80004882813
722.628614173966	1365.40002441406
723.359944175997	1369.40002441406
724.091183150505	1374.80004882813
724.822331105412	1367.19995117188
725.553388048638	1365.19995117188
726.284353988106	1356.19995117188
727.015228931734	1364.59997558594
727.746012887449	1369.40002441406
728.476705863162	1384.80004882813
729.207307866803	1385
729.937818906289	1393
730.668238989535	1381.19995117188
731.398568124459	1379.59997558594
732.128806318986	1365.19995117188
732.858953581034	1360.40002441406
733.589009918514	1353.19995117188
734.318975339348	1366.40002441406
735.048849851452	1354
735.778633462744	1362.80004882813
736.508326181137	1357
737.237928014549	1349.59997558594
737.967438970897	1359.59997558594
738.696859058095	1351.19995117188
739.426188284054	1365.59997558594
740.155426656692	1355
740.884574183922	1350.59997558594
741.613630873659	1355.80004882813
742.342596733815	1355.80004882813
743.071471772302	1362.40002441406
743.800255997034	1368.19995117188
744.528949415921	1366.80004882813
745.257552036877	1356.40002441406
745.986063867811	1352.19995117188
746.714484916638	1356.19995117188
747.442815191261	1359.59997558594
748.171054699597	1363
748.899203449554	1350
749.627261449039	1339.80004882813
750.355228705966	1357
751.083105228239	1349.19995117188
751.810891023765	1361.40002441406
752.538586100459	1364.59997558594
753.266190466218	1371
753.99370412896	1383.40002441406
754.721127096582	1372.40002441406
755.448459377	1371
756.175700978114	1365
756.902851907828	1372.59997558594
757.629912174055	1355.80004882813
758.356881784688	1352.19995117188
759.083760747639	1368.59997558594
759.810549070817	1370.80004882813
760.537246762113	1367.80004882813
761.263853829442	1387.19995117188
761.990370280698	1388.80004882813
762.716796123791	1382.40002441406
763.443131366618	1385.80004882813
764.169376017082	1378.19995117188
764.895530083085	1375.59997558594
765.621593572527	1376.80004882813
766.347566493312	1387.80004882813
767.073448853336	1396.80004882813
767.799240660502	1404.59997558594
768.524941922707	1404.40002441406
769.250552647854	1403.40002441406
769.976072843836	1410.59997558594
770.701502518551	1422.80004882813
771.426841679905	1429
772.152090335793	1438.40002441406
772.877248494107	1446.40002441406
773.602316162747	1445.80004882813
774.327293349609	1444.40002441406
775.052180062592	1438.80004882813
775.776976309589	1424.19995117188
776.501682098496	1425.59997558594
777.226297437206	1425.40002441406
777.950822333616	1422.59997558594
778.675256795621	1411.19995117188
779.399600831111	1413
780.123854447983	1414.19995117188
780.84801765413	1400
781.572090457441	1390.19995117188
782.296072865811	1390.80004882813
783.019964887131	1392.80004882813
783.743766529297	1390.19995117188
784.467477800194	1392.80004882813
785.191098707719	1387.80004882813
785.914629259756	1366.40002441406
786.638069464194	1370.59997558594
787.361419328932	1369.80004882813
788.084678861852	1364
788.807848070845	1366.40002441406
789.530926963798	1373.59997558594
790.253915548602	1355.80004882813
790.976813833144	1365.19995117188
791.699621825307	1367.40002441406
792.422339532986	1379.80004882813
793.144966964061	1373.40002441406
793.86750412642	1375
794.589951027946	1381.40002441406
795.312307676536	1377.40002441406
796.03457408006	1379.80004882813
796.756750246417	1381.40002441406
797.478836183477	1363.59997558594
798.200831899137	1363.19995117188
798.92273740127	1361.80004882813
799.644552697769	1354.59997558594
800.36627779651	1364.40002441406
801.087912705374	1374
801.809457432251	1381
802.530911985017	1365.59997558594
803.252276371558	1381.19995117188
803.973550599748	1367.19995117188
804.694734677472	1374.19995117188
805.415828612611	1372.80004882813
806.136832413045	1371.80004882813
806.857746086646	1376.19995117188
807.578569641305	1379.40002441406
808.299303084892	1371.40002441406
809.019946425289	1365.59997558594
809.740499670372	1377.59997558594
810.460962828022	1385.19995117188
811.181335906114	1383.80004882813
811.901618912524	1374.59997558594
812.621811855131	1373.80004882813
813.341914741809	1368.19995117188
814.061927580433	1355.19995117188
814.781850378881	1370
815.501683145025	1360.40002441406
816.221425886743	1361.59997558594
816.941078611903	1369.59997558594
817.660641328387	1368.19995117188
818.380114044065	1357.19995117188
819.099496766808	1348.80004882813
819.818789504492	1365
820.53799226499	1352.40002441406
821.257105056168	1364.40002441406
821.976127885904	1356.40002441406
822.695060762064	1368.40002441406
823.413903692525	1372.59997558594
824.132656685151	1379
824.851319747817	1368
825.569892888388	1368.59997558594
826.288376114739	1372.40002441406
827.006769434737	1374.80004882813
827.725072856249	1374.59997558594
828.443286387142	1369.19995117188
829.161410035285	1353.59997558594
829.87944380855	1361.40002441406
830.597387714798	1358.59997558594
831.315241761898	1360.80004882813
832.033005957715	1373.59997558594
832.750680310119	1378.19995117188
833.468264826969	1379.19995117188
834.18575951614	1377.59997558594
834.903164385486	1374.59997558594
835.620479442878	1366.80004882813
836.337704696181	1380.80004882813
837.054840153255	1379.80004882813
837.771885821962	1387.59997558594
838.488841710172	1380.19995117188
839.20570782574	1379.59997558594
839.922484176531	1376.19995117188
840.639170770409	1380.80004882813
841.355767615231	1383.59997558594
842.072274718864	1372.19995117188
842.788692089164	1364.40002441406
843.505019733993	1367
844.221257661209	1373.19995117188
844.937405878676	1385.80004882813
845.65346439425	1372.19995117188
846.369433215789	1366.40002441406
847.085312351156	1366.80004882813
847.801101808205	1364
848.516801594793	1366.19995117188
849.232411718781	1360.80004882813
849.947932188021	1362.40002441406
850.663363010376	1365.59997558594
851.378704193698	1356
852.093955745842	1371
852.809117674669	1374.40002441406
853.524189988028	1381.40002441406
854.239172693778	1368
854.954065799768	1368.40002441406
855.668869313857	1378.40002441406
856.383583243899	1364.40002441406
857.098207597743	1357.40002441406
857.812742383246	1358.19995117188
858.527187608255	1372
859.241543280628	1349.59997558594
859.955809408218	1358.59997558594
860.669985998868	1360
861.384073060437	1366.59997558594
862.098070600772	1365.80004882813
862.811978627724	1379.19995117188
863.52579714914	1370.40002441406
864.239526172873	1378.19995117188
864.953165706776	1373.80004882813
865.666715758687	1367.40002441406
866.380176336464	1372.40002441406
867.093547447951	1367.59997558594
867.806829100996	1369.80004882813
868.520021303444	1371.40002441406
869.233124063149	1358.40002441406
869.94613738795	1360.80004882813
870.659061285693	1356.19995117188
871.37189576423	1348.80004882813
872.084640831403	1362.40002441406
872.797296495057	1358.80004882813
873.509862763039	1363.19995117188
874.22233964319	1372
874.934727143353	1360.59997558594
875.647025271374	1364.80004882813
876.359234035097	1365
877.071353442361	1380.40002441406
877.783383501015	1361.59997558594
878.495324218895	1361.80004882813
879.207175603844	1373.80004882813
879.918937663705	1371.80004882813
880.630610406318	1381
881.342193839524	1390
882.053687971161	1370.59997558594
882.765092809069	1372.80004882813
883.476408361091	1382
884.187634635066	1363.80004882813
884.898771638828	1354.80004882813
885.609819380221	1352.19995117188
886.320777867076	1357.80004882813
887.031647107236	1346.59997558594
887.742427108536	1348.59997558594
888.453117878816	1350.19995117188
889.16371942591	1352
889.874231757652	1352
890.584654881883	1348.19995117188
891.294988806434	1341.19995117188
892.005233539141	1349.19995117188
892.715389087837	1349
893.42545546036	1349.80004882813
894.135432664543	1353.40002441406
894.845320708216	1356.80004882813
895.555119599216	1366
896.264829345375	1366.19995117188
896.974449954526	1370.40002441406
897.683981434496	1385.59997558594
898.393423793125	1373.59997558594
899.102777038235	1379.40002441406
899.812041177664	1385.19995117188
900.521216219239	1383.40002441406
901.230302170793	1361
901.939299040155	1375.40002441406
902.64820683515	1385.19995117188
903.357025563612	1383.59997558594
904.065755233368	1386.40002441406
904.774395852247	1383.40002441406
905.482947428076	1370.19995117188
906.191409968682	1375
906.899783481897	1384.59997558594
907.608067975538	1370.59997558594
908.316263457443	1386.59997558594
909.02436993543	1374.80004882813
909.732387417327	1386
910.440315910959	1381.40002441406
911.148155424154	1364
911.855905964731	1363
912.563567540521	1361.59997558594
913.271140159339	1364.19995117188
913.978623829017	1365.80004882813
914.686018557374	1369.59997558594
915.393324352237	1368
916.100541221421	1373.19995117188
916.807669172752	1369
917.514708214054	1375.19995117188
918.221658353142	1384
918.928519597843	1384.80004882813
919.635291955976	1372.80004882813
920.341975435358	1371
921.048570043813	1349.19995117188
921.75507578916	1356.19995117188
922.461492679212	1358.19995117188
923.167820721795	1364.19995117188
923.874059924726	1351.80004882813
924.58021029582	1349.19995117188
925.286271842893	1356.80004882813
925.992244573769	1359
926.698128496262	1364.59997558594
927.403923618184	1365.19995117188
928.109629947355	1357.19995117188
928.815247491593	1360.40002441406
929.520776258708	1370.59997558594
930.226216256519	1375.80004882813
930.931567492841	1376.59997558594
931.636829975482	1361.80004882813
932.342003712263	1382.19995117188
933.047088710995	1368
933.752084979491	1370.59997558594
934.456992525564	1363.40002441406
935.161811357024	1371.19995117188
935.866541481688	1345.59997558594
936.571182907363	1351
937.275735641861	1335.19995117188
937.980199692995	1337.59997558594
938.684575068572	1344.59997558594
939.388861776411	1341.59997558594
940.093059824311	1350.19995117188
940.797169220085	1351.80004882813
941.501189971544	1358.80004882813
942.205122086495	1355
942.908965572751	1356.40002441406
943.612720438111	1363
944.316386690391	1347.80004882813
945.019964337391	1349.59997558594
945.723453386924	1350.80004882813
946.426853846795	1353
947.130165724808	1354.40002441406
947.83338902877	1345.40002441406
948.536523766488	1349
949.239569945764	1348
949.942527574402	1347.59997558594
950.64539666021	1338.59997558594
951.348177210993	1359.40002441406
952.050869234548	1344.19995117188
952.753472738683	1355.59997558594
953.455987731199	1344.80004882813
954.158414219898	1340.19995117188
954.860752212587	1340.59997558594
955.563001717061	1348.19995117188
956.265162741124	1354.80004882813
956.967235292576	1352.19995117188
957.669219379224	1357
958.371115008857	1352.40002441406
959.072922189283	1346.59997558594
959.774640928301	1344.40002441406
960.476271233708	1329.19995117188
961.177813113301	1339.80004882813
961.879266574882	1334.59997558594
962.580631626248	1327.80004882813
963.281908275194	1331.40002441406
963.98309652952	1332.80004882813
964.684196397022	1331
965.3852078855	1337.80004882813
966.086131002745	1350.80004882813
966.786965756555	1365
967.487712154726	1364.19995117188
968.188370205055	1354.59997558594
968.888939915331	1357.59997558594
969.589421293352	1365.40002441406
970.289814346909	1362.19995117188
970.990119083801	1365.40002441406
971.690335511819	1356.19995117188
972.39046363875	1363.19995117188
973.090503472398	1345.19995117188
973.790455020545	1350
974.490318290987	1360.59997558594
975.190093291516	1364.59997558594
975.889780029923	1358
976.589378513998	1355.19995117188
977.288888751527	1361.80004882813
977.988310750308	1369.80004882813
978.687644518122	1372.40002441406
979.386890062767	1358.59997558594
980.086047392025	1352.80004882813
980.785116513689	1344.40002441406
981.484097435542	1346.19995117188
982.182990165377	1354
982.88179471098	1339.40002441406
983.580511080137	1348.40002441406
984.279139280632	1346.19995117188
984.977679320253	1344.80004882813
985.67613120679	1351.19995117188
986.374494948027	1344.59997558594
987.072770551745	1343.19995117188
987.770958025731	1349.80004882813
988.469057377772	1348.19995117188
989.167068615649	1346.80004882813
989.864991747145	1347.80004882813
990.562826780047	1345.40002441406
991.260573722134	1331.80004882813
991.958232581195	1333.19995117188
992.655803365003	1329
993.353286081346	1322.19995117188
994.050680738006	1329.59997558594
994.74798734276	1321.59997558594
995.44520590339	1345
996.142336427681	1362.59997558594
996.839378923407	1357.19995117188
997.536333398348	1361
998.233199860289	1352.40002441406
998.929978317004	1341.80004882813
999.626668776274	1343
1000.32327124587	1346.80004882813
1001.01978573359	1340.59997558594
1001.71621224718	1341.40002441406
1002.41255079445	1330.40002441406
1003.10880138315	1337.40002441406
1003.80496402107	1334.80004882813
1004.50103871599	1341.59997558594
1005.19702547567	1348.80004882813
1005.8929243079	1356.59997558594
1006.58873522045	1364.19995117188
1007.2844582211	1371.59997558594
1007.98009331761	1374.80004882813
1008.67564051776	1369
1009.37109982933	1363.19995117188
1010.06647126009	1361.19995117188
1010.7617548178	1363.80004882813
1011.45695051026	1358
1012.15205834522	1360.19995117188
1012.84707833045	1352.80004882813
1013.54201047373	1355.19995117188
1014.23685478284	1352
1014.93161126553	1353.19995117188
1015.62627992959	1346.19995117188
1016.32086078277	1346.19995117188
1017.01535383285	1345.80004882813
1017.70975908761	1337.80004882813
1018.40407655479	1338.80004882813
1019.09830624219	1340.19995117188
1019.79244815755	1334.40002441406
1020.48650230866	1342
1021.18046870328	1340.19995117188
1021.87434734917	1332.40002441406
1022.56813825411	1330.19995117188
1023.26184142584	1349
1023.95545687216	1339.59997558594
1024.64898460082	1342.40002441406
1025.34242461957	1339.80004882813
1026.0357769362	1332.19995117188
1026.72904155846	1344.80004882813
1027.42221849412	1338.59997558594
1028.11530775094	1343.80004882813
1028.80830933668	1346.59997558594
1029.50122325911	1348.80004882813
1030.19404952599	1347.19995117188
1030.88678814508	1359.59997558594
1031.57943912414	1345.19995117188
1032.27200247093	1345.19995117188
1032.96447819323	1328.19995117188
1033.65686629878	1337.59997558594
1034.34916679534	1336
1035.04137969068	1335.80004882813
1035.73350499256	1329.40002441406
1036.42554270874	1345
1037.11749284697	1331.80004882813
1037.80935541501	1326.19995117188
1038.50113042062	1329.19995117188
1039.19281787156	1341.59997558594
1039.88441777559	1340.40002441406
1040.57593014046	1332
1041.26735497393	1333.19995117188
1041.95869228376	1338
1042.6499420777	1353.59997558594
1043.3411043635	1348
1044.03217914893	1332.80004882813
1044.72316644174	1338
1045.41406624968	1343.59997558594
1046.1048785805	1339.59997558594
1046.79560344197	1345.59997558594
1047.48624084182	1333.80004882813
1048.17679078783	1335.59997558594
1048.86725328774	1331.80004882813
1049.55762834929	1328
1050.24791598025	1314.59997558594
1050.93811618837	1319.80004882813
1051.62822898139	1326
1052.31825436707	1336.40002441406
1053.00819235315	1330.40002441406
1053.6980429474	1318
1054.38780615755	1323.59997558594
1055.07748199136	1323.59997558594
1055.76707045658	1321.19995117188
1056.45657156095	1321
1057.14598531222	1328.59997558594
1057.83531171814	1320.80004882813
1058.52455078646	1311.40002441406
1059.21370252494	1316.59997558594
1059.90276694129	1312.19995117188
1060.5917440433	1324.80004882813
1061.28063383868	1329.19995117188
1061.9694363352	1349.40002441406
1062.65815154059	1345.19995117188
1063.34677946261	1349.40002441406
1064.03532010899	1340.40002441406
1064.72377348748	1326.19995117188
1065.41213960583	1316.19995117188
1066.10041847177	1316.19995117188
1066.78861009306	1311.40002441406
1067.47671447743	1309.59997558594
1068.16473163263	1315.19995117188
1068.85266156639	1307
1069.54050428647	1311.40002441406
1070.2282598006	1319.80004882813
1070.91592811652	1327.80004882813
1071.60350924198	1326
1072.29100318471	1329.80004882813
1072.97840995245	1326.19995117188
1073.66572955295	1327
1074.35296199394	1312
1075.04010728316	1322.80004882813
1075.72716542836	1319.80004882813
1076.41413643726	1318.19995117188
1077.10102031761	1317.80004882813
1077.78781707715	1315.59997558594
1078.4745267236	1330.19995117188
1079.16114926471	1339.80004882813
1079.84768470822	1349.80004882813
1080.53413306185	1342.80004882813
1081.22049433336	1339.19995117188
1081.90676853046	1326.80004882813
1082.5929556609	1336.59997558594
1083.27905573241	1339
1083.96506875272	1337.59997558594
1084.65099472957	1336.19995117188
1085.3368336707	1325.19995117188
1086.02258558383	1330
1086.70825047669	1320.59997558594
1087.39382835703	1319
1088.07931923257	1312.19995117188
1088.76472311104	1311
1089.45004000018	1322
1090.13526990771	1331.40002441406
1090.82041284137	1320.19995117188
1091.50546880889	1330.80004882813
1092.19043781799	1335.40002441406
1092.87531987642	1349.59997558594
1093.56011499188	1345.59997558594
1094.24482317212	1345
1094.92944442486	1327.59997558594
1095.61397875783	1324.59997558594
1096.29842617876	1325.40002441406
1096.98278669537	1323.19995117188
1097.6670603154	1314
1098.35124704656	1309.40002441406
1099.03534689659	1316.40002441406
1099.71935987322	1314.59997558594
1100.40328598416	1321.19995117188
1101.08712523713	1314.40002441406
1101.77087763988	1330
1102.45454320012	1334.59997558594
1103.13812192557	1341.59997558594
1103.82161382396	1349
1104.50501890301	1342.19995117188
1105.18833717045	1353.40002441406
1105.87156863399	1332.19995117188
1106.55471330137	1329.40002441406
1107.2377711803	1323.59997558594
1107.9207422785	1320.80004882813
1108.60362660369	1326.59997558594
1109.2864241636	1329.40002441406
1109.96913496594	1336.59997558594
1110.65175901844	1334
1111.33429632882	1329.19995117188
1112.01674690479	1328.19995117188
1112.69911075408	1326
1113.38138788439	1328.80004882813
1114.06357830346	1327.40002441406
1114.745682019	1338
1115.42769903872	1326
1116.10962937035	1339.80004882813
1116.7914730216	1344.59997558594
1117.47323000018	1344.19995117188
1118.15490031382	1344.59997558594
1118.83648397022	1345
1119.51798097712	1344.19995117188
1120.1993913422	1332
1120.88071507321	1330.19995117188
1121.56195217784	1338
1122.24310266381	1332.40002441406
1122.92416653884	1325
1123.60514381064	1324
1124.28603448692	1335
1124.9668385754	1323.19995117188
1125.64755608378	1340.19995117188
1126.32818701978	1332.40002441406
1127.00873139111	1336.19995117188
1127.68918920548	1338.59997558594
1128.3695604706	1345.19995117188
1129.04984519419	1348.40002441406
1129.73004338394	1343.59997558594
1130.41015504758	1340.59997558594
1131.09018019281	1330.59997558594
1131.77011882734	1334
1132.44997095888	1332.80004882813
1133.12973659514	1326.59997558594
1133.80941574381	1339.19995117188
1134.48900841263	1332.80004882813
1135.16851460927	1326.19995117188
1135.84793434147	1328
1136.52726761692	1329.19995117188
1137.20651444333	1325.19995117188
1137.8856748284	1323.80004882813
1138.56474877984	1305.80004882813
1139.24373630536	1309.19995117188
1139.92263741265	1303.40002441406
1140.60145210943	1305
1141.28018040339	1305.40002441406
1141.95882230225	1321.40002441406
1142.6373778137	1315
1143.31584694545	1315.59997558594
1143.99422970519	1324.40002441406
1144.67252610064	1314.59997558594
1145.35073613949	1339.59997558594
1146.02885982944	1316.40002441406
1146.7068971782	1312.80004882813
1147.38484819347	1323.80004882813
1148.06271288294	1306.80004882813
1148.74049125432	1306
1149.41818331531	1313.19995117188
1150.0957890736	1322.19995117188
1150.77330853689	1317.40002441406
1151.45074171289	1327.40002441406
1152.12808860928	1325.80004882813
1152.80534923378	1318
1153.48252359407	1319.19995117188
1154.15961169786	1320
1154.83661355283	1310
1155.51352916669	1316
1156.19035854713	1308.80004882813
1156.86710170185	1303.59997558594
1157.54375863855	1307.80004882813
1158.22032936491	1308.40002441406
1158.89681388863	1305.59997558594
1159.57321221741	1307.40002441406
1160.24952435894	1311.40002441406
1160.92575032092	1323.19995117188
1161.60189011103	1330.80004882813
1162.27794373697	1328.59997558594
1162.95391120644	1319.40002441406
1163.62979252712	1329.40002441406
1164.3055877067	1329.59997558594
1164.98129675288	1330.80004882813
1165.65691967336	1324
1166.33245647581	1335
1167.00790716792	1330.19995117188
1167.6832717574	1328.59997558594
1168.35855025193	1325.80004882813
1169.0337426592	1319.40002441406
1169.70884898689	1319
1170.3838692427	1312.40002441406
1171.05880343431	1315
1171.73365156941	1314.59997558594
1172.40841365569	1309.80004882813
1173.08308970083	1320.59997558594
1173.75767971253	1327.40002441406
1174.43218369847	1329.19995117188
1175.10660166633	1320.59997558594
1175.7809336238	1325.19995117188
1176.45517957857	1313.40002441406
1177.12933953832	1306.59997558594
1177.80341351073	1311.59997558594
1178.47740150349	1312.80004882813
1179.15130352429	1317.59997558594
1179.8251195808	1330
1180.49884968071	1348.19995117188
1181.1724938317	1352.59997558594
1181.84605204145	1340.80004882813
1182.51952431766	1351.59997558594
1183.19291066799	1339.19995117188
1183.86621110013	1330.80004882813
1184.53942562176	1342
1185.21255424057	1333.80004882813
1185.88559696422	1333.59997558594
1186.55855380041	1325.19995117188
1187.2314247568	1316.40002441406
1187.90420984109	1340.80004882813
1188.57690906095	1334.40002441406
1189.24952242405	1336.80004882813
1189.92204993808	1338.19995117188
1190.59449161071	1322.80004882813
1191.26684744962	1326.19995117188
1191.93911746249	1322.19995117188
1192.61130165699	1323.59997558594
1193.28340004081	1324.40002441406
1193.95541262161	1322.40002441406
1194.62733940707	1319.80004882813
1195.29918040487	1326.80004882813
1195.97093562269	1323
1196.64260506819	1316.19995117188
1197.31418874905	1312.80004882813
1197.98568667295	1324.40002441406
1198.65709884755	1329.80004882813
1199.32842528053	1335
1199.99966597957	1335
1200.67082095234	1325
1201.3418902065	1317.80004882813
1202.01287374974	1313.59997558594
1202.68377158971	1309.59997558594
1203.3545837341	1315.59997558594
1204.02531019057	1308
1204.6959509668	1316.80004882813
1205.36650607045	1299.80004882813
1206.03697550919	1313
1206.70735929069	1326.40002441406
1207.37765742263	1315.80004882813
1208.04786991266	1327.19995117188
1208.71799676846	1324.19995117188
1209.38803799769	1320.40002441406
1210.05799360803	1323.80004882813
1210.72786360714	1314
1211.39764800268	1327
1212.06734680233	1323.59997558594
1212.73696001375	1314
1213.4064876446	1305.59997558594
1214.07592970255	1305.19995117188
1214.74528619526	1314
1215.4145571304	1316.80004882813
1216.08374251564	1330.59997558594
1216.75284235863	1324.40002441406
1217.42185666704	1306.19995117188
1218.09078544854	1316.19995117188
1218.75962871078	1309
1219.42838646143	1299.19995117188
1220.09705870816	1299.19995117188
1220.76564545861	1286
1221.43414672046	1297.19995117188
1222.10256250136	1310.19995117188
1222.77089280898	1317.19995117188
1223.43913765098	1319
1224.107297035	1318.80004882813
1224.77537096873	1321.40002441406
1225.44335945981	1328.19995117188
1226.1112625159	1316.40002441406
1226.77908014467	1316.59997558594
1227.44681235376	1311.40002441406
1228.11445915085	1310
1228.78202054357	1320.40002441406
1229.44949653961	1322.80004882813
1230.11688714659	1315.19995117188
1230.7841923722	1311.19995117188
1231.45141222407	1302.59997558594
1232.11854670988	1296.80004882813
1232.78559583726	1285.40002441406
1233.45255961388	1293.59997558594
1234.1194380474	1301
1234.78623114546	1298.19995117188
1235.45293891572	1295.80004882813
1236.11956136583	1301
1236.78609850345	1306.80004882813
1237.45255033623	1317.80004882813
1238.11891687182	1312.19995117188
1238.78519811788	1308.59997558594
1239.45139408205	1313.19995117188
1240.11750477198	1303.59997558594
1240.78353019534	1301.19995117188
1241.44947035976	1298.19995117188
1242.11532527291	1286.80004882813
1242.78109494242	1295.59997558594
1243.44677937595	1302
1244.11237858115	1289.59997558594
1244.77789256567	1288.80004882813
1245.44332133715	1303.80004882813
1246.10866490325	1299
1246.7739232716	1308.80004882813
1247.43909644987	1316.40002441406
1248.10418444569	1316.80004882813
1248.76918726671	1326.19995117188
1249.43410492059	1316.19995117188
1250.09893741496	1310.59997558594
1250.76368475747	1309.59997558594
1251.42834695576	1296.80004882813
1252.09292401749	1300.40002441406
1252.75741595029	1310.59997558594
1253.42182276182	1292.59997558594
1254.08614445971	1290
1254.75038105161	1294.59997558594
1255.41453254515	1292
1256.07859894799	1296
1256.74258026777	1293
1257.40647651213	1300.59997558594
1258.0702876887	1294.40002441406
1258.73401380514	1291.59997558594
1259.39765486908	1291
1260.06121088817	1293.19995117188
1260.72468187004	1286.40002441406
1261.38806782233	1287.19995117188
1262.05136875269	1293.80004882813
1262.71458466875	1297.59997558594
1263.37771557815	1292
1264.04076148854	1300.19995117188
1264.70372240753	1301.80004882813
1265.3665983428	1295
1266.02938930195	1301
1266.69209529263	1301.19995117188
1267.35471632249	1302.80004882813
1268.01725239914	1305.40002441406
1268.67970353024	1294
1269.34206972342	1290.40002441406
1270.00435098631	1299.40002441406
1270.66654732655	1297.19995117188
1271.32865875177	1292.40002441406
1271.9906852696	1297.59997558594
1272.65262688768	1291.59997558594
1273.31448361365	1299
1273.97625545514	1299.19995117188
1274.63794241978	1301.19995117188
1275.2995445152	1303.40002441406
1275.96106174903	1301.80004882813
1276.62249412892	1296.80004882813
1277.28384166248	1302.59997558594
1277.94510435735	1312.19995117188
1278.60628222116	1315.19995117188
1279.26737526155	1311.40002441406
1279.92838348613	1317
1280.58930690255	1302.80004882813
1281.25014551842	1296
1281.91089934139	1295.19995117188
1282.57156837907	1291
1283.2321526391	1283.19995117188
1283.89265212911	1297.59997558594
1284.55306685671	1285.19995117188
1285.21339682955	1284.40002441406
1285.87364205525	1280.80004882813
1286.53380254142	1264.80004882813
1287.19387829571	1266.59997558594
1287.85386932573	1277.40002441406
1288.51377563911	1285.80004882813
1289.17359724348	1286.59997558594
1289.83333414646	1292.40002441406
1290.49298635567	1291
1291.15255387874	1309
1291.8120367233	1297.59997558594
1292.47143489696	1297.80004882813
1293.13074840736	1291.19995117188
1293.7899772621	1297.80004882813
1294.44912146882	1298
1295.10818103513	1292.80004882813
1295.76715596866	1284
1296.42604627704	1281.40002441406
1297.08485196787	1287
1297.74357304878	1280
1298.4022095274	1283.40002441406
1299.06076141134	1292
1299.71922870821	1300
1300.37761142565	1294.40002441406
1301.03590957126	1308
1301.69412315268	1312.40002441406
1302.3522521775	1307
1303.01029665336	1309.80004882813
1303.66825658787	1317
1304.32613198865	1313.59997558594
1304.98392286332	1293.19995117188
1305.64162921948	1313
1306.29925106476	1306.40002441406
1306.95678840677	1306.19995117188
1307.61424125312	1313
1308.27160961145	1307.59997558594
1308.92889348934	1309
1309.58609289443	1296.80004882813
1310.24320783432	1304.40002441406
1310.90023831664	1314.19995117188
1311.55718434898	1315.80004882813
1312.21404593897	1316.40002441406
1312.87082309421	1313.59997558594
1313.52751582233	1311.40002441406
1314.18412413092	1313.19995117188
1314.84064802761	1313
1315.49708752	1306
1316.1534426157	1298.80004882813
1316.80971332233	1296
1317.46589964749	1299.80004882813
1318.1220015988	1311.19995117188
1318.77801918386	1304.19995117188
1319.43395241028	1317.40002441406
1320.08980128567	1301.19995117188
1320.74556581764	1311.40002441406
1321.4012460138	1300
1322.05684188176	1303.80004882813
1322.71235342911	1299.80004882813
1323.36778066347	1304.80004882813
1324.02312359245	1286.59997558594
1324.67838222365	1294.40002441406
1325.33355656468	1294.40002441406
1325.98864662314	1305.40002441406
1326.64365240663	1292.59997558594
1327.29857392277	1297.19995117188
1327.95341117915	1289.80004882813
1328.60816418339	1286.40002441406
1329.26283294308	1288.59997558594
1329.91741746582	1275.40002441406
1330.57191775923	1269.80004882813
1331.2263338309	1275.59997558594
1331.88066568843	1271.40002441406
1332.53491333943	1273
1333.1890767915	1272.80004882813
1333.84315605224	1278.80004882813
1334.49715112925	1288.59997558594
1335.15106203013	1289.40002441406
1335.80488876249	1281
1336.45863133391	1280.19995117188
1337.112289752	1280.19995117188
1337.76586402437	1281.40002441406
1338.4193541586	1287.40002441406
1339.0727601623	1282
1339.72608204306	1281.40002441406
1340.37931980849	1276
1341.03247346617	1280.59997558594
1341.68554302372	1302.40002441406
1342.33852848871	1287.40002441406
1342.99142986876	1286.59997558594
1343.64424717145	1284.59997558594
1344.29698040438	1290.59997558594
1344.94962957515	1293.19995117188
1345.60219469135	1281.80004882813
1346.25467576058	1282.59997558594
1346.90707279042	1294
1347.55938578848	1292
1348.21161476235	1301.40002441406
1348.86375971962	1291.19995117188
1349.51582066787	1288.19995117188
1350.16779761472	1290.40002441406
1350.81969056774	1305
1351.47149953453	1306.40002441406
1352.12322452269	1303
1352.77486553979	1322
1353.42642259344	1317.80004882813
1354.07789569122	1330
1354.72928484072	1339
1355.38059004953	1344
1356.03181132525	1346.59997558594
1356.68294867545	1347
1357.33400210773	1361
1357.98497162968	1347
1358.63585724889	1337.59997558594
1359.28665897294	1340.59997558594
1359.93737680942	1335.40002441406
1360.58801076591	1337.40002441406
1361.23856085001	1346.80004882813
1361.88902706929	1342
1362.53940943135	1350.19995117188
1363.18970794377	1346.59997558594
1363.83992261413	1345.59997558594
1364.49005345003	1341.19995117188
1365.14010045904	1336.80004882813
1365.79006364874	1335
1366.43994302673	1340.80004882813
1367.08973860058	1332
1367.73945037788	1337.80004882813
1368.38907836621	1337.40002441406
1369.03862257315	1319
1369.68808300629	1322.19995117188
1370.3374596732	1313.80004882813
1370.98675258148	1310.59997558594
1371.63596173868	1306.59997558594
1372.28508715241	1322.19995117188
1372.93412883024	1304.40002441406
1373.58308677974	1290.59997558594
1374.2319610085	1290.19995117188
1374.8807515241	1290.80004882813
1375.52945833412	1275.40002441406
1376.17808144612	1285.40002441406
1376.82662086771	1274
1377.47507660644	1272.19995117188
1378.12344866989	1271.59997558594
1378.77173706565	1262.40002441406
1379.41994180129	1271
1380.06806288439	1270.80004882813
1380.71610032252	1271.80004882813
1381.36405412326	1274
1382.01192429419	1267.80004882813
1382.65971084287	1267.19995117188
1383.30741377688	1259.59997558594
1383.95503310381	1262.19995117188
1384.60256883121	1265
1385.25002096667	1270.19995117188
1385.89738951775	1276.40002441406
1386.54467449204	1280.59997558594
1387.19187589709	1275
1387.8389937405	1267.19995117188
1388.48602802982	1268.19995117188
1389.13297877262	1262.59997558594
1389.77984597649	1273.40002441406
1390.42662964899	1278.59997558594
1391.07332979768	1267.40002441406
1391.71994643015	1267
1392.36647955395	1263.80004882813
1393.01292917667	1261.40002441406
1393.65929530586	1273.59997558594
1394.3055779491	1275.19995117188
1394.95177711395	1275.40002441406
1395.59789280799	1263
1396.24392503877	1273
1396.88987381387	1264
1397.53573914086	1260
1398.1815210273	1263.80004882813
1398.82721948075	1268.19995117188
1399.47283450878	1281.59997558594
1400.11836611897	1267.59997558594
1400.76381431886	1273.19995117188
1401.40917911603	1276.80004882813
1402.05446051805	1253.59997558594
1402.69965853247	1253
1403.34477316686	1255.59997558594
1403.98980442878	1256
1404.6347523258	1259.19995117188
1405.27961686548	1260.80004882813
1405.92439805538	1265
1406.56909590306	1265.19995117188
1407.21371041608	1268.40002441406
1407.85824160202	1261.59997558594
1408.50268946841	1257
1409.14705402284	1247.80004882813
1409.79133527285	1255.19995117188
1410.43553322601	1253.59997558594
1411.07964788987	1264.59997558594
1411.723679272	1255
1412.36762737996	1259
1413.01149222129	1260.19995117188
1413.65527380357	1275.40002441406
1414.29897213435	1266.59997558594
1414.94258722118	1264.19995117188
1415.58611907163	1261.80004882813
1416.22956769325	1255
1416.87293309359	1265
1417.51621528021	1259.59997558594
1418.15941426067	1270.80004882813
1418.80253004253	1267.19995117188
1419.44556263333	1265.80004882813
1420.08851204063	1274.40002441406
1420.731378272	1269
1421.37416133497	1279.19995117188
1422.0168612371	1274.59997558594
1422.65947798596	1272.80004882813
1423.30201158908	1272.59997558594
1423.94446205403	1259.19995117188
1424.58682938835	1260
1425.2291135996	1268.59997558594
1425.87131469532	1271.80004882813
1426.51343268308	1272.80004882813
1427.15546757042	1283
1427.79741936488	1274.19995117188
1428.43928807403	1275.80004882813
1429.0810737054	1280.59997558594
1429.72277626656	1273
1430.36439576504	1267
1431.00593220841	1254
1431.64738560419	1258.40002441406
1432.28875595995	1248.59997558594
1432.93004328324	1248.40002441406
1433.57124758159	1246
1434.21236886255	1252
1434.85340713368	1257
1435.49436240252	1252.80004882813
1436.13523467661	1264.59997558594
1436.77602396349	1265.59997558594
1437.41673027073	1262.80004882813
1438.05735360585	1269.59997558594
1438.69789397641	1260.59997558594
1439.33835138994	1275
1439.978725854	1270
1440.61901737612	1267.19995117188
1441.25922596385	1269.59997558594
1441.89935162473	1262.59997558594
1442.53939436631	1265.40002441406
1443.17935419612	1260.19995117188
1443.81923112171	1265.40002441406
1444.45902515061	1247.80004882813
1445.09873629038	1237.40002441406
1445.73836454854	1249.40002441406
1446.37790993265	1244.19995117188
1447.01737245024	1248.59997558594
1447.65675210885	1253.59997558594
1448.29604891602	1248.80004882813
1448.93526287928	1245.40002441406
1449.57439400618	1241.59997558594
1450.21344230426	1240.19995117188
1450.85240778105	1244.80004882813
1451.49129044409	1242.40002441406
1452.13009030092	1248.59997558594
1452.76880735907	1260.59997558594
1453.40744162608	1257.59997558594
1454.04599310949	1254.59997558594
1454.68446181683	1259.40002441406
1455.32284775564	1277.40002441406
1455.96115093345	1259.40002441406
1456.5993713578	1262.59997558594
1457.23750903623	1263.19995117188
1457.87556397626	1249.40002441406
1458.51353618543	1260.80004882813
1459.15142567127	1264.40002441406
1459.78923244132	1254
1460.42695650311	1270
1461.06459786417	1268.80004882813
1461.70215653203	1255.40002441406
1462.33963251423	1261.19995117188
1462.97702581829	1252.80004882813
1463.61433645175	1246.19995117188
1464.25156442214	1244.59997558594
1464.88870973699	1257
1465.52577240382	1254.19995117188
1466.16275243017	1264
1466.79964982356	1260.40002441406
1467.43646459154	1252
1468.07319674161	1258.19995117188
1468.70984628132	1266
1469.34641321818	1269.80004882813
1469.98289755974	1262.40002441406
1470.6192993135	1256.40002441406
1471.25561848701	1260
1471.89185508779	1255.40002441406
1472.52800912336	1256.80004882813
1473.16408060124	1256.19995117188
1473.80006952897	1255.59997558594
1474.43597591407	1243
1475.07179976406	1239.80004882813
1475.70754108647	1236.40002441406
1476.34319988883	1238.40002441406
1476.97877617865	1243.59997558594
1477.61426996345	1249.19995117188
1478.24968125077	1252.59997558594
1478.88501004812	1261.19995117188
1479.52025636303	1261.19995117188
1480.15542020302	1259.80004882813
1480.79050157561	1251.59997558594
1481.42550048832	1258.80004882813
1482.06041694867	1261.40002441406
1482.69525096418	1262
1483.33000254237	1254.59997558594
1483.96467169077	1266.40002441406
1484.59925841689	1252.19995117188
1485.23376272825	1253.19995117188
1485.86818463237	1261
1486.50252413677	1253.59997558594
1487.13678124896	1255.19995117188
1487.77095597646	1253.19995117188
1488.4050483268	1252.80004882813
1489.03905830749	1246
1489.67298592604	1261.19995117188
1490.30683118996	1264.59997558594
1490.9405941068	1260
1491.57427468403	1261
1492.2078729292	1263
1492.84138884981	1271.59997558594
1493.47482245338	1259
1494.10817374742	1257.80004882813
1494.74144273944	1252.40002441406
1495.37462943696	1262.19995117188
1496.0077338475	1261.19995117188
1496.64075597856	1265
1497.27369583765	1264.19995117188
1497.9065534323	1268.19995117188
1498.53932877001	1248
1499.17202185829	1254
1499.80463270465	1239.40002441406
1500.43716131661	1246.80004882813
1501.06960770167	1237.80004882813
1501.70197186735	1255.19995117188
1502.33425382116	1256
1502.96645357059	1252.40002441406
1503.59857112317	1264.19995117188
1504.23060648641	1263
1504.8625596678	1256
1505.49443067486	1263
1506.1262195151	1271.40002441406
1506.75792619602	1265
1507.38955072513	1272.59997558594
1508.02109310993	1271.19995117188
1508.65255335794	1283.40002441406
1509.28393147666	1274.59997558594
1509.91522747359	1275
1510.54644135624	1256
1511.17757313212	1253.40002441406
1511.80862280872	1251.59997558594
1512.43959039356	1263.19995117188
1513.07047589413	1253.19995117188
1513.70127931795	1251.40002441406
1514.33200067251	1253.80004882813
1514.96263996531	1264
1515.59319720386	1253.59997558594
1516.22367239567	1264
1516.85406554822	1267.80004882813
1517.48437666903	1250.80004882813
1518.1146057656	1247.80004882813
1518.74475284542	1242.19995117188
1519.374817916	1249.40002441406
1520.00480098483	1252.59997558594
1520.63470205942	1252.59997558594
1521.26452114726	1250.40002441406
1521.89425825586	1243
1522.52391339271	1241.19995117188
1523.15348656531	1231.80004882813
1523.78297778116	1234.19995117188
1524.41238704775	1244.19995117188
1525.04171437259	1230.80004882813
1525.67095976317	1239.40002441406
1526.30012322699	1228.19995117188
1526.92920477154	1237.40002441406
1527.55820440432	1237.80004882813
1528.18712213283	1232
1528.81595796455	1230.59997558594
1529.44471190699	1225.40002441406
1530.07338396764	1227.40002441406
1530.70197415399	1215.19995117188
1531.33048247353	1223.19995117188
1531.95890893377	1217.40002441406
1532.58725354219	1220.80004882813
1533.21551630629	1231
1533.84369723356	1226
1534.47179633148	1229.40002441406
1535.09981360757	1235
1535.72774906929	1236.19995117188
1536.35560272415	1237.80004882813
1536.98337457963	1232.80004882813
1537.61106464323	1248.40002441406
1538.23867292243	1255
1538.86619942473	1247.80004882813
1539.49364415762	1256.59997558594
1540.12100712857	1255
1540.74828834509	1245
1541.37548781466	1256.19995117188
1542.00260554478	1253.59997558594
1542.62964154291	1249.80004882813
1543.25659581655	1233.80004882813
1543.8834683732	1236.19995117188
1544.51025922034	1225.19995117188
1545.13696836544	1230
1545.76359581601	1218.40002441406
1546.39014157952	1217.80004882813
1547.01660566345	1217.80004882813
1547.64298807531	1205.80004882813
1548.26928882255	1220.40002441406
1548.89550791269	1225
1549.52164535318	1215
1550.14770115153	1218.80004882813
1550.77367531521	1220.40002441406
1551.39956785171	1230.80004882813
1552.0253787685	1215.40002441406
1552.65110807307	1228.40002441406
1553.2767557729	1225.40002441406
1553.90232187548	1232.19995117188
1554.52780638828	1222.59997558594
1555.15320931879	1221
1555.77853067447	1229.40002441406
1556.40377046282	1237.19995117188
1557.02892869132	1237.40002441406
1557.65400536744	1235
1558.27900049866	1238.40002441406
1558.90391409247	1230.80004882813
1559.52874615633	1232
1560.15349669773	1239.59997558594
1560.77816572414	1233
1561.40275324305	1231.19995117188
1562.02725926192	1228.40002441406
1562.65168378824	1228.40002441406
1563.27602682948	1232.80004882813
1563.90028839311	1242.59997558594
1564.52446848662	1242
1565.14856711748	1248.59997558594
1565.77258429316	1239.80004882813
1566.39652002113	1239.59997558594
1567.02037430887	1238.80004882813
1567.64414716387	1242.59997558594
1568.26783859357	1254.59997558594
1568.89144860547	1253.59997558594
1569.51497720703	1242.80004882813
1570.13842440573	1224.40002441406
1570.76179020904	1240.59997558594
1571.38507462442	1238.80004882813
1572.00827765936	1248.80004882813
1572.63139932132	1241.19995117188
1573.25443961777	1242.40002441406
1573.87739855618	1243.19995117188
1574.50027614402	1224.80004882813
1575.12307238877	1228.80004882813
1575.74578729789	1232
1576.36842087885	1234
1576.99097313912	1229.59997558594
1577.61344408616	1223
1578.23583372745	1240.59997558594
1578.85814207046	1234.40002441406
1579.48036912264	1240.80004882813
1580.10251489147	1233.59997558594
1580.72457938441	1226.19995117188
1581.34656260893	1212.59997558594
1581.9684645725	1222.80004882813
1582.59028528258	1220.59997558594
1583.21202474663	1232.80004882813
1583.83368297212	1225.40002441406
1584.45525996652	1231.19995117188
1585.07675573728	1232.80004882813
1585.69817029188	1223.19995117188
1586.31950363778	1220.80004882813
1586.94075578243	1223
1587.5619267333	1213.40002441406
1588.18301649786	1210.19995117188
1588.80402508357	1211
1589.42495249788	1203.40002441406
1590.04579874826	1201.59997558594
1590.66656384217	1205.19995117188
1591.28724778707	1202.40002441406
1591.90785059042	1189.40002441406
1592.52837225968	1189.59997558594
1593.14881280232	1184.59997558594
1593.76917222578	1185.19995117188
1594.38945053753	1188.59997558594
1595.00964774502	1191.19995117188
1595.62976385573	1194.80004882813
1596.24979887709	1204.40002441406
1596.86975281657	1198.59997558594
1597.48962568164	1216.40002441406
1598.10941747974	1203.19995117188
1598.72912821832	1209.19995117188
1599.34875790486	1201.80004882813
1599.9683065468	1210.80004882813
1600.58777415159	1208.59997558594
1601.2071607267	1204.40002441406
1601.82646627958	1206
1602.44569081769	1202
1603.06483434846	1199.19995117188
1603.68389687937	1194.19995117188
1604.30287841786	1190.80004882813
1604.92177897139	1187.59997558594
1605.54059854741	1190.19995117188
1606.15933715337	1197
1606.77799479672	1188.19995117188
1607.39657148492	1179.59997558594
1608.01506722542	1191.40002441406
1608.63348202566	1193.19995117188
1609.2518158931	1189.59997558594
1609.87006883519	1184
1610.48824085939	1181.59997558594
1611.10633197312	1193.19995117188
1611.72434218386	1182.40002441406
1612.34227149904	1187.19995117188
1612.96011992612	1183.59997558594
1613.57788747254	1186.80004882813
1614.19557414575	1179.40002441406
1614.8131799532	1173
1615.43070490234	1175.59997558594
1616.04814900061	1177.40002441406
1616.66551225545	1174.59997558594
1617.28279467433	1184.59997558594
1617.89999626467	1187.80004882813
1618.51711703393	1188.40002441406
1619.13415698955	1183.80004882813
1619.75111613898	1184.19995117188
1620.36799448966	1182.59997558594
1620.98479204903	1184
1621.60150882455	1191.40002441406
1622.21814482364	1187
1622.83470005376	1189.80004882813
1623.45117452235	1192
1624.06756823685	1194.40002441406
1624.6838812047	1198.40002441406
1625.30011343335	1188.19995117188
1625.91626493022	1183.59997558594
1626.53233570278	1191.59997558594
1627.14832575845	1191.59997558594
1627.76423510468	1197
1628.38006374891	1200
1628.99581169857	1196.59997558594
1629.61147896111	1190
1630.22706554397	1197
1630.84257145457	1194.40002441406
1631.45799670038	1194.19995117188
1632.07334128881	1193
1632.6886052273	1177
1633.3037885233	1180.19995117188
1633.91889118425	1177
1634.53391321757	1180.80004882813
1635.1488546307	1178.59997558594
1635.76371543108	1172
1636.37849562616	1169
1636.99319522335	1168.40002441406
1637.60781423009	1166.19995117188
1638.22235265383	1166.40002441406
1638.83681050198	1181.19995117188
1639.451187782	1175.19995117188
1640.0654845013	1183
1640.67970066734	1176.59997558594
1641.29383628752	1186.80004882813
1641.9078913693	1189.40002441406
1642.5218659201	1184.40002441406
1643.13575994735	1192.40002441406
1643.74957345849	1199
1644.36330646094	1202.80004882813
1644.97695896213	1191.40002441406
1645.59053096951	1195
1646.20402249049	1194.80004882813
1646.8174335325	1192.59997558594
1647.43076410298	1199.80004882813
1648.04401420935	1203.19995117188
1648.65718385905	1210.80004882813
1649.2702730595	1211
1649.88328181812	1212.80004882813
1650.49621014236	1227
1651.10905803963	1217
1651.72182551735	1210.40002441406
1652.33451258297	1203.40002441406
1652.9471192439	1209.19995117188
1653.55964550757	1211
1654.1720913814	1206.40002441406
1654.78445687283	1203
1655.39674198926	1200.80004882813
1656.00894673814	1201.80004882813
1656.62107112688	1190.19995117188
1657.23311516291	1183.80004882813
1657.84507885365	1186
1658.45696220652	1177
1659.06876522895	1166
1659.68048792835	1173.59997558594
1660.29213031217	1171.19995117188
1660.90369238779	1176
1661.51517416267	1175
1662.12657564421	1176.40002441406
1662.73789683984	1167.59997558594
1663.34913775697	1169.80004882813
1663.96029840303	1168.80004882813
1664.57137878544	1158.80004882813
1665.18237891161	1157.40002441406
1665.79329878897	1152.19995117188
1666.40413842493	1156.59997558594
1667.01489782691	1151
1667.62557700233	1157.59997558594
1668.2361759586	1160.19995117188
1668.84669470315	1163.19995117188
1669.4571332434	1159.19995117188
1670.06749158675	1162.59997558594
1670.67776974062	1169.40002441406
1671.28796771243	1154.40002441406
1671.8980855096	1159.19995117188
1672.50812313954	1157.59997558594
1673.11808060967	1156
1673.72795792739	1141
1674.33775510013	1146.59997558594
1674.9474721353	1162.59997558594
1675.55710904031	1152.59997558594
1676.16666582257	1147.40002441406
1676.7761424895	1149.40002441406
1677.38553904851	1146
1677.99485550702	1144.19995117188
1678.60409187243	1136.40002441406
1679.21324815215	1139
1679.8223243536	1137.59997558594
1680.43132048419	1134.40002441406
1681.04023655132	1131.19995117188
1681.64907256241	1131.19995117188
1682.25782852487	1135.80004882813
1682.86650444611	1138.19995117188
1683.47510033353	1126.59997558594
1684.08361619455	1121.19995117188
1684.69205203657	1130.40002441406
1685.300407867	1120.40002441406
1685.90868369325	1119.40002441406
1686.51687952272	1121.80004882813
1687.12499536283	1120.19995117188
1687.73303122098	1129.59997558594
1688.34098710457	1123.40002441406
1688.94886302101	1121.80004882813
1689.55665897772	1118.59997558594
1690.16437498208	1113.40002441406
1690.77201104152	1104.59997558594
1691.37956716342	1111.19995117188
1691.9870433552	1111.40002441406
1692.59443962426	1111.40002441406
1693.20175597801	1109.80004882813
1693.80899242384	1112.59997558594
1694.41614896916	1123.80004882813
1695.02322562138	1115.59997558594
1695.63022238789	1118.40002441406
1696.23713927609	1116.19995117188
1696.8439762934	1120
1697.4507334472	1121.59997558594
1698.05741074491	1111.19995117188
1698.66400819391	1109.19995117188
1699.27052580161	1113.80004882813
1699.87696357542	1108.19995117188
1700.48332152272	1103.40002441406
1701.08959965092	1098.59997558594
1701.69579796742	1104
1702.30191647962	1103.19995117188
1702.90795519491	1101.59997558594
1703.51391412069	1103.40002441406
1704.11979326437	1110.59997558594
1704.72559263332	1108.40002441406
1705.33131223496	1103
1705.93695207668	1106
1706.54251216588	1097
1707.14799250994	1098.59997558594
1707.75339311628	1095.59997558594
1708.35871399227	1086.19995117188
1708.96395514532	1096.40002441406
1709.56911658282	1089.19995117188
