634.948122577771	876.599975585938
635.690341530823	876.599975585938
636.43246851086	874
637.174503525845	874.200012207031
637.916446583745	875.599975585938
638.658297692538	873.799987792969
639.400056860179	871.799987792969
640.141724094637	875.200012207031
640.883299403885	874.799987792969
641.62478279588	873
642.366174278594	874.200012207031
643.107473859989	876.200012207031
643.848681548029	874.599975585938
644.589797350679	875.400024414063
645.330821275901	875.200012207031
646.071753331665	874.200012207031
646.812593525922	874.400024414063
647.553341866646	874.400024414063
648.293998361798	874.799987792969
649.03456301933	874.599975585938
649.775035847216	876.599975585938
650.515416853409	875.599975585938
651.255706045874	875.200012207031
651.995903432568	875.799987792969
652.736009021453	874.599975585938
653.476022820486	873.799987792969
654.215944837629	874.200012207031
654.955775080842	876.400024414063
655.695513558081	876
656.435160277301	874
657.174715246465	875
657.914178473527	873.799987792969
658.653549966449	877.200012207031
659.392829733176	876.200012207031
660.132017781678	876
660.871114119901	876.200012207031
661.610118755803	876.400024414063
662.349031697343	876.200012207031
663.087852952468	874.799987792969
663.826582529139	876.200012207031
664.565220435305	876.200012207031
665.30376667892	875.200012207031
666.04222126794	874.599975585938
666.780584210316	873.599975585938
667.518855514	875.200012207031
668.25703518694	877.200012207031
668.995123237096	877
669.733119672413	875.599975585938
670.471024500842	875.799987792969
671.208837730333	875
671.946559368839	876.599975585938
672.684189424308	879
673.421727904689	877.400024414063
674.159174817929	877.400024414063
674.896530171977	874
675.633793974786	875.400024414063
676.370966234295	876.400024414063
677.108046958461	876.599975585938
677.845036155219	877.400024414063
678.581933832528	879.599975585938
679.318739998323	879
680.055454660558	877.400024414063
680.792077827172	879
681.528609506116	878.200012207031
682.265049705331	877.599975585938
683.001398432759	877
683.737655696349	877.200012207031
684.47382150404	880.799987792969
685.20989586378	878.200012207031
685.945878783503	878.799987792969
686.68177027116	880
687.417570334688	880.599975585938
688.153278982032	882.599975585938
688.888896221129	882
689.624422059921	879.400024414063
690.359856506349	880.799987792969
691.095199568354	882.200012207031
691.830451253874	879.799987792969
692.565611570844	877.599975585938
693.300680527212	876.400024414063
694.03565813091	879.400024414063
694.770544389877	878.200012207031
695.505339312053	879.799987792969
696.240042905372	875.200012207031
696.974655177772	875.200012207031
697.70917613719	874.400024414063
698.443605791561	875.799987792969
699.177944148826	875.799987792969
699.912191216909	877.400024414063
700.646347003755	875.200012207031
701.380411517295	875.799987792969
702.114384765465	874.400024414063
702.848266756195	876.200012207031
703.582057497421	873.200012207031
704.315756997074	873.400024414063
705.049365263089	874.599975585938
705.782882303399	875
706.516308125936	875.400024414063
707.249642738626	875
707.982886149403	875.599975585938
708.716038366204	876.400024414063
709.449099396949	875.200012207031
710.182069249577	877
710.914947932009	873
711.647735452181	873.400024414063
712.380431818022	873
713.113037037454	873
713.845551118411	874
714.577974068818	872.599975585938
715.310305896604	873.799987792969
716.042546609694	873.799987792969
716.774696216013	873.799987792969
717.506754723493	874.400024414063
718.238722140053	875.599975585938
718.970598473624	873.599975585938
719.702383732127	873.200012207031
720.43407792349	873.799987792969
721.165681055634	876
721.897193136486	873.599975585938
722.628614173966	875.400024414063
723.359944175997	875.400024414063
724.091183150505	876.599975585938
724.822331105412	874.200012207031
725.553388048638	876
726.284353988106	874.599975585938
727.015228931734	874
727.746012887449	876.799987792969
728.476705863162	874.799987792969
729.207307866803	875.200012207031
729.937818906289	874.799987792969
730.668238989535	873.799987792969
731.398568124459	875
732.128806318986	875
732.858953581034	873.200012207031
733.589009918514	871.799987792969
734.318975339348	872.200012207031
735.048849851452	873.200012207031
735.778633462744	873
736.508326181137	873.200012207031
737.237928014549	873.599975585938
737.967438970897	872.200012207031
738.696859058095	876.200012207031
739.426188284054	875
740.155426656692	875.200012207031
740.884574183922	873.599975585938
741.613630873659	873
742.342596733815	875.599975585938
743.071471772302	874.599975585938
743.800255997034	876.599975585938
744.528949415921	874.200012207031
745.257552036877	875.799987792969
745.986063867811	874
746.714484916638	874.400024414063
747.442815191261	875
748.171054699597	874.599975585938
748.899203449554	874.200012207031
749.627261449039	873.200012207031
750.355228705966	874.200012207031
751.083105228239	874.400024414063
751.810891023765	874.200012207031
752.538586100459	876.200012207031
753.266190466218	874.400024414063
753.99370412896	876.599975585938
754.721127096582	876
755.448459377	874.599975585938
756.175700978114	875.200012207031
756.902851907828	872.200012207031
757.629912174055	873
758.356881784688	874.400024414063
759.083760747639	875.400024414063
759.810549070817	872.400024414063
760.537246762113	875.200012207031
761.263853829442	875.599975585938
761.990370280698	875.200012207031
762.716796123791	875
763.443131366618	875.200012207031
764.169376017082	872.599975585938
764.895530083085	873.799987792969
765.621593572527	873.200012207031
766.347566493312	875
767.073448853336	875.599975585938
767.799240660502	876.599975585938
768.524941922707	874.799987792969
769.250552647854	876.200012207031
769.976072843836	875
770.701502518551	876.200012207031
771.426841679905	877.400024414063
772.152090335793	875.799987792969
772.877248494107	874.799987792969
773.602316162747	877.200012207031
774.327293349609	875.599975585938
775.052180062592	877.200012207031
775.776976309589	875.599975585938
776.501682098496	878.400024414063
777.226297437206	878.599975585938
777.950822333616	878
778.675256795621	875.400024414063
779.399600831111	876.400024414063
780.123854447983	874.599975585938
780.84801765413	875.599975585938
781.572090457441	875.599975585938
782.296072865811	874.599975585938
783.019964887131	876.200012207031
783.743766529297	874.799987792969
784.467477800194	876
785.191098707719	875.200012207031
785.914629259756	875.799987792969
786.638069464194	875.599975585938
787.361419328932	875.200012207031
788.084678861852	875.400024414063
788.807848070845	875.599975585938
789.530926963798	875.200012207031
790.253915548602	875.599975585938
790.976813833144	875.599975585938
791.699621825307	875.400024414063
792.422339532986	876.400024414063
793.144966964061	874.599975585938
793.86750412642	878.400024414063
794.589951027946	876.799987792969
795.312307676536	874
796.03457408006	875.400024414063
796.756750246417	874.799987792969
797.478836183477	875.400024414063
798.200831899137	876.200012207031
798.92273740127	874.400024414063
799.644552697769	874.599975585938
800.36627779651	876.599975585938
801.087912705374	877.400024414063
801.809457432251	875.599975585938
802.530911985017	874.799987792969
803.252276371558	877
803.973550599748	874.400024414063
804.694734677472	876
805.415828612611	876.799987792969
806.136832413045	875.599975585938
806.857746086646	877
807.578569641305	876
808.299303084892	877.400024414063
809.019946425289	878
809.740499670372	876.400024414063
810.460962828022	876
811.181335906114	876.599975585938
811.901618912524	876.799987792969
812.621811855131	876.799987792969
813.341914741809	875.799987792969
814.061927580433	875.599975585938
814.781850378881	876
815.501683145025	875.799987792969
816.221425886743	876.400024414063
816.941078611903	874.799987792969
817.660641328387	876.599975585938
818.380114044065	875.400024414063
819.099496766808	877.400024414063
819.818789504492	874.400024414063
820.53799226499	874.200012207031
821.257105056168	873.599975585938
821.976127885904	874.599975585938
822.695060762064	877.200012207031
823.413903692525	874.200012207031
824.132656685151	874.599975585938
824.851319747817	876.799987792969
825.569892888388	877.400024414063
826.288376114739	875.200012207031
827.006769434737	877
827.725072856249	874.799987792969
828.443286387142	875.200012207031
829.161410035285	876.599975585938
829.87944380855	875.200012207031
830.597387714798	877.599975585938
831.315241761898	876.799987792969
832.033005957715	875.400024414063
832.750680310119	873.599975585938
833.468264826969	873.599975585938
834.18575951614	873.799987792969
834.903164385486	877.200012207031
835.620479442878	875
836.337704696181	877.799987792969
837.054840153255	873.400024414063
837.771885821962	871.599975585938
838.488841710172	876
839.20570782574	873.799987792969
839.922484176531	873
840.639170770409	872.200012207031
841.355767615231	875.400024414063
842.072274718864	875.200012207031
842.788692089164	874
843.505019733993	875.799987792969
844.221257661209	873.799987792969
844.937405878676	872.400024414063
845.65346439425	877.599975585938
846.369433215789	873.400024414063
847.085312351156	877.200012207031
847.801101808205	875.400024414063
848.516801594793	876.599975585938
849.232411718781	875
849.947932188021	876.799987792969
850.663363010376	876
851.378704193698	875.400024414063
852.093955745842	874.799987792969
852.809117674669	876.200012207031
853.524189988028	873.599975585938
854.239172693778	874.799987792969
854.954065799768	874.799987792969
855.668869313857	876.799987792969
856.383583243899	876.200012207031
857.098207597743	876
857.812742383246	877
858.527187608255	875.200012207031
859.241543280628	874.599975585938
859.955809408218	877.200012207031
860.669985998868	874
861.384073060437	876.400024414063
862.098070600772	878.599975585938
862.811978627724	877.599975585938
863.52579714914	875.799987792969
864.239526172873	876
864.953165706776	875.799987792969
865.666715758687	874.799987792969
866.380176336464	874.400024414063
867.093547447951	876.799987792969
867.806829100996	876.599975585938
868.520021303444	875.799987792969
869.233124063149	874.599975585938
869.94613738795	875.599975585938
870.659061285693	877.400024414063
871.37189576423	874.599975585938
872.084640831403	875.599975585938
872.797296495057	875.400024414063
873.509862763039	877.400024414063
874.22233964319	876.400024414063
874.934727143353	875.200012207031
875.647025271374	875.799987792969
876.359234035097	875.200012207031
877.071353442361	876.200012207031
877.783383501015	877.599975585938
878.495324218895	875.799987792969
879.207175603844	878.400024414063
879.918937663705	875
880.630610406318	878
881.342193839524	877.400024414063
882.053687971161	876.599975585938
882.765092809069	876.400024414063
883.476408361091	876.799987792969
884.187634635066	876.599975585938
884.898771638828	877
885.609819380221	876.400024414063
886.320777867076	877.599975585938
887.031647107236	876.400024414063
887.742427108536	876.599975585938
888.453117878816	876.799987792969
889.16371942591	877.799987792969
889.874231757652	878
890.584654881883	878.400024414063
891.294988806434	878.599975585938
892.005233539141	876
892.715389087837	879.400024414063
893.42545546036	875.599975585938
894.135432664543	874.599975585938
894.845320708216	877.599975585938
895.555119599216	877.400024414063
896.264829345375	877.799987792969
896.974449954526	876.799987792969
897.683981434496	878.200012207031
898.393423793125	874.799987792969
899.102777038235	876.400024414063
899.812041177664	875.400024414063
900.521216219239	876.400024414063
901.230302170793	876.400024414063
901.939299040155	879
902.64820683515	878.599975585938
903.357025563612	881
904.065755233368	876
904.774395852247	880.799987792969
905.482947428076	876.599975585938
906.191409968682	877.200012207031
906.899783481897	876.599975585938
907.608067975538	878.200012207031
908.316263457443	876.200012207031
909.02436993543	877.599975585938
909.732387417327	875.400024414063
910.440315910959	875
911.148155424154	880.200012207031
911.855905964731	877.400024414063
912.563567540521	877.200012207031
913.271140159339	878.599975585938
913.978623829017	876.599975585938
914.686018557374	875.799987792969
915.393324352237	875
916.100541221421	876.799987792969
916.807669172752	875.400024414063
917.514708214054	878.200012207031
918.221658353142	873
918.928519597843	874.599975585938
919.635291955976	874.400024414063
920.341975435358	873.400024414063
921.048570043813	876
921.75507578916	874
922.461492679212	874.200012207031
923.167820721795	876.599975585938
923.874059924726	875.799987792969
924.58021029582	874.599975585938
925.286271842893	876.200012207031
925.992244573769	873.599975585938
926.698128496262	876.599975585938
927.403923618184	876.400024414063
928.109629947355	875.799987792969
928.815247491593	875.599975585938
929.520776258708	874.599975585938
930.226216256519	874.400024414063
930.931567492841	873.599975585938
931.636829975482	874.200012207031
932.342003712263	875.599975585938
933.047088710995	878.400024414063
933.752084979491	874.799987792969
934.456992525564	873.599975585938
935.161811357024	873.599975585938
935.866541481688	874.400024414063
936.571182907363	874.400024414063
937.275735641861	871.599975585938
937.980199692995	873
938.684575068572	875.400024414063
939.388861776411	875.200012207031
940.093059824311	874.599975585938
940.797169220085	875
941.501189971544	876.200012207031
942.205122086495	874.599975585938
942.908965572751	874.400024414063
943.612720438111	876
944.316386690391	875.799987792969
945.019964337391	874
945.723453386924	874.799987792969
946.426853846795	875.400024414063
947.130165724808	875.799987792969
947.83338902877	874
948.536523766488	875.799987792969
949.239569945764	876
949.942527574402	876.200012207031
950.64539666021	876.200012207031
951.348177210993	875.400024414063
952.050869234548	876
952.753472738683	874.599975585938
953.455987731199	874.200012207031
954.158414219898	875.200012207031
954.860752212587	876.400024414063
955.563001717061	872.599975585938
956.265162741124	874.200012207031
956.967235292576	875.799987792969
957.669219379224	874
958.371115008857	873.400024414063
959.072922189283	875
959.774640928301	873.400024414063
960.476271233708	873.799987792969
961.177813113301	874.799987792969
961.879266574882	873.799987792969
962.580631626248	873.799987792969
963.281908275194	875.400024414063
963.98309652952	872.200012207031
964.684196397022	876.400024414063
965.3852078855	873.200012207031
966.086131002745	871.200012207031
966.786965756555	875.200012207031
967.487712154726	874.400024414063
968.188370205055	874.599975585938
968.888939915331	874.400024414063
969.589421293352	875
970.289814346909	875.799987792969
970.990119083801	874.799987792969
971.690335511819	873.400024414063
972.39046363875	872.200012207031
973.090503472398	873.200012207031
973.790455020545	874.799987792969
974.490318290987	871.799987792969
975.190093291516	872
975.889780029923	875.200012207031
976.589378513998	875.200012207031
977.288888751527	874.599975585938
977.988310750308	874
978.687644518122	875
979.386890062767	874.200012207031
980.086047392025	873.200012207031
980.785116513689	875
981.484097435542	874.200012207031
982.182990165377	874.599975585938
982.88179471098	874.599975585938
983.580511080137	874.200012207031
984.279139280632	872.599975585938
984.977679320253	874.599975585938
985.67613120679	874.599975585938
986.374494948027	873.400024414063
987.072770551745	871.200012207031
987.770958025731	875
988.469057377772	877.200012207031
989.167068615649	875.400024414063
989.864991747145	874.599975585938
990.562826780047	872.799987792969
991.260573722134	875.200012207031
991.958232581195	872.599975585938
992.655803365003	876.599975585938
993.353286081346	874.799987792969
994.050680738006	874.599975585938
994.74798734276	871.599975585938
995.44520590339	872.799987792969
996.142336427681	873
996.839378923407	873.599975585938
997.536333398348	873.200012207031
998.233199860289	874.599975585938
998.929978317004	875.599975585938
999.626668776274	872.799987792969
1000.32327124587	873.200012207031
1001.01978573359	873.599975585938
1001.71621224718	872.799987792969
1002.41255079445	873.799987792969
1003.10880138315	872.400024414063
1003.80496402107	873.200012207031
1004.50103871599	874.400024414063
1005.19702547567	875.400024414063
1005.8929243079	873.599975585938
1006.58873522045	876
1007.2844582211	873.400024414063
1007.98009331761	871.599975585938
1008.67564051776	873
1009.37109982933	874
1010.06647126009	873.200012207031
1010.7617548178	874
1011.45695051026	875
1012.15205834522	872.599975585938
1012.84707833045	875.799987792969
1013.54201047373	872.599975585938
1014.23685478284	872.400024414063
1014.93161126553	873.200012207031
1015.62627992959	875.599975585938
1016.32086078277	875.599975585938
1017.01535383285	873.799987792969
1017.70975908761	873
1018.40407655479	875
1019.09830624219	875.200012207031
1019.79244815755	875
1020.48650230866	875.400024414063
1021.18046870328	874
1021.87434734917	876
1022.56813825411	875.799987792969
1023.26184142584	874.599975585938
1023.95545687216	876
1024.64898460082	875.200012207031
1025.34242461957	877.799987792969
1026.0357769362	875.599975585938
1026.72904155846	878
1027.42221849412	877.799987792969
1028.11530775094	877.400024414063
1028.80830933668	876.799987792969
1029.50122325911	875.599975585938
1030.19404952599	876.400024414063
1030.88678814508	877.400024414063
1031.57943912414	877.799987792969
1032.27200247093	876.400024414063
1032.96447819323	878.799987792969
1033.65686629878	877.599975585938
1034.34916679534	876.200012207031
1035.04137969068	876
1035.73350499256	874.200012207031
1036.42554270874	876.400024414063
1037.11749284697	874
1037.80935541501	873.400024414063
1038.50113042062	876.599975585938
1039.19281787156	875.599975585938
1039.88441777559	876.799987792969
1040.57593014046	876.200012207031
1041.26735497393	877.599975585938
1041.95869228376	875.400024414063
1042.6499420777	876.400024414063
1043.3411043635	875.599975585938
1044.03217914893	877.400024414063
1044.72316644174	876.400024414063
1045.41406624968	873.400024414063
1046.1048785805	877.200012207031
1046.79560344197	874.599975585938
1047.48624084182	873.200012207031
1048.17679078783	874
1048.86725328774	875
1049.55762834929	875.400024414063
1050.24791598025	875.599975585938
1050.93811618837	875.200012207031
1051.62822898139	874.200012207031
1052.31825436707	875
1053.00819235315	873.599975585938
1053.6980429474	875.400024414063
1054.38780615755	873.799987792969
1055.07748199136	872.799987792969
1055.76707045658	876.400024414063
1056.45657156095	873.599975585938
1057.14598531222	874.599975585938
1057.83531171814	874.799987792969
1058.52455078646	874
1059.21370252494	873.400024414063
1059.90276694129	875.200012207031
1060.5917440433	871.799987792969
1061.28063383868	873.799987792969
1061.9694363352	873.400024414063
1062.65815154059	875.400024414063
1063.34677946261	877.599975585938
1064.03532010899	874.799987792969
1064.72377348748	872.599975585938
1065.41213960583	874.200012207031
1066.10041847177	876
1066.78861009306	874
1067.47671447743	872.799987792969
1068.16473163263	875.400024414063
1068.85266156639	876.400024414063
1069.54050428647	875.799987792969
1070.2282598006	875.200012207031
1070.91592811652	876.200012207031
1071.60350924198	873.599975585938
1072.29100318471	872.799987792969
1072.97840995245	873.599975585938
1073.66572955295	875.200012207031
1074.35296199394	876
1075.04010728316	879.599975585938
1075.72716542836	874.400024414063
1076.41413643726	875.799987792969
1077.10102031761	874.799987792969
1077.78781707715	874
1078.4745267236	874.799987792969
1079.16114926471	875.799987792969
1079.84768470822	875.400024414063
1080.53413306185	875
1081.22049433336	874.799987792969
1081.90676853046	874.200012207031
1082.5929556609	876.200012207031
1083.27905573241	873.200012207031
1083.96506875272	874.599975585938
1084.65099472957	873
1085.3368336707	874
1086.02258558383	874.200012207031
1086.70825047669	874.599975585938
1087.39382835703	874.599975585938
1088.07931923257	873.200012207031
1088.76472311104	874.200012207031
1089.45004000018	873.400024414063
1090.13526990771	871.400024414063
1090.82041284137	876
1091.50546880889	874.599975585938
1092.19043781799	873.200012207031
1092.87531987642	872.599975585938
1093.56011499188	874
1094.24482317212	873.400024414063
1094.92944442486	874.400024414063
1095.61397875783	872.799987792969
1096.29842617876	874.200012207031
1096.98278669537	876
1097.6670603154	873
1098.35124704656	873.799987792969
1099.03534689659	873.599975585938
1099.71935987322	873.599975585938
1100.40328598416	874.400024414063
1101.08712523713	874.200012207031
1101.77087763988	873.599975585938
1102.45454320012	874.400024414063
1103.13812192557	876.400024414063
1103.82161382396	875.200012207031
1104.50501890301	873.799987792969
1105.18833717045	875.599975585938
1105.87156863399	874.200012207031
1106.55471330137	873
1107.2377711803	872.599975585938
1107.9207422785	872.799987792969
1108.60362660369	874
1109.2864241636	874.799987792969
1109.96913496594	873.400024414063
1110.65175901844	875.400024414063
1111.33429632882	874.799987792969
1112.01674690479	874.599975585938
1112.69911075408	876
1113.38138788439	875.799987792969
1114.06357830346	876
1114.745682019	876.599975585938
1115.42769903872	874.599975585938
1116.10962937035	874.400024414063
1116.7914730216	875.200012207031
1117.47323000018	876.200012207031
1118.15490031382	875
1118.83648397022	875.599975585938
1119.51798097712	875.599975585938
1120.1993913422	875.599975585938
1120.88071507321	873.599975585938
1121.56195217784	875.200012207031
1122.24310266381	876.599975585938
1122.92416653884	874.400024414063
1123.60514381064	876.200012207031
1124.28603448692	877.200012207031
1124.9668385754	876.200012207031
1125.64755608378	877.400024414063
1126.32818701978	875.799987792969
1127.00873139111	876.400024414063
1127.68918920548	876.200012207031
1128.3695604706	877.200012207031
1129.04984519419	875
1129.73004338394	875.599975585938
1130.41015504758	876.599975585938
1131.09018019281	877
1131.77011882734	873.200012207031
1132.44997095888	874.400024414063
1133.12973659514	876
1133.80941574381	873
1134.48900841263	874.599975585938
1135.16851460927	876.200012207031
1135.84793434147	876.599975585938
1136.52726761692	874.599975585938
1137.20651444333	876.200012207031
1137.8856748284	876.200012207031
1138.56474877984	874.200012207031
1139.24373630536	873
1139.92263741265	875.599975585938
1140.60145210943	876.799987792969
1141.28018040339	876.200012207031
1141.95882230225	876.400024414063
1142.6373778137	877.799987792969
1143.31584694545	880
1143.99422970519	877.599975585938
1144.67252610064	879
1145.35073613949	879
1146.02885982944	878
1146.7068971782	876.200012207031
1147.38484819347	877.599975585938
1148.06271288294	876.400024414063
1148.74049125432	877.799987792969
1149.41818331531	875
1150.0957890736	876
1150.77330853689	877
1151.45074171289	877.200012207031
1152.12808860928	875.599975585938
1152.80534923378	876.599975585938
1153.48252359407	877.599975585938
1154.15961169786	876
1154.83661355283	877.599975585938
1155.51352916669	875
1156.19035854713	876
1156.86710170185	876.599975585938
1157.54375863855	876.799987792969
1158.22032936491	875.400024414063
1158.89681388863	877
1159.57321221741	876.400024414063
1160.24952435894	875.599975585938
1160.92575032092	879.599975585938
1161.60189011103	877.200012207031
1162.27794373697	876.200012207031
1162.95391120644	877.799987792969
1163.62979252712	876.400024414063
1164.3055877067	880.200012207031
1164.98129675288	876.200012207031
1165.65691967336	877.799987792969
1166.33245647581	876.400024414063
1167.00790716792	878
1167.6832717574	876.400024414063
1168.35855025193	875.400024414063
1169.0337426592	874.799987792969
1169.70884898689	874.799987792969
1170.3838692427	876.400024414063
1171.05880343431	876.799987792969
1171.73365156941	874
1172.40841365569	875.799987792969
1173.08308970083	876.799987792969
1173.75767971253	875
1174.43218369847	876.200012207031
1175.10660166633	877.200012207031
1175.7809336238	878
1176.45517957857	877
1177.12933953832	877.400024414063
1177.80341351073	877.799987792969
1178.47740150349	876.799987792969
1179.15130352429	876
1179.8251195808	875.799987792969
1180.49884968071	876.799987792969
1181.1724938317	875.400024414063
1181.84605204145	876.200012207031
1182.51952431766	873.599975585938
1183.19291066799	875.200012207031
1183.86621110013	876.200012207031
1184.53942562176	875.400024414063
1185.21255424057	874.200012207031
1185.88559696422	874.400024414063
1186.55855380041	877.400024414063
1187.2314247568	875.200012207031
1187.90420984109	876
1188.57690906095	876.200012207031
1189.24952242405	875.599975585938
1189.92204993808	875.200012207031
1190.59449161071	875.599975585938
1191.26684744962	875
1191.93911746249	873.599975585938
1192.61130165699	876.200012207031
1193.28340004081	874.200012207031
1193.95541262161	876.400024414063
1194.62733940707	875.400024414063
1195.29918040487	874.400024414063
1195.97093562269	876
1196.64260506819	875.400024414063
1197.31418874905	875.799987792969
1197.98568667295	874.599975585938
1198.65709884755	874.200012207031
1199.32842528053	874.799987792969
1199.99966597957	874.799987792969
1200.67082095234	874.400024414063
1201.3418902065	875.799987792969
1202.01287374974	873.400024414063
1202.68377158971	874
1203.3545837341	875.400024414063
1204.02531019057	875.200012207031
1204.6959509668	877.799987792969
1205.36650607045	875
1206.03697550919	876.400024414063
1206.70735929069	873
1207.37765742263	874.799987792969
1208.04786991266	873.799987792969
1208.71799676846	875.200012207031
1209.38803799769	875
1210.05799360803	875.599975585938
1210.72786360714	874.200012207031
1211.39764800268	875.200012207031
1212.06734680233	875.799987792969
1212.73696001375	876.799987792969
1213.4064876446	875
1214.07592970255	874.400024414063
1214.74528619526	875.400024414063
1215.4145571304	873.400024414063
1216.08374251564	874.799987792969
1216.75284235863	874.799987792969
1217.42185666704	873.599975585938
1218.09078544854	876
1218.75962871078	874
1219.42838646143	874
1220.09705870816	877
1220.76564545861	877.200012207031
1221.43414672046	876.599975585938
1222.10256250136	877.200012207031
1222.77089280898	876.799987792969
1223.43913765098	876.400024414063
1224.107297035	877.799987792969
1224.77537096873	877.200012207031
1225.44335945981	877
1226.1112625159	875.599975585938
1226.77908014467	875.799987792969
1227.44681235376	877.200012207031
1228.11445915085	876.799987792969
1228.78202054357	877
1229.44949653961	877.599975585938
1230.11688714659	876.400024414063
1230.7841923722	878.200012207031
1231.45141222407	875.200012207031
1232.11854670988	874
1232.78559583726	875
1233.45255961388	876.400024414063
1234.1194380474	877.200012207031
1234.78623114546	876.200012207031
1235.45293891572	877.200012207031
1236.11956136583	875.599975585938
1236.78609850345	878.400024414063
1237.45255033623	878.599975585938
1238.11891687182	876
1238.78519811788	874
1239.45139408205	875.599975585938
1240.11750477198	874.200012207031
1240.78353019534	876.400024414063
1241.44947035976	875.599975585938
1242.11532527291	874.200012207031
1242.78109494242	875.400024414063
1243.44677937595	877
1244.11237858115	877.599975585938
1244.77789256567	876.799987792969
1245.44332133715	875.400024414063
1246.10866490325	876
1246.7739232716	877
1247.43909644987	875
1248.10418444569	877.599975585938
1248.76918726671	876.799987792969
1249.43410492059	875.200012207031
1250.09893741496	875.599975585938
1250.76368475747	875.400024414063
1251.42834695576	875.799987792969
1252.09292401749	874.799987792969
1252.75741595029	873.599975585938
1253.42182276182	875
1254.08614445971	874
1254.75038105161	874.200012207031
1255.41453254515	874.400024414063
1256.07859894799	874.200012207031
1256.74258026777	874
1257.40647651213	877
1258.0702876887	875.400024414063
1258.73401380514	875
1259.39765486908	874.599975585938
1260.06121088817	875.599975585938
1260.72468187004	876
1261.38806782233	876
1262.05136875269	874.200012207031
1262.71458466875	873.799987792969
1263.37771557815	875
1264.04076148854	878
1264.70372240753	874
1265.3665983428	876.200012207031
1266.02938930195	875.400024414063
1266.69209529263	874.599975585938
1267.35471632249	876.400024414063
1268.01725239914	876.799987792969
1268.67970353024	878.400024414063
1269.34206972342	877.599975585938
1270.00435098631	875.599975585938
1270.66654732655	875
1271.32865875177	877.599975585938
1271.9906852696	875.799987792969
1272.65262688768	874.799987792969
1273.31448361365	877.400024414063
1273.97625545514	876.200012207031
1274.63794241978	875.599975585938
1275.2995445152	875.400024414063
1275.96106174903	876.200012207031
1276.62249412892	879.599975585938
1277.28384166248	880
1277.94510435735	876.200012207031
1278.60628222116	876.799987792969
1279.26737526155	875
1279.92838348613	876.200012207031
1280.58930690255	876.799987792969
1281.25014551842	876.200012207031
1281.91089934139	878
1282.57156837907	878.200012207031
1283.2321526391	877.200012207031
1283.89265212911	877.799987792969
1284.55306685671	876.799987792969
1285.21339682955	878.200012207031
1285.87364205525	875.200012207031
1286.53380254142	877.599975585938
1287.19387829571	875.799987792969
1287.85386932573	877
1288.51377563911	876.799987792969
1289.17359724348	880.599975585938
1289.83333414646	876.799987792969
1290.49298635567	876.400024414063
1291.15255387874	879.200012207031
1291.8120367233	878.400024414063
1292.47143489696	879
1293.13074840736	877.400024414063
1293.7899772621	879.799987792969
1294.44912146882	880.200012207031
1295.10818103513	878.200012207031
1295.76715596866	878
1296.42604627704	881.400024414063
1297.08485196787	878
1297.74357304878	878.400024414063
1298.4022095274	879
1299.06076141134	879
1299.71922870821	880.400024414063
1300.37761142565	880.200012207031
1301.03590957126	879.400024414063
1301.69412315268	877.200012207031
1302.3522521775	877.799987792969
1303.01029665336	879.200012207031
1303.66825658787	878
1304.32613198865	879.200012207031
1304.98392286332	879.200012207031
1305.64162921948	881.200012207031
1306.29925106476	879.400024414063
1306.95678840677	880.400024414063
1307.61424125312	879.599975585938
1308.27160961145	880
1308.92889348934	879.599975585938
1309.58609289443	879.799987792969
1310.24320783432	880
1310.90023831664	881.400024414063
1311.55718434898	878.200012207031
1312.21404593897	878.799987792969
1312.87082309421	880
1313.52751582233	878.400024414063
1314.18412413092	878.400024414063
1314.84064802761	878
1315.49708752	880.799987792969
1316.1534426157	878.599975585938
1316.80971332233	876.799987792969
1317.46589964749	877.599975585938
1318.1220015988	877
1318.77801918386	878.599975585938
1319.43395241028	877.200012207031
1320.08980128567	878.400024414063
1320.74556581764	876.400024414063
1321.4012460138	879.799987792969
1322.05684188176	879.200012207031
1322.71235342911	880
1323.36778066347	879.200012207031
1324.02312359245	881.400024414063
1324.67838222365	879.200012207031
1325.33355656468	878.200012207031
1325.98864662314	881.200012207031
1326.64365240663	878.799987792969
1327.29857392277	881.599975585938
1327.95341117915	880.599975585938
1328.60816418339	881
1329.26283294308	881.599975585938
1329.91741746582	879.599975585938
1330.57191775923	879.400024414063
1331.2263338309	880.599975585938
1331.88066568843	881.200012207031
1332.53491333943	879
1333.1890767915	879
1333.84315605224	879.400024414063
1334.49715112925	880.599975585938
1335.15106203013	879
1335.80488876249	878.200012207031
1336.45863133391	879
1337.112289752	878
1337.76586402437	879.799987792969
1338.4193541586	879.599975585938
1339.0727601623	882
1339.72608204306	880.599975585938
1340.37931980849	880
1341.03247346617	880.599975585938
1341.68554302372	878.799987792969
1342.33852848871	880.599975585938
1342.99142986876	880.599975585938
1343.64424717145	880.400024414063
1344.29698040438	882.200012207031
1344.94962957515	879.200012207031
1345.60219469135	879
1346.25467576058	880.400024414063
1346.90707279042	880.799987792969
1347.55938578848	879.599975585938
1348.21161476235	879.599975585938
1348.86375971962	878.799987792969
1349.51582066787	881.599975585938
1350.16779761472	881.200012207031
1350.81969056774	880.400024414063
1351.47149953453	881.599975585938
1352.12322452269	879
1352.77486553979	880.200012207031
1353.42642259344	878
1354.07789569122	881.400024414063
1354.72928484072	880
1355.38059004953	879.799987792969
1356.03181132525	881
1356.68294867545	880
1357.33400210773	879.200012207031
1357.98497162968	882.599975585938
1358.63585724889	882.400024414063
1359.28665897294	880.200012207031
1359.93737680942	879.599975585938
1360.58801076591	878.400024414063
1361.23856085001	879.599975585938
1361.88902706929	881.200012207031
1362.53940943135	881.799987792969
1363.18970794377	880.799987792969
1363.83992261413	879.799987792969
1364.49005345003	879.400024414063
1365.14010045904	883.599975585938
1365.79006364874	880
1366.43994302673	881.400024414063
1367.08973860058	880.599975585938
1367.73945037788	881.799987792969
1368.38907836621	881.200012207031
1369.03862257315	881.400024414063
1369.68808300629	881.200012207031
1370.3374596732	880.599975585938
1370.98675258148	880.400024414063
1371.63596173868	881.400024414063
1372.28508715241	881.200012207031
1372.93412883024	882
1373.58308677974	880.200012207031
1374.2319610085	883.799987792969
1374.8807515241	881.400024414063
1375.52945833412	880.799987792969
1376.17808144612	882.599975585938
1376.82662086771	881.599975585938
1377.47507660644	881.799987792969
1378.12344866989	882.599975585938
1378.77173706565	883.799987792969
1379.41994180129	882.599975585938
1380.06806288439	882.400024414063
1380.71610032252	883.599975585938
1381.36405412326	882.799987792969
1382.01192429419	881.799987792969
1382.65971084287	885.599975585938
1383.30741377688	883.599975585938
1383.95503310381	886
1384.60256883121	886.599975585938
1385.25002096667	886.799987792969
1385.89738951775	884.599975585938
1386.54467449204	888.400024414063
1387.19187589709	888.799987792969
1387.8389937405	886.599975585938
1388.48602802982	887.599975585938
1389.13297877262	889.200012207031
1389.77984597649	888.799987792969
1390.42662964899	889.200012207031
1391.07332979768	887.599975585938
1391.71994643015	887.599975585938
1392.36647955395	887.400024414063
1393.01292917667	887.599975585938
1393.65929530586	888.799987792969
1394.3055779491	885.799987792969
1394.95177711395	889
1395.59789280799	887.400024414063
1396.24392503877	887
1396.88987381387	885.400024414063
1397.53573914086	885.400024414063
1398.1815210273	882.200012207031
1398.82721948075	881.599975585938
1399.47283450878	884
1400.11836611897	885
1400.76381431886	885.799987792969
1401.40917911603	884.599975585938
1402.05446051805	885.200012207031
1402.69965853247	883.200012207031
1403.34477316686	884.200012207031
1403.98980442878	880.400024414063
1404.6347523258	882.200012207031
1405.27961686548	882
1405.92439805538	882.799987792969
1406.56909590306	881.799987792969
1407.21371041608	882.400024414063
1407.85824160202	881.599975585938
1408.50268946841	883.799987792969
1409.14705402284	883.400024414063
1409.79133527285	881.599975585938
1410.43553322601	882.799987792969
1411.07964788987	883.400024414063
1411.723679272	883
1412.36762737996	882.599975585938
1413.01149222129	882.400024414063
1413.65527380357	884
1414.29897213435	883.200012207031
1414.94258722118	881.599975585938
1415.58611907163	884.599975585938
1416.22956769325	886.200012207031
1416.87293309359	883.599975585938
1417.51621528021	883.799987792969
1418.15941426067	883.200012207031
1418.80253004253	886.400024414063
1419.44556263333	885.799987792969
1420.08851204063	885.599975585938
1420.731378272	884.400024414063
1421.37416133497	884.400024414063
1422.0168612371	884
1422.65947798596	884.599975585938
1423.30201158908	885.599975585938
1423.94446205403	887.599975585938
1424.58682938835	889.400024414063
1425.2291135996	890
1425.87131469532	888.400024414063
1426.51343268308	887.200012207031
1427.15546757042	887.200012207031
1427.79741936488	885.799987792969
1428.43928807403	887.599975585938
1429.0810737054	891.200012207031
1429.72277626656	887.200012207031
1430.36439576504	889.200012207031
1431.00593220841	891.200012207031
1431.64738560419	890.400024414063
1432.28875595995	888.599975585938
1432.93004328324	889.200012207031
1433.57124758159	890
1434.21236886255	891.200012207031
1434.85340713368	886.799987792969
1435.49436240252	889.200012207031
1436.13523467661	888.200012207031
1436.77602396349	886.599975585938
1437.41673027073	889
1438.05735360585	891.599975585938
1438.69789397641	889.599975585938
1439.33835138994	889.599975585938
1439.978725854	892.400024414063
1440.61901737612	890.200012207031
1441.25922596385	889
1441.89935162473	887
1442.53939436631	891.200012207031
1443.17935419612	889.599975585938
1443.81923112171	888.400024414063
1444.45902515061	888.599975585938
1445.09873629038	887.799987792969
1445.73836454854	889.599975585938
1446.37790993265	885.400024414063
1447.01737245024	888.200012207031
1447.65675210885	887.799987792969
1448.29604891602	887.400024414063
1448.93526287928	887
1449.57439400618	886.400024414063
1450.21344230426	887.200012207031
1450.85240778105	886
1451.49129044409	887.799987792969
1452.13009030092	888.200012207031
1452.76880735907	889.400024414063
1453.40744162608	887.400024414063
1454.04599310949	888.200012207031
1454.68446181683	886.599975585938
1455.32284775564	887.400024414063
1455.96115093345	888.799987792969
1456.5993713578	887.799987792969
1457.23750903623	885.200012207031
1457.87556397626	889
1458.51353618543	887
1459.15142567127	885.400024414063
1459.78923244132	887
1460.42695650311	886
1461.06459786417	886.799987792969
1461.70215653203	885.400024414063
1462.33963251423	883.400024414063
1462.97702581829	884.400024414063
1463.61433645175	882.599975585938
1464.25156442214	884
1464.88870973699	884
1465.52577240382	882.599975585938
1466.16275243017	886.200012207031
1466.79964982356	884.200012207031
1467.43646459154	885.200012207031
1468.07319674161	885
1468.70984628132	887
1469.34641321818	887.400024414063
1469.98289755974	886.799987792969
1470.6192993135	882.799987792969
1471.25561848701	888.599975585938
1471.89185508779	885.799987792969
1472.52800912336	886.400024414063
1473.16408060124	886.400024414063
1473.80006952897	882.599975585938
1474.43597591407	881.200012207031
1475.07179976406	882.599975585938
1475.70754108647	887
1476.34319988883	885
1476.97877617865	883.599975585938
1477.61426996345	883.599975585938
1478.24968125077	885.400024414063
1478.88501004812	884.599975585938
1479.52025636303	885.799987792969
1480.15542020302	884.599975585938
1480.79050157561	884.200012207031
1481.42550048832	885.200012207031
1482.06041694867	885
1482.69525096418	885.200012207031
1483.33000254237	886
1483.96467169077	883.400024414063
1484.59925841689	882.400024414063
1485.23376272825	885.200012207031
1485.86818463237	885
1486.50252413677	884.799987792969
1487.13678124896	883.400024414063
1487.77095597646	883.200012207031
1488.4050483268	886.599975585938
1489.03905830749	882.200012207031
1489.67298592604	882.799987792969
1490.30683118996	884.799987792969
1490.9405941068	885.400024414063
1491.57427468403	885
1492.2078729292	881.400024414063
1492.84138884981	883
1493.47482245338	881.799987792969
1494.10817374742	881.200012207031
1494.74144273944	882.200012207031
1495.37462943696	886.400024414063
1496.0077338475	882.599975585938
1496.64075597856	884.400024414063
1497.27369583765	881.799987792969
1497.9065534323	881.599975585938
1498.53932877001	884
1499.17202185829	881.400024414063
1499.80463270465	884.400024414063
1500.43716131661	886
1501.06960770167	884
1501.70197186735	882.799987792969
1502.33425382116	878.799987792969
1502.96645357059	882
1503.59857112317	882.200012207031
1504.23060648641	883.799987792969
1504.8625596678	881.200012207031
1505.49443067486	879.799987792969
1506.1262195151	881.799987792969
1506.75792619602	878.799987792969
1507.38955072513	878.599975585938
1508.02109310993	883
1508.65255335794	880.200012207031
1509.28393147666	881.400024414063
1509.91522747359	882.799987792969
1510.54644135624	882
1511.17757313212	883.200012207031
1511.80862280872	882.400024414063
1512.43959039356	879.400024414063
1513.07047589413	880.799987792969
1513.70127931795	877.799987792969
1514.33200067251	879
1514.96263996531	881
1515.59319720386	882.400024414063
1516.22367239567	880.799987792969
1516.85406554822	882.400024414063
1517.48437666903	882.799987792969
1518.1146057656	879.200012207031
1518.74475284542	881.200012207031
1519.374817916	879.400024414063
1520.00480098483	876.599975585938
1520.63470205942	880.599975585938
1521.26452114726	880.400024414063
1521.89425825586	879.599975585938
1522.52391339271	878.599975585938
1523.15348656531	879
1523.78297778116	878.400024414063
1524.41238704775	878.799987792969
1525.04171437259	875.400024414063
1525.67095976317	876.599975585938
1526.30012322699	878.799987792969
1526.92920477154	878
1527.55820440432	877
1528.18712213283	879.599975585938
1528.81595796455	878.200012207031
1529.44471190699	877
1530.07338396764	878.200012207031
1530.70197415399	878.799987792969
1531.33048247353	879.200012207031
1531.95890893377	878.400024414063
1532.58725354219	878
1533.21551630629	879.200012207031
1533.84369723356	877
1534.47179633148	878.599975585938
1535.09981360757	877.400024414063
1535.72774906929	876
1536.35560272415	880.400024414063
1536.98337457963	876.799987792969
1537.61106464323	875.599975585938
1538.23867292243	875.200012207031
1538.86619942473	874
1539.49364415762	875
1540.12100712857	875.799987792969
1540.74828834509	875.200012207031
1541.37548781466	876.200012207031
1542.00260554478	877.200012207031
1542.62964154291	876.599975585938
1543.25659581655	874.200012207031
1543.8834683732	874.799987792969
1544.51025922034	875
1545.13696836544	875.599975585938
1545.76359581601	875.400024414063
1546.39014157952	874.799987792969
1547.01660566345	877
1547.64298807531	875.799987792969
1548.26928882255	876.200012207031
1548.89550791269	876.799987792969
1549.52164535318	876.400024414063
1550.14770115153	876.400024414063
1550.77367531521	876
1551.39956785171	873
1552.0253787685	876.400024414063
1552.65110807307	877
1553.2767557729	875.599975585938
1553.90232187548	877.200012207031
1554.52780638828	876.200012207031
1555.15320931879	876.400024414063
1555.77853067447	875.400024414063
1556.40377046282	876
1557.02892869132	872
1557.65400536744	875.599975585938
1558.27900049866	876.200012207031
1558.90391409247	876
1559.52874615633	875.799987792969
1560.15349669773	873.799987792969
1560.77816572414	874.200012207031
1561.40275324305	875.400024414063
1562.02725926192	876.400024414063
1562.65168378824	876.599975585938
1563.27602682948	875.200012207031
1563.90028839311	876.599975585938
1564.52446848662	877.400024414063
1565.14856711748	876
1565.77258429316	873
1566.39652002113	874.799987792969
1567.02037430887	874
1567.64414716387	876.200012207031
1568.26783859357	875.400024414063
1568.89144860547	875.599975585938
1569.51497720703	874
1570.13842440573	875
1570.76179020904	874.400024414063
1571.38507462442	875
1572.00827765936	875
1572.63139932132	874.400024414063
1573.25443961777	876.599975585938
1573.87739855618	875.400024414063
1574.50027614402	876.400024414063
1575.12307238877	877.799987792969
1575.74578729789	876.200012207031
1576.36842087885	878.400024414063
1576.99097313912	876
1577.61344408616	876.400024414063
1578.23583372745	877.599975585938
1578.85814207046	877
1579.48036912264	876.799987792969
1580.10251489147	876.200012207031
1580.72457938441	875.599975585938
1581.34656260893	876.200012207031
1581.9684645725	877.400024414063
1582.59028528258	874.599975585938
1583.21202474663	876.799987792969
1583.83368297212	876.400024414063
1584.45525996652	876.799987792969
1585.07675573728	875.599975585938
1585.69817029188	876
1586.31950363778	878.799987792969
1586.94075578243	878.200012207031
1587.5619267333	879.599975585938
1588.18301649786	879.400024414063
1588.80402508357	878.200012207031
1589.42495249788	877.599975585938
1590.04579874826	876.599975585938
1590.66656384217	878.200012207031
1591.28724778707	875.200012207031
1591.90785059042	876.599975585938
1592.52837225968	876.799987792969
1593.14881280232	878
1593.76917222578	877.799987792969
1594.38945053753	878.200012207031
1595.00964774502	878.200012207031
1595.62976385573	878.599975585938
1596.24979887709	877.200012207031
1596.86975281657	879.400024414063
1597.48962568164	877.200012207031
1598.10941747974	879
1598.72912821832	876.799987792969
1599.34875790486	877.400024414063
1599.9683065468	878.400024414063
1600.58777415159	878.599975585938
1601.2071607267	877.799987792969
1601.82646627958	877.599975585938
1602.44569081769	877.400024414063
1603.06483434846	878.400024414063
1603.68389687937	877.599975585938
1604.30287841786	877.799987792969
1604.92177897139	877
1605.54059854741	878.599975585938
1606.15933715337	879.400024414063
1606.77799479672	878.599975585938
1607.39657148492	878.799987792969
1608.01506722542	880.200012207031
1608.63348202566	880.400024414063
1609.2518158931	876.599975585938
1609.87006883519	879.400024414063
1610.48824085939	879.599975585938
1611.10633197312	881.400024414063
1611.72434218386	880
1612.34227149904	882.200012207031
1612.96011992612	883.400024414063
1613.57788747254	882
1614.19557414575	885.200012207031
1614.8131799532	883.200012207031
1615.43070490234	886.599975585938
1616.04814900061	883.400024414063
1616.66551225545	886.400024414063
1617.28279467433	886.200012207031
1617.89999626467	887.400024414063
1618.51711703393	890.200012207031
1619.13415698955	891.799987792969
1619.75111613898	892
1620.36799448966	896.599975585938
1620.98479204903	897.200012207031
1621.60150882455	899.799987792969
1622.21814482364	897.799987792969
1622.83470005376	898.599975585938
1623.45117452235	900.400024414063
1624.06756823685	900.400024414063
1624.6838812047	903.400024414063
1625.30011343335	904.799987792969
1625.91626493022	908.599975585938
1626.53233570278	908.599975585938
1627.14832575845	910
1627.76423510468	908.799987792969
1628.38006374891	912.799987792969
1628.99581169857	903.799987792969
1629.61147896111	907.799987792969
1630.22706554397	906.200012207031
1630.84257145457	904.400024414063
1631.45799670038	902.200012207031
1632.07334128881	904.599975585938
1632.6886052273	903.400024414063
1633.3037885233	900.599975585938
1633.91889118425	899.200012207031
1634.53391321757	893.400024414063
1635.1488546307	892.599975585938
1635.76371543108	889
1636.37849562616	887.200012207031
1636.99319522335	886.799987792969
1637.60781423009	887.599975585938
1638.22235265383	885.599975585938
1638.83681050198	884
1639.451187782	881.400024414063
1640.0654845013	881.200012207031
1640.67970066734	881
1641.29383628752	878.799987792969
1641.9078913693	877.400024414063
1642.5218659201	878.400024414063
1643.13575994735	877.400024414063
1643.74957345849	876.599975585938
1644.36330646094	878
1644.97695896213	874.799987792969
1645.59053096951	875.599975585938
1646.20402249049	876.599975585938
1646.8174335325	877
1647.43076410298	875.599975585938
1648.04401420935	875.400024414063
1648.65718385905	874.799987792969
1649.2702730595	874.200012207031
1649.88328181812	874.799987792969
1650.49621014236	875.400024414063
1651.10905803963	875
1651.72182551735	877.599975585938
1652.33451258297	873.599975585938
1652.9471192439	872.599975585938
1653.55964550757	873.200012207031
1654.1720913814	874
1654.78445687283	873
1655.39674198926	872.599975585938
1656.00894673814	873.799987792969
1656.62107112688	872.400024414063
1657.23311516291	873
1657.84507885365	873.599975585938
1658.45696220652	873.599975585938
1659.06876522895	874.200012207031
1659.68048792835	873
1660.29213031217	870.599975585938
1660.90369238779	872.200012207031
1661.51517416267	873.200012207031
1662.12657564421	872.200012207031
1662.73789683984	872.400024414063
1663.34913775697	873
1663.96029840303	871
1664.57137878544	872.599975585938
1665.18237891161	870.400024414063
1665.79329878897	872.200012207031
1666.40413842493	872.799987792969
1667.01489782691	872.799987792969
1667.62557700233	873.599975585938
1668.2361759586	872.799987792969
1668.84669470315	871
1669.4571332434	871.799987792969
1670.06749158675	871.599975585938
1670.67776974062	872
1671.28796771243	871.599975585938
1671.8980855096	870.799987792969
1672.50812313954	871.200012207031
1673.11808060967	870.400024414063
1673.72795792739	871.599975585938
1674.33775510013	871.799987792969
1674.9474721353	871
1675.55710904031	870
1676.16666582257	870.400024414063
1676.7761424895	868.599975585938
1677.38553904851	871.799987792969
1677.99485550702	871.799987792969
1678.60409187243	871
1679.21324815215	871
1679.8223243536	872
1680.43132048419	871.200012207031
1681.04023655132	870.799987792969
1681.64907256241	871.200012207031
1682.25782852487	869.599975585938
1682.86650444611	870.599975585938
1683.47510033353	870.200012207031
1684.08361619455	871.200012207031
1684.69205203657	872.200012207031
1685.300407867	870
1685.90868369325	870.200012207031
1686.51687952272	869.599975585938
1687.12499536283	870
1687.73303122098	868.200012207031
1688.34098710457	868.400024414063
1688.94886302101	868.200012207031
1689.55665897772	869.200012207031
1690.16437498208	867.400024414063
1690.77201104152	871.400024414063
1691.37956716342	869.200012207031
1691.9870433552	870.400024414063
1692.59443962426	870.799987792969
1693.20175597801	870.599975585938
1693.80899242384	870.799987792969
1694.41614896916	870.599975585938
1695.02322562138	872.200012207031
1695.63022238789	869.599975585938
1696.23713927609	870.400024414063
1696.8439762934	871
1697.4507334472	869.400024414063
1698.05741074491	870.599975585938
1698.66400819391	869.200012207031
1699.27052580161	868.599975585938
1699.87696357542	870.599975585938
1700.48332152272	869.799987792969
1701.08959965092	871
1701.69579796742	868.599975585938
1702.30191647962	870.200012207031
1702.90795519491	869.799987792969
1703.51391412069	869.799987792969
1704.11979326437	869.400024414063
1704.72559263332	868.599975585938
1705.33131223496	868.599975585938
1705.93695207668	870
1706.54251216588	869
1707.14799250994	870.799987792969
1707.75339311628	867.799987792969
1708.35871399227	868.400024414063
1708.96395514532	868.799987792969
1709.56911658282	869.200012207031
