634.948122577771	859.799987792969
635.690341530823	860
636.43246851086	859
637.174503525845	859.799987792969
637.916446583745	857.400024414063
638.658297692538	858.799987792969
639.400056860179	859
640.141724094637	860
640.883299403885	860.200012207031
641.62478279588	859
642.366174278594	858.599975585938
643.107473859989	857.200012207031
643.848681548029	858.799987792969
644.589797350679	859.200012207031
645.330821275901	859.200012207031
646.071753331665	859.200012207031
646.812593525922	858.599975585938
647.553341866646	858.799987792969
648.293998361798	857.799987792969
649.03456301933	859
649.775035847216	858.400024414063
650.515416853409	860
651.255706045874	860
651.995903432568	858.400024414063
652.736009021453	858.599975585938
653.476022820486	858.200012207031
654.215944837629	859.400024414063
654.955775080842	859.599975585938
655.695513558081	858.400024414063
656.435160277301	858.799987792969
657.174715246465	858.200012207031
657.914178473527	859.200012207031
658.653549966449	859
659.392829733176	859.200012207031
660.132017781678	859.799987792969
660.871114119901	860.599975585938
661.610118755803	859.799987792969
662.349031697343	858.799987792969
663.087852952468	859.200012207031
663.826582529139	858.799987792969
664.565220435305	858.400024414063
665.30376667892	859.799987792969
666.04222126794	859.599975585938
666.780584210316	858.400024414063
667.518855514	858.799987792969
668.25703518694	859.200012207031
668.995123237096	859
669.733119672413	858.799987792969
670.471024500842	859.400024414063
671.208837730333	859.599975585938
671.946559368839	860.799987792969
672.684189424308	859.400024414063
673.421727904689	859
674.159174817929	860
674.896530171977	859
675.633793974786	859.400024414063
676.370966234295	860
677.108046958461	859.200012207031
677.845036155219	860.400024414063
678.581933832528	859.599975585938
679.318739998323	858.799987792969
680.055454660558	859.799987792969
680.792077827172	860.599975585938
681.528609506116	859.400024414063
682.265049705331	860.799987792969
683.001398432759	860.200012207031
683.737655696349	861.200012207031
684.47382150404	860.200012207031
685.20989586378	861.200012207031
685.945878783503	860.599975585938
686.68177027116	861.400024414063
687.417570334688	861.200012207031
688.153278982032	860.599975585938
688.888896221129	861.400024414063
689.624422059921	863.599975585938
690.359856506349	862.400024414063
691.095199568354	862.599975585938
691.830451253874	862.599975585938
692.565611570844	861.599975585938
693.300680527212	860.400024414063
694.03565813091	861.400024414063
694.770544389877	861
695.505339312053	860.799987792969
696.240042905372	860.200012207031
696.974655177772	859
697.70917613719	859.200012207031
698.443605791561	859.400024414063
699.177944148826	859.599975585938
699.912191216909	859.400024414063
700.646347003755	859
701.380411517295	859.400024414063
702.114384765465	859.599975585938
702.848266756195	860
703.582057497421	859.400024414063
704.315756997074	860
705.049365263089	858.599975585938
705.782882303399	858.200012207031
706.516308125936	859.599975585938
707.249642738626	858.799987792969
707.982886149403	858.799987792969
708.716038366204	859.400024414063
709.449099396949	857.799987792969
710.182069249577	858.400024414063
710.914947932009	858.200012207031
711.647735452181	859.400024414063
712.380431818022	859
713.113037037454	858.599975585938
713.845551118411	858.799987792969
714.577974068818	857.799987792969
715.310305896604	858.799987792969
716.042546609694	857.400024414063
716.774696216013	859
717.506754723493	857.799987792969
718.238722140053	857.799987792969
718.970598473624	858
719.702383732127	859.200012207031
720.43407792349	859
721.165681055634	857
721.897193136486	857.799987792969
722.628614173966	858.200012207031
723.359944175997	858
724.091183150505	858.799987792969
724.822331105412	858.200012207031
725.553388048638	859.799987792969
726.284353988106	857.599975585938
727.015228931734	859.200012207031
727.746012887449	859.599975585938
728.476705863162	858.599975585938
729.207307866803	859.200012207031
729.937818906289	857.400024414063
730.668238989535	858
731.398568124459	859.400024414063
732.128806318986	858.400024414063
732.858953581034	858.799987792969
733.589009918514	858.799987792969
734.318975339348	858.799987792969
735.048849851452	858.400024414063
735.778633462744	858
736.508326181137	858.599975585938
737.237928014549	858.200012207031
737.967438970897	858.599975585938
738.696859058095	858.599975585938
739.426188284054	858.200012207031
740.155426656692	858.799987792969
740.884574183922	858.400024414063
741.613630873659	859
742.342596733815	859
743.071471772302	858
743.800255997034	858.799987792969
744.528949415921	858.200012207031
745.257552036877	858.599975585938
745.986063867811	857.799987792969
746.714484916638	858.599975585938
747.442815191261	859.400024414063
748.171054699597	859
748.899203449554	859.200012207031
749.627261449039	858.599975585938
750.355228705966	857.599975585938
751.083105228239	858.599975585938
751.810891023765	858.200012207031
752.538586100459	857.799987792969
753.266190466218	859.799987792969
753.99370412896	857.400024414063
754.721127096582	859.400024414063
755.448459377	857.400024414063
756.175700978114	859
756.902851907828	858.599975585938
757.629912174055	858.400024414063
758.356881784688	859.200012207031
759.083760747639	857.799987792969
759.810549070817	857.400024414063
760.537246762113	857.799987792969
761.263853829442	858.599975585938
761.990370280698	859.200012207031
762.716796123791	859
763.443131366618	857.400024414063
764.169376017082	858.799987792969
764.895530083085	859
765.621593572527	857.400024414063
766.347566493312	858.799987792969
767.073448853336	859.400024414063
767.799240660502	858.200012207031
768.524941922707	859.200012207031
769.250552647854	858.799987792969
769.976072843836	858.200012207031
770.701502518551	858
771.426841679905	859.599975585938
772.152090335793	857.799987792969
772.877248494107	857.599975585938
773.602316162747	860
774.327293349609	858.400024414063
775.052180062592	859.599975585938
775.776976309589	858.599975585938
776.501682098496	858.200012207031
777.226297437206	858.599975585938
777.950822333616	858.799987792969
778.675256795621	860.200012207031
779.399600831111	858.599975585938
780.123854447983	858.799987792969
780.84801765413	859.400024414063
781.572090457441	860
782.296072865811	858.400024414063
783.019964887131	859.200012207031
783.743766529297	858.400024414063
784.467477800194	858
785.191098707719	857.799987792969
785.914629259756	858.799987792969
786.638069464194	859
787.361419328932	859.400024414063
788.084678861852	859
788.807848070845	859.599975585938
789.530926963798	857.799987792969
790.253915548602	857.599975585938
790.976813833144	857.799987792969
791.699621825307	859.400024414063
792.422339532986	858.599975585938
793.144966964061	859.599975585938
793.86750412642	859.799987792969
794.589951027946	859.200012207031
795.312307676536	858.799987792969
796.03457408006	858.200012207031
796.756750246417	859
797.478836183477	858.599975585938
798.200831899137	858
798.92273740127	858.400024414063
799.644552697769	858.599975585938
800.36627779651	860.200012207031
801.087912705374	859.400024414063
801.809457432251	858
802.530911985017	858.200012207031
803.252276371558	858
803.973550599748	859.599975585938
804.694734677472	859
805.415828612611	858.200012207031
806.136832413045	859.200012207031
806.857746086646	859
807.578569641305	858.799987792969
808.299303084892	857.599975585938
809.019946425289	857.200012207031
809.740499670372	858.200012207031
810.460962828022	858.200012207031
811.181335906114	859.200012207031
811.901618912524	858.799987792969
812.621811855131	857.599975585938
813.341914741809	859.400024414063
814.061927580433	859.799987792969
814.781850378881	858
815.501683145025	858.400024414063
816.221425886743	858.599975585938
816.941078611903	858.599975585938
817.660641328387	858.799987792969
818.380114044065	858.400024414063
819.099496766808	858
819.818789504492	858.200012207031
820.53799226499	859.400024414063
821.257105056168	857.400024414063
821.976127885904	858.799987792969
822.695060762064	858.200012207031
823.413903692525	859.200012207031
824.132656685151	857.400024414063
824.851319747817	858.400024414063
825.569892888388	858.400024414063
826.288376114739	857.599975585938
827.006769434737	858.599975585938
827.725072856249	857.799987792969
828.443286387142	858.599975585938
829.161410035285	857.200012207031
829.87944380855	859.200012207031
830.597387714798	859.200012207031
831.315241761898	858.799987792969
832.033005957715	859.200012207031
832.750680310119	859.200012207031
833.468264826969	859.200012207031
834.18575951614	858
834.903164385486	857.599975585938
835.620479442878	858.200012207031
836.337704696181	859.400024414063
837.054840153255	857.599975585938
837.771885821962	859
838.488841710172	860
839.20570782574	859.200012207031
839.922484176531	859.599975585938
840.639170770409	859.400024414063
841.355767615231	859
842.072274718864	860
842.788692089164	858.400024414063
843.505019733993	857.799987792969
844.221257661209	859.400024414063
844.937405878676	857.799987792969
845.65346439425	858.599975585938
846.369433215789	858.200012207031
847.085312351156	858.599975585938
847.801101808205	857.400024414063
848.516801594793	858.799987792969
849.232411718781	859
849.947932188021	858.799987792969
850.663363010376	858.400024414063
851.378704193698	858.799987792969
852.093955745842	858.400024414063
852.809117674669	857.599975585938
853.524189988028	859
854.239172693778	859.400024414063
854.954065799768	858.799987792969
855.668869313857	858.400024414063
856.383583243899	857.599975585938
857.098207597743	859
857.812742383246	858.799987792969
858.527187608255	859.200012207031
859.241543280628	858.400024414063
859.955809408218	859.200012207031
860.669985998868	858.200012207031
861.384073060437	858.400024414063
862.098070600772	858
862.811978627724	858.799987792969
863.52579714914	859.799987792969
864.239526172873	860
864.953165706776	859.799987792969
865.666715758687	859.599975585938
866.380176336464	858.599975585938
867.093547447951	859.799987792969
867.806829100996	859.200012207031
868.520021303444	858.400024414063
869.233124063149	858.799987792969
869.94613738795	858.599975585938
870.659061285693	859.200012207031
871.37189576423	859
872.084640831403	859.599975585938
872.797296495057	859.200012207031
873.509862763039	858.799987792969
874.22233964319	860.200012207031
874.934727143353	859.400024414063
875.647025271374	859
876.359234035097	859.799987792969
877.071353442361	859.599975585938
877.783383501015	858
878.495324218895	858.799987792969
879.207175603844	859.400024414063
879.918937663705	859.400024414063
880.630610406318	859.200012207031
881.342193839524	859.599975585938
882.053687971161	858.599975585938
882.765092809069	858.200012207031
883.476408361091	858.599975585938
884.187634635066	859.400024414063
884.898771638828	859.799987792969
885.609819380221	860.599975585938
886.320777867076	859.400024414063
887.031647107236	857.799987792969
887.742427108536	858.799987792969
888.453117878816	860.799987792969
889.16371942591	859.200012207031
889.874231757652	859.599975585938
890.584654881883	859.400024414063
891.294988806434	859
892.005233539141	860
892.715389087837	859.599975585938
893.42545546036	860
894.135432664543	858.599975585938
894.845320708216	858.599975585938
895.555119599216	858.200012207031
896.264829345375	858.799987792969
896.974449954526	858.200012207031
897.683981434496	859.200012207031
898.393423793125	859.200012207031
899.102777038235	858.599975585938
899.812041177664	861
900.521216219239	859.200012207031
901.230302170793	858.400024414063
901.939299040155	859.799987792969
902.64820683515	859.599975585938
903.357025563612	859.200012207031
904.065755233368	859
904.774395852247	861.200012207031
905.482947428076	859
906.191409968682	860
906.899783481897	859.599975585938
907.608067975538	860
908.316263457443	860
909.02436993543	860.200012207031
909.732387417327	858.799987792969
910.440315910959	859.599975585938
911.148155424154	859
911.855905964731	860
912.563567540521	858.799987792969
913.271140159339	859.799987792969
913.978623829017	859.799987792969
914.686018557374	858
915.393324352237	858.799987792969
916.100541221421	859
916.807669172752	859.799987792969
917.514708214054	859.599975585938
918.221658353142	860
918.928519597843	859.799987792969
919.635291955976	858.799987792969
920.341975435358	859
921.048570043813	858.400024414063
921.75507578916	858
922.461492679212	859.400024414063
923.167820721795	859.400024414063
923.874059924726	858.799987792969
924.58021029582	859
925.286271842893	860
925.992244573769	858.799987792969
926.698128496262	860
927.403923618184	858.599975585938
928.109629947355	859.200012207031
928.815247491593	859.200012207031
929.520776258708	858.400024414063
930.226216256519	858
930.931567492841	859.200012207031
931.636829975482	857.799987792969
932.342003712263	859.400024414063
933.047088710995	857.400024414063
933.752084979491	858.599975585938
934.456992525564	859
935.161811357024	859
935.866541481688	859.200012207031
936.571182907363	858.200012207031
937.275735641861	859.799987792969
937.980199692995	858.599975585938
938.684575068572	858
939.388861776411	858
940.093059824311	858.400024414063
940.797169220085	858
941.501189971544	858.400024414063
942.205122086495	858.599975585938
942.908965572751	858.599975585938
943.612720438111	860
944.316386690391	859.599975585938
945.019964337391	860.200012207031
945.723453386924	858.599975585938
946.426853846795	858.200012207031
947.130165724808	858.799987792969
947.83338902877	859.200012207031
948.536523766488	858.799987792969
949.239569945764	858.400024414063
949.942527574402	859.200012207031
950.64539666021	858.599975585938
951.348177210993	858
952.050869234548	857.200012207031
952.753472738683	858
953.455987731199	858.200012207031
954.158414219898	858.200012207031
954.860752212587	858.400024414063
955.563001717061	858.799987792969
956.265162741124	858
956.967235292576	858.200012207031
957.669219379224	859
958.371115008857	858
959.072922189283	858.599975585938
959.774640928301	858.400024414063
960.476271233708	858.799987792969
961.177813113301	857.599975585938
961.879266574882	859.200012207031
962.580631626248	857.799987792969
963.281908275194	858.799987792969
963.98309652952	858.799987792969
964.684196397022	859.200012207031
965.3852078855	857.400024414063
966.086131002745	858.599975585938
966.786965756555	859.400024414063
967.487712154726	859.200012207031
968.188370205055	859
968.888939915331	859
969.589421293352	858.599975585938
970.289814346909	858.799987792969
970.990119083801	858
971.690335511819	857.400024414063
972.39046363875	859.200012207031
973.090503472398	858.200012207031
973.790455020545	858.200012207031
974.490318290987	858.599975585938
975.190093291516	858.400024414063
975.889780029923	859
976.589378513998	857.599975585938
977.288888751527	858.400024414063
977.988310750308	859.200012207031
978.687644518122	858.799987792969
979.386890062767	857.799987792969
980.086047392025	859
980.785116513689	858
981.484097435542	859.400024414063
982.182990165377	859
982.88179471098	858.400024414063
983.580511080137	858.200012207031
984.279139280632	858.799987792969
984.977679320253	857.799987792969
985.67613120679	858
986.374494948027	859.400024414063
987.072770551745	858.400024414063
987.770958025731	858.799987792969
988.469057377772	859.799987792969
989.167068615649	858
989.864991747145	858.200012207031
990.562826780047	858.599975585938
991.260573722134	858.799987792969
991.958232581195	858.200012207031
992.655803365003	857.599975585938
993.353286081346	858.799987792969
994.050680738006	858.200012207031
994.74798734276	858
995.44520590339	858.200012207031
996.142336427681	858.799987792969
996.839378923407	858.599975585938
997.536333398348	860
998.233199860289	860.200012207031
998.929978317004	858.400024414063
999.626668776274	859.599975585938
1000.32327124587	857.799987792969
1001.01978573359	859
1001.71621224718	859
1002.41255079445	858
1003.10880138315	858.200012207031
1003.80496402107	858.400024414063
1004.50103871599	859.200012207031
1005.19702547567	857.799987792969
1005.8929243079	859.599975585938
1006.58873522045	858.799987792969
1007.2844582211	859
1007.98009331761	859.400024414063
1008.67564051776	859.200012207031
1009.37109982933	859.599975585938
1010.06647126009	860
1010.7617548178	860
1011.45695051026	857.599975585938
1012.15205834522	858.400024414063
1012.84707833045	858.599975585938
1013.54201047373	859.400024414063
1014.23685478284	857.799987792969
1014.93161126553	858.400024414063
1015.62627992959	859
1016.32086078277	857.799987792969
1017.01535383285	859
1017.70975908761	859
1018.40407655479	859
1019.09830624219	858
1019.79244815755	859.599975585938
1020.48650230866	858.400024414063
1021.18046870328	859.200012207031
1021.87434734917	858.200012207031
1022.56813825411	859.799987792969
1023.26184142584	859.799987792969
1023.95545687216	858.799987792969
1024.64898460082	859.200012207031
1025.34242461957	859.799987792969
1026.0357769362	860.200012207031
1026.72904155846	859.799987792969
1027.42221849412	858.400024414063
1028.11530775094	860.599975585938
1028.80830933668	860
1029.50122325911	860.400024414063
1030.19404952599	859.799987792969
1030.88678814508	859.799987792969
1031.57943912414	860.400024414063
1032.27200247093	859.799987792969
1032.96447819323	860.200012207031
1033.65686629878	858.400024414063
1034.34916679534	859.599975585938
1035.04137969068	861.200012207031
1035.73350499256	859.400024414063
1036.42554270874	860
1037.11749284697	858.400024414063
1037.80935541501	859.200012207031
1038.50113042062	860
1039.19281787156	859.400024414063
1039.88441777559	859.200012207031
1040.57593014046	859.400024414063
1041.26735497393	857.799987792969
1041.95869228376	859.200012207031
1042.6499420777	858.400024414063
1043.3411043635	861
1044.03217914893	859.200012207031
1044.72316644174	859.599975585938
1045.41406624968	859.799987792969
1046.1048785805	858.200012207031
1046.79560344197	859.200012207031
1047.48624084182	859.400024414063
1048.17679078783	859
1048.86725328774	857.799987792969
1049.55762834929	858
1050.24791598025	859.200012207031
1050.93811618837	859.400024414063
1051.62822898139	858.799987792969
1052.31825436707	859
1053.00819235315	860.200012207031
1053.6980429474	859.599975585938
1054.38780615755	859.200012207031
1055.07748199136	859.200012207031
1055.76707045658	858.200012207031
1056.45657156095	859
1057.14598531222	858
1057.83531171814	860.599975585938
1058.52455078646	858.799987792969
1059.21370252494	858
1059.90276694129	858.599975585938
1060.5917440433	859.200012207031
1061.28063383868	859.200012207031
1061.9694363352	858.799987792969
1062.65815154059	859
1063.34677946261	859.400024414063
1064.03532010899	860.599975585938
1064.72377348748	857.599975585938
1065.41213960583	858.799987792969
1066.10041847177	859.400024414063
1066.78861009306	858.599975585938
1067.47671447743	859.200012207031
1068.16473163263	859.200012207031
1068.85266156639	859.400024414063
1069.54050428647	858.400024414063
1070.2282598006	858.400024414063
1070.91592811652	860.200012207031
1071.60350924198	858.799987792969
1072.29100318471	859.799987792969
1072.97840995245	860.200012207031
1073.66572955295	858.599975585938
1074.35296199394	858.200012207031
1075.04010728316	858.799987792969
1075.72716542836	859.599975585938
1076.41413643726	858.799987792969
1077.10102031761	859
1077.78781707715	858.799987792969
1078.4745267236	859
1079.16114926471	858.400024414063
1079.84768470822	859
1080.53413306185	859
1081.22049433336	858.400024414063
1081.90676853046	859
1082.5929556609	859.400024414063
1083.27905573241	859.200012207031
1083.96506875272	858.799987792969
1084.65099472957	859.799987792969
1085.3368336707	859
1086.02258558383	858.599975585938
1086.70825047669	858.599975585938
1087.39382835703	858.799987792969
1088.07931923257	858.799987792969
1088.76472311104	858.400024414063
1089.45004000018	858.599975585938
1090.13526990771	857.400024414063
1090.82041284137	858.799987792969
1091.50546880889	860.799987792969
1092.19043781799	858.799987792969
1092.87531987642	859.200012207031
1093.56011499188	858.400024414063
1094.24482317212	858.400024414063
1094.92944442486	858.599975585938
1095.61397875783	860
1096.29842617876	859.200012207031
1096.98278669537	858.200012207031
1097.6670603154	857.799987792969
1098.35124704656	858
1099.03534689659	858.200012207031
1099.71935987322	857.799987792969
1100.40328598416	859
1101.08712523713	858.599975585938
1101.77087763988	858.799987792969
1102.45454320012	859.200012207031
1103.13812192557	859.200012207031
1103.82161382396	859
1104.50501890301	859.599975585938
1105.18833717045	858.200012207031
1105.87156863399	859
1106.55471330137	859.599975585938
1107.2377711803	858.400024414063
1107.9207422785	859.200012207031
1108.60362660369	860
1109.2864241636	859.200012207031
1109.96913496594	858.400024414063
1110.65175901844	859.400024414063
1111.33429632882	859.400024414063
1112.01674690479	859.599975585938
1112.69911075408	860.400024414063
1113.38138788439	858
1114.06357830346	859.599975585938
1114.745682019	859.200012207031
1115.42769903872	859.400024414063
1116.10962937035	860
1116.7914730216	859.599975585938
1117.47323000018	860.200012207031
1118.15490031382	859.400024414063
1118.83648397022	859.799987792969
1119.51798097712	859.200012207031
1120.1993913422	859.799987792969
1120.88071507321	860
1121.56195217784	860
1122.24310266381	860.799987792969
1122.92416653884	860.400024414063
1123.60514381064	859.400024414063
1124.28603448692	860.200012207031
1124.9668385754	859.200012207031
1125.64755608378	859.200012207031
1126.32818701978	859.799987792969
1127.00873139111	860
1127.68918920548	861
1128.3695604706	859.400024414063
1129.04984519419	860.599975585938
1129.73004338394	860
1130.41015504758	859.599975585938
1131.09018019281	859.799987792969
1131.77011882734	860.400024414063
1132.44997095888	859.599975585938
1133.12973659514	859.200012207031
1133.80941574381	859.599975585938
1134.48900841263	859.200012207031
1135.16851460927	859
1135.84793434147	860
1136.52726761692	859.400024414063
1137.20651444333	858.200012207031
1137.8856748284	859.599975585938
1138.56474877984	859.599975585938
1139.24373630536	859
1139.92263741265	859.799987792969
1140.60145210943	859.599975585938
1141.28018040339	859.200012207031
1141.95882230225	859.599975585938
1142.6373778137	860.200012207031
1143.31584694545	857.599975585938
1143.99422970519	858.799987792969
1144.67252610064	860.599975585938
1145.35073613949	859.599975585938
1146.02885982944	858.400024414063
1146.7068971782	859
1147.38484819347	858.799987792969
1148.06271288294	858.799987792969
1148.74049125432	858.599975585938
1149.41818331531	859.599975585938
1150.0957890736	859.799987792969
1150.77330853689	859.599975585938
1151.45074171289	860.400024414063
1152.12808860928	859.200012207031
1152.80534923378	858.799987792969
1153.48252359407	859
1154.15961169786	858.799987792969
1154.83661355283	859.599975585938
1155.51352916669	858.799987792969
1156.19035854713	859
1156.86710170185	859.200012207031
1157.54375863855	857.799987792969
1158.22032936491	858.799987792969
1158.89681388863	859.200012207031
1159.57321221741	859.200012207031
1160.24952435894	859.200012207031
1160.92575032092	859
1161.60189011103	858.799987792969
1162.27794373697	858.400024414063
1162.95391120644	859.799987792969
1163.62979252712	860
1164.3055877067	857.799987792969
1164.98129675288	858.400024414063
1165.65691967336	858.599975585938
1166.33245647581	858.599975585938
1167.00790716792	858.599975585938
1167.6832717574	859.799987792969
1168.35855025193	860
1169.0337426592	859
1169.70884898689	859.799987792969
1170.3838692427	859.799987792969
1171.05880343431	858
1171.73365156941	858.799987792969
1172.40841365569	859
1173.08308970083	858.200012207031
1173.75767971253	858.599975585938
1174.43218369847	858.799987792969
1175.10660166633	858.799987792969
1175.7809336238	859.400024414063
1176.45517957857	860.200012207031
1177.12933953832	858.400024414063
1177.80341351073	859.599975585938
1178.47740150349	858.799987792969
1179.15130352429	858.599975585938
1179.8251195808	858
1180.49884968071	859.400024414063
1181.1724938317	859.400024414063
1181.84605204145	858.799987792969
1182.51952431766	858
1183.19291066799	858
1183.86621110013	858.599975585938
1184.53942562176	859
1185.21255424057	859.599975585938
1185.88559696422	859.799987792969
1186.55855380041	859.400024414063
1187.2314247568	860.400024414063
1187.90420984109	858.799987792969
1188.57690906095	859.599975585938
1189.24952242405	859
1189.92204993808	858.200012207031
1190.59449161071	859.200012207031
1191.26684744962	858.599975585938
1191.93911746249	857.799987792969
1192.61130165699	859.200012207031
1193.28340004081	859.200012207031
1193.95541262161	859.599975585938
1194.62733940707	859
1195.29918040487	859.599975585938
1195.97093562269	859.200012207031
1196.64260506819	857.799987792969
1197.31418874905	858.400024414063
1197.98568667295	859
1198.65709884755	859.400024414063
1199.32842528053	858.200012207031
1199.99966597957	859
1200.67082095234	858.400024414063
1201.3418902065	858.599975585938
1202.01287374974	858.799987792969
1202.68377158971	858.599975585938
1203.3545837341	859.799987792969
1204.02531019057	859.799987792969
1204.6959509668	859.799987792969
1205.36650607045	858.200012207031
1206.03697550919	858.799987792969
1206.70735929069	859.400024414063
1207.37765742263	860
1208.04786991266	859.799987792969
1208.71799676846	859.400024414063
1209.38803799769	859
1210.05799360803	858.799987792969
1210.72786360714	858.599975585938
1211.39764800268	858.200012207031
1212.06734680233	859.400024414063
1212.73696001375	860.799987792969
1213.4064876446	860
1214.07592970255	858.400024414063
1214.74528619526	858.799987792969
1215.4145571304	859
1216.08374251564	860.400024414063
1216.75284235863	860.200012207031
1217.42185666704	858
1218.09078544854	859
1218.75962871078	859.400024414063
1219.42838646143	860
1220.09705870816	858.799987792969
1220.76564545861	859.599975585938
1221.43414672046	859
1222.10256250136	859.400024414063
1222.77089280898	859.200012207031
1223.43913765098	859.599975585938
1224.107297035	859.799987792969
1224.77537096873	859.200012207031
1225.44335945981	859.599975585938
1226.1112625159	859.400024414063
1226.77908014467	860.200012207031
1227.44681235376	859.799987792969
1228.11445915085	860.200012207031
1228.78202054357	860
1229.44949653961	861
1230.11688714659	858.799987792969
1230.7841923722	861
1231.45141222407	860
1232.11854670988	860.400024414063
1232.78559583726	860.200012207031
1233.45255961388	860.400024414063
1234.1194380474	860.400024414063
1234.78623114546	860.599975585938
1235.45293891572	859.799987792969
1236.11956136583	861.400024414063
1236.78609850345	859.599975585938
1237.45255033623	859.200012207031
1238.11891687182	859.599975585938
1238.78519811788	859.599975585938
1239.45139408205	859.799987792969
1240.11750477198	859.799987792969
1240.78353019534	859.200012207031
1241.44947035976	860.799987792969
1242.11532527291	860.200012207031
1242.78109494242	860.799987792969
1243.44677937595	860.799987792969
1244.11237858115	860.599975585938
1244.77789256567	860.400024414063
1245.44332133715	859.799987792969
1246.10866490325	859.799987792969
1246.7739232716	859.400024414063
1247.43909644987	860
1248.10418444569	859.799987792969
1248.76918726671	860.400024414063
1249.43410492059	860.200012207031
1250.09893741496	860.400024414063
1250.76368475747	859.799987792969
1251.42834695576	860.400024414063
1252.09292401749	860
1252.75741595029	860
1253.42182276182	860.200012207031
1254.08614445971	859.799987792969
1254.75038105161	859.799987792969
1255.41453254515	860.599975585938
1256.07859894799	859.200012207031
1256.74258026777	858.400024414063
1257.40647651213	860
1258.0702876887	859.200012207031
1258.73401380514	858.599975585938
1259.39765486908	859.599975585938
1260.06121088817	859
1260.72468187004	859.799987792969
1261.38806782233	858.200012207031
1262.05136875269	858.200012207031
1262.71458466875	859.599975585938
1263.37771557815	859.400024414063
1264.04076148854	859
1264.70372240753	859.400024414063
1265.3665983428	859.799987792969
1266.02938930195	859.799987792969
1266.69209529263	858.200012207031
1267.35471632249	859.599975585938
1268.01725239914	858.200012207031
1268.67970353024	859.799987792969
1269.34206972342	858.799987792969
1270.00435098631	859.799987792969
1270.66654732655	859.400024414063
1271.32865875177	859.799987792969
1271.9906852696	860
1272.65262688768	859.400024414063
1273.31448361365	859.400024414063
1273.97625545514	858.200012207031
1274.63794241978	858.799987792969
1275.2995445152	860
1275.96106174903	859.599975585938
1276.62249412892	859.200012207031
1277.28384166248	859.200012207031
1277.94510435735	857.799987792969
1278.60628222116	859.200012207031
1279.26737526155	859.400024414063
1279.92838348613	858.599975585938
1280.58930690255	859.200012207031
1281.25014551842	859.200012207031
1281.91089934139	859.200012207031
1282.57156837907	858.400024414063
1283.2321526391	859.799987792969
1283.89265212911	858.599975585938
1284.55306685671	860.200012207031
1285.21339682955	860
1285.87364205525	859.599975585938
1286.53380254142	859.200012207031
1287.19387829571	859.400024414063
1287.85386932573	859.799987792969
1288.51377563911	859.799987792969
1289.17359724348	860.200012207031
1289.83333414646	859.400024414063
1290.49298635567	859.400024414063
1291.15255387874	859.799987792969
1291.8120367233	858.400024414063
1292.47143489696	860
1293.13074840736	859.599975585938
1293.7899772621	859.799987792969
1294.44912146882	859.799987792969
1295.10818103513	859
1295.76715596866	859.799987792969
1296.42604627704	860.200012207031
1297.08485196787	859
1297.74357304878	859.200012207031
1298.4022095274	859.799987792969
1299.06076141134	860.200012207031
1299.71922870821	860.200012207031
1300.37761142565	860.400024414063
1301.03590957126	859.200012207031
1301.69412315268	859
1302.3522521775	859.200012207031
1303.01029665336	859.200012207031
1303.66825658787	860.400024414063
1304.32613198865	859.400024414063
1304.98392286332	860.799987792969
1305.64162921948	859.799987792969
1306.29925106476	859.799987792969
1306.95678840677	859.200012207031
1307.61424125312	859.599975585938
1308.27160961145	858.400024414063
1308.92889348934	860.400024414063
1309.58609289443	860.200012207031
1310.24320783432	860.400024414063
1310.90023831664	861.200012207031
1311.55718434898	860
1312.21404593897	859.799987792969
1312.87082309421	860.200012207031
1313.52751582233	860.400024414063
1314.18412413092	861.400024414063
1314.84064802761	859.799987792969
1315.49708752	861.799987792969
1316.1534426157	859.400024414063
1316.80971332233	861.799987792969
1317.46589964749	861.799987792969
1318.1220015988	860.599975585938
1318.77801918386	859.200012207031
1319.43395241028	860
1320.08980128567	861.200012207031
1320.74556581764	860.400024414063
1321.4012460138	858.599975585938
1322.05684188176	860.799987792969
1322.71235342911	861
1323.36778066347	858.599975585938
1324.02312359245	860.599975585938
1324.67838222365	861.400024414063
1325.33355656468	860.799987792969
1325.98864662314	859.799987792969
1326.64365240663	859.799987792969
1327.29857392277	861.400024414063
1327.95341117915	861
1328.60816418339	860.400024414063
1329.26283294308	860.799987792969
1329.91741746582	861.200012207031
1330.57191775923	860.200012207031
1331.2263338309	860
1331.88066568843	860
1332.53491333943	860
1333.1890767915	860.799987792969
1333.84315605224	860
1334.49715112925	859.799987792969
1335.15106203013	858.799987792969
1335.80488876249	862
1336.45863133391	858.799987792969
1337.112289752	860
1337.76586402437	861
1338.4193541586	861
1339.0727601623	859.599975585938
1339.72608204306	860.799987792969
1340.37931980849	860.400024414063
1341.03247346617	860.200012207031
1341.68554302372	859.599975585938
1342.33852848871	860.400024414063
1342.99142986876	860.200012207031
1343.64424717145	861
1344.29698040438	860.400024414063
1344.94962957515	860.200012207031
1345.60219469135	860.200012207031
1346.25467576058	860.400024414063
1346.90707279042	860.200012207031
1347.55938578848	859.599975585938
1348.21161476235	860
1348.86375971962	862.599975585938
1349.51582066787	861.400024414063
1350.16779761472	861.400024414063
1350.81969056774	860.400024414063
1351.47149953453	859.400024414063
1352.12322452269	861.200012207031
1352.77486553979	860
1353.42642259344	861
1354.07789569122	860.200012207031
1354.72928484072	859.799987792969
1355.38059004953	859.799987792969
1356.03181132525	861.200012207031
1356.68294867545	860.599975585938
1357.33400210773	860.400024414063
1357.98497162968	860.400024414063
1358.63585724889	860
1359.28665897294	860.799987792969
1359.93737680942	859.799987792969
1360.58801076591	860.200012207031
1361.23856085001	859.799987792969
1361.88902706929	860.200012207031
1362.53940943135	858.799987792969
1363.18970794377	860.799987792969
1363.83992261413	860.599975585938
1364.49005345003	860
1365.14010045904	861.400024414063
1365.79006364874	859.799987792969
1366.43994302673	860.200012207031
1367.08973860058	860.200012207031
1367.73945037788	860
1368.38907836621	858
1369.03862257315	860
1369.68808300629	860.400024414063
1370.3374596732	859
1370.98675258148	859.599975585938
1371.63596173868	859.400024414063
1372.28508715241	859.400024414063
1372.93412883024	859.599975585938
1373.58308677974	859
1374.2319610085	859.599975585938
1374.8807515241	860.400024414063
1375.52945833412	860
1376.17808144612	860.799987792969
1376.82662086771	860
1377.47507660644	860
1378.12344866989	860
1378.77173706565	860.200012207031
1379.41994180129	859
1380.06806288439	860.799987792969
1380.71610032252	860
1381.36405412326	860.400024414063
1382.01192429419	858.400024414063
1382.65971084287	860.599975585938
1383.30741377688	859.400024414063
1383.95503310381	860
1384.60256883121	860
1385.25002096667	859.799987792969
1385.89738951775	859.400024414063
1386.54467449204	861
1387.19187589709	860.200012207031
1387.8389937405	861.200012207031
1388.48602802982	860.599975585938
1389.13297877262	861
1389.77984597649	860.799987792969
1390.42662964899	861.400024414063
1391.07332979768	861
1391.71994643015	861
1392.36647955395	860.200012207031
1393.01292917667	860.400024414063
1393.65929530586	860.200012207031
1394.3055779491	861.599975585938
1394.95177711395	860.799987792969
1395.59789280799	860.599975585938
1396.24392503877	861.599975585938
1396.88987381387	860.599975585938
1397.53573914086	859.799987792969
1398.1815210273	861.200012207031
1398.82721948075	859.799987792969
1399.47283450878	859.799987792969
1400.11836611897	859.200012207031
1400.76381431886	860.400024414063
1401.40917911603	860.400024414063
1402.05446051805	860.599975585938
1402.69965853247	861.599975585938
1403.34477316686	860
1403.98980442878	859.799987792969
1404.6347523258	861.200012207031
1405.27961686548	861.599975585938
1405.92439805538	861.599975585938
1406.56909590306	862
1407.21371041608	861.599975585938
1407.85824160202	861.799987792969
1408.50268946841	860
1409.14705402284	861.799987792969
1409.79133527285	862.200012207031
1410.43553322601	861
1411.07964788987	862.200012207031
1411.723679272	861
1412.36762737996	862.200012207031
1413.01149222129	862
1413.65527380357	860.400024414063
1414.29897213435	862.799987792969
1414.94258722118	861.799987792969
1415.58611907163	861.599975585938
1416.22956769325	860.400024414063
1416.87293309359	862.799987792969
1417.51621528021	860.400024414063
1418.15941426067	861.799987792969
1418.80253004253	861.599975585938
1419.44556263333	860.599975585938
1420.08851204063	860.799987792969
1420.731378272	862.799987792969
1421.37416133497	860.799987792969
1422.0168612371	863
1422.65947798596	860
1423.30201158908	861.799987792969
1423.94446205403	863.200012207031
1424.58682938835	863.599975585938
1425.2291135996	862.400024414063
1425.87131469532	863.200012207031
1426.51343268308	863.200012207031
1427.15546757042	863.400024414063
1427.79741936488	862.200012207031
1428.43928807403	864
1429.0810737054	863.400024414063
1429.72277626656	863.400024414063
1430.36439576504	862.799987792969
1431.00593220841	862.799987792969
1431.64738560419	863.200012207031
1432.28875595995	862.599975585938
1432.93004328324	863
1433.57124758159	864
1434.21236886255	864.200012207031
1434.85340713368	865.400024414063
1435.49436240252	863.400024414063
1436.13523467661	864.599975585938
1436.77602396349	864.599975585938
1437.41673027073	865.200012207031
1438.05735360585	864.799987792969
1438.69789397641	864.200012207031
1439.33835138994	865.400024414063
1439.978725854	865.799987792969
1440.61901737612	864.599975585938
1441.25922596385	866.799987792969
1441.89935162473	865
1442.53939436631	864.799987792969
1443.17935419612	864.799987792969
1443.81923112171	864.400024414063
1444.45902515061	865.599975585938
1445.09873629038	866
1445.73836454854	864.599975585938
1446.37790993265	867.400024414063
1447.01737245024	865.599975585938
1447.65675210885	866
1448.29604891602	865.400024414063
1448.93526287928	862.799987792969
1449.57439400618	863.799987792969
1450.21344230426	863.599975585938
1450.85240778105	863.200012207031
1451.49129044409	864.200012207031
1452.13009030092	864.799987792969
1452.76880735907	863.200012207031
1453.40744162608	863.599975585938
1454.04599310949	862.799987792969
1454.68446181683	862.799987792969
1455.32284775564	863.400024414063
1455.96115093345	864.599975585938
1456.5993713578	862.400024414063
1457.23750903623	863.599975585938
1457.87556397626	862.200012207031
1458.51353618543	863.400024414063
1459.15142567127	862.799987792969
1459.78923244132	862.599975585938
1460.42695650311	863.400024414063
1461.06459786417	861
1461.70215653203	862.599975585938
1462.33963251423	860.599975585938
1462.97702581829	862.200012207031
1463.61433645175	861
1464.25156442214	860.599975585938
1464.88870973699	861.200012207031
1465.52577240382	860.799987792969
1466.16275243017	859.799987792969
1466.79964982356	861
1467.43646459154	861.400024414063
1468.07319674161	861.599975585938
1468.70984628132	861.799987792969
1469.34641321818	860.400024414063
1469.98289755974	862.200012207031
1470.6192993135	861
1471.25561848701	861.400024414063
1471.89185508779	860.599975585938
1472.52800912336	860.400024414063
1473.16408060124	860.799987792969
1473.80006952897	861.599975585938
1474.43597591407	859.200012207031
1475.07179976406	862.599975585938
1475.70754108647	860.799987792969
1476.34319988883	861
1476.97877617865	859.400024414063
1477.61426996345	861.400024414063
1478.24968125077	862
1478.88501004812	862.200012207031
1479.52025636303	862.400024414063
1480.15542020302	861.400024414063
1480.79050157561	861.599975585938
1481.42550048832	861.599975585938
1482.06041694867	861.799987792969
1482.69525096418	860.400024414063
1483.33000254237	860.799987792969
1483.96467169077	860.799987792969
1484.59925841689	860.799987792969
1485.23376272825	861.200012207031
1485.86818463237	861.799987792969
1486.50252413677	860.400024414063
1487.13678124896	860.799987792969
1487.77095597646	860.599975585938
1488.4050483268	862.200012207031
1489.03905830749	860
1489.67298592604	860.400024414063
1490.30683118996	860.400024414063
1490.9405941068	860.400024414063
1491.57427468403	860
1492.2078729292	861.799987792969
1492.84138884981	861.799987792969
1493.47482245338	860.400024414063
1494.10817374742	861
1494.74144273944	860.599975585938
1495.37462943696	860.200012207031
1496.0077338475	860.200012207031
1496.64075597856	860.400024414063
1497.27369583765	860.400024414063
1497.9065534323	859.799987792969
1498.53932877001	860.400024414063
1499.17202185829	860
1499.80463270465	860.799987792969
1500.43716131661	860.599975585938
1501.06960770167	860.599975585938
1501.70197186735	862.400024414063
1502.33425382116	859.599975585938
1502.96645357059	860.400024414063
1503.59857112317	861
1504.23060648641	860.599975585938
1504.8625596678	860.599975585938
1505.49443067486	860.400024414063
1506.1262195151	860
1506.75792619602	860
1507.38955072513	862
1508.02109310993	859.599975585938
1508.65255335794	860.599975585938
1509.28393147666	860.599975585938
1509.91522747359	860.599975585938
1510.54644135624	860.799987792969
1511.17757313212	859.799987792969
1511.80862280872	861.799987792969
1512.43959039356	860.599975585938
1513.07047589413	860.200012207031
1513.70127931795	860.799987792969
1514.33200067251	862.599975585938
1514.96263996531	862.400024414063
1515.59319720386	860.599975585938
1516.22367239567	861.200012207031
1516.85406554822	861.200012207031
1517.48437666903	861
1518.1146057656	860.200012207031
1518.74475284542	860.799987792969
1519.374817916	860.799987792969
1520.00480098483	861
1520.63470205942	860.400024414063
1521.26452114726	859.599975585938
1521.89425825586	860.799987792969
1522.52391339271	860.799987792969
1523.15348656531	860.799987792969
1523.78297778116	860.799987792969
1524.41238704775	860.799987792969
1525.04171437259	860.799987792969
1525.67095976317	860.200012207031
1526.30012322699	860
1526.92920477154	860
1527.55820440432	860.200012207031
1528.18712213283	859
1528.81595796455	860.400024414063
1529.44471190699	859
1530.07338396764	860.200012207031
1530.70197415399	860.799987792969
1531.33048247353	860.200012207031
1531.95890893377	860
1532.58725354219	859.200012207031
1533.21551630629	860.400024414063
1533.84369723356	859
1534.47179633148	859.599975585938
1535.09981360757	860.799987792969
1535.72774906929	859.799987792969
1536.35560272415	860.400024414063
1536.98337457963	859
1537.61106464323	860
1538.23867292243	860
1538.86619942473	859.200012207031
1539.49364415762	860.599975585938
1540.12100712857	860
1540.74828834509	859.599975585938
1541.37548781466	858.799987792969
1542.00260554478	859.200012207031
1542.62964154291	858.799987792969
1543.25659581655	858.799987792969
1543.8834683732	859.599975585938
1544.51025922034	859.799987792969
1545.13696836544	858.799987792969
1545.76359581601	859.799987792969
1546.39014157952	858.799987792969
1547.01660566345	859.599975585938
1547.64298807531	858.599975585938
1548.26928882255	859.400024414063
1548.89550791269	860
1549.52164535318	858
1550.14770115153	859
1550.77367531521	859
1551.39956785171	857.400024414063
1552.0253787685	859
1552.65110807307	860.599975585938
1553.2767557729	860.200012207031
1553.90232187548	860
1554.52780638828	859
1555.15320931879	859.400024414063
1555.77853067447	859
1556.40377046282	858.799987792969
1557.02892869132	858.799987792969
1557.65400536744	860.200012207031
1558.27900049866	860.400024414063
1558.90391409247	858.799987792969
1559.52874615633	858.599975585938
1560.15349669773	860.400024414063
1560.77816572414	859.599975585938
1561.40275324305	859.200012207031
1562.02725926192	858.200012207031
1562.65168378824	858.200012207031
1563.27602682948	859.599975585938
1563.90028839311	859.799987792969
1564.52446848662	858.599975585938
1565.14856711748	859.799987792969
1565.77258429316	859.200012207031
1566.39652002113	859.200012207031
1567.02037430887	859.599975585938
1567.64414716387	859.200012207031
1568.26783859357	858.799987792969
1568.89144860547	860
1569.51497720703	859.599975585938
1570.13842440573	859.200012207031
1570.76179020904	860.200012207031
1571.38507462442	858.599975585938
1572.00827765936	859
1572.63139932132	859.599975585938
1573.25443961777	859.200012207031
1573.87739855618	859.200012207031
1574.50027614402	858.799987792969
1575.12307238877	859.400024414063
1575.74578729789	860.200012207031
1576.36842087885	859.599975585938
1576.99097313912	858.799987792969
1577.61344408616	858.400024414063
1578.23583372745	859.200012207031
1578.85814207046	858.400024414063
1579.48036912264	857.799987792969
1580.10251489147	858.400024414063
1580.72457938441	858.799987792969
1581.34656260893	860
1581.9684645725	860.799987792969
1582.59028528258	859
1583.21202474663	858.799987792969
1583.83368297212	859.400024414063
1584.45525996652	858.799987792969
1585.07675573728	857.599975585938
1585.69817029188	858.799987792969
1586.31950363778	859.400024414063
1586.94075578243	859
1587.5619267333	859.400024414063
1588.18301649786	859.599975585938
1588.80402508357	859.200012207031
1589.42495249788	858.799987792969
1590.04579874826	858.799987792969
1590.66656384217	858.799987792969
1591.28724778707	859.799987792969
1591.90785059042	859.400024414063
1592.52837225968	860.799987792969
1593.14881280232	859.200012207031
1593.76917222578	859
1594.38945053753	860
1595.00964774502	859.599975585938
1595.62976385573	860
1596.24979887709	859.200012207031
1596.86975281657	859.200012207031
1597.48962568164	860.200012207031
1598.10941747974	859.400024414063
1598.72912821832	860.200012207031
1599.34875790486	858.799987792969
1599.9683065468	858.599975585938
1600.58777415159	859.799987792969
1601.2071607267	860.200012207031
1601.82646627958	859.200012207031
1602.44569081769	861
1603.06483434846	860.799987792969
1603.68389687937	860.400024414063
1604.30287841786	859.799987792969
1604.92177897139	860.200012207031
1605.54059854741	859.400024414063
1606.15933715337	860.799987792969
1606.77799479672	859
1607.39657148492	861.599975585938
1608.01506722542	860.799987792969
1608.63348202566	860.200012207031
1609.2518158931	861.599975585938
1609.87006883519	862.599975585938
1610.48824085939	861.200012207031
1611.10633197312	861.599975585938
1611.72434218386	861.799987792969
1612.34227149904	861.400024414063
1612.96011992612	861
1613.57788747254	860.599975585938
1614.19557414575	861.400024414063
1614.8131799532	861.200012207031
1615.43070490234	861.200012207031
1616.04814900061	862
1616.66551225545	863
1617.28279467433	861.799987792969
1617.89999626467	862.200012207031
1618.51711703393	862
1619.13415698955	861.400024414063
1619.75111613898	862.200012207031
1620.36799448966	861.400024414063
1620.98479204903	861.400024414063
1621.60150882455	862.599975585938
1622.21814482364	863.200012207031
1622.83470005376	863.400024414063
1623.45117452235	862
1624.06756823685	862
1624.6838812047	860.799987792969
1625.30011343335	862.400024414063
1625.91626493022	860.799987792969
1626.53233570278	862.400024414063
1627.14832575845	861.400024414063
1627.76423510468	860.400024414063
1628.38006374891	859.799987792969
1628.99581169857	861.599975585938
1629.61147896111	860.599975585938
1630.22706554397	859.400024414063
1630.84257145457	859.599975585938
1631.45799670038	860
1632.07334128881	860
1632.6886052273	859.799987792969
1633.3037885233	859.599975585938
1633.91889118425	859.400024414063
1634.53391321757	859.400024414063
1635.1488546307	858.599975585938
1635.76371543108	859.200012207031
1636.37849562616	859.200012207031
1636.99319522335	858.599975585938
1637.60781423009	858.599975585938
1638.22235265383	857.599975585938
1638.83681050198	858.599975585938
1639.451187782	858.400024414063
1640.0654845013	858.799987792969
1640.67970066734	859.200012207031
1641.29383628752	858.400024414063
1641.9078913693	857.200012207031
1642.5218659201	858.400024414063
1643.13575994735	858
1643.74957345849	858.200012207031
1644.36330646094	858.200012207031
1644.97695896213	858.599975585938
1645.59053096951	859
1646.20402249049	858.400024414063
1646.8174335325	859.200012207031
1647.43076410298	859.799987792969
1648.04401420935	859
1648.65718385905	857.799987792969
1649.2702730595	859.799987792969
1649.88328181812	859
1650.49621014236	858.200012207031
1651.10905803963	858.400024414063
1651.72182551735	858
1652.33451258297	858.599975585938
1652.9471192439	857.599975585938
1653.55964550757	858.599975585938
1654.1720913814	858.400024414063
1654.78445687283	858.400024414063
1655.39674198926	857.599975585938
1656.00894673814	858.599975585938
1656.62107112688	858.200012207031
1657.23311516291	858.799987792969
1657.84507885365	858.400024414063
1658.45696220652	859.599975585938
1659.06876522895	858.400024414063
1659.68048792835	858.200012207031
1660.29213031217	858.200012207031
1660.90369238779	858.200012207031
1661.51517416267	859.200012207031
1662.12657564421	858
1662.73789683984	857.599975585938
1663.34913775697	857.400024414063
1663.96029840303	857.799987792969
1664.57137878544	859.200012207031
1665.18237891161	858.200012207031
1665.79329878897	858.400024414063
1666.40413842493	858.400024414063
1667.01489782691	858.200012207031
1667.62557700233	858.799987792969
1668.2361759586	857.799987792969
1668.84669470315	858.799987792969
1669.4571332434	859.400024414063
1670.06749158675	857.799987792969
1670.67776974062	858.599975585938
1671.28796771243	857.799987792969
1671.8980855096	859.400024414063
1672.50812313954	859.400024414063
1673.11808060967	858.799987792969
1673.72795792739	857.400024414063
1674.33775510013	857.599975585938
1674.9474721353	857.799987792969
1675.55710904031	859.200012207031
1676.16666582257	858.400024414063
1676.7761424895	857.200012207031
1677.38553904851	858.599975585938
1677.99485550702	858.200012207031
1678.60409187243	858.200012207031
1679.21324815215	858.799987792969
1679.8223243536	858.799987792969
1680.43132048419	859.200012207031
1681.04023655132	858.400024414063
1681.64907256241	858
1682.25782852487	857.400024414063
1682.86650444611	859
1683.47510033353	858
1684.08361619455	857.200012207031
1684.69205203657	859.200012207031
1685.300407867	857.799987792969
1685.90868369325	858.200012207031
1686.51687952272	857.400024414063
1687.12499536283	858.200012207031
1687.73303122098	858.400024414063
1688.34098710457	858.200012207031
1688.94886302101	857.599975585938
1689.55665897772	858.200012207031
1690.16437498208	857.400024414063
1690.77201104152	858.200012207031
1691.37956716342	857.799987792969
1691.9870433552	858.799987792969
1692.59443962426	858.799987792969
1693.20175597801	858.799987792969
1693.80899242384	858.200012207031
1694.41614896916	857.599975585938
1695.02322562138	857.599975585938
1695.63022238789	857.799987792969
1696.23713927609	857.400024414063
1696.8439762934	857.799987792969
1697.4507334472	857.200012207031
1698.05741074491	858.599975585938
1698.66400819391	858.400024414063
1699.27052580161	858.400024414063
1699.87696357542	858.400024414063
1700.48332152272	857.400024414063
1701.08959965092	859.400024414063
1701.69579796742	858.200012207031
1702.30191647962	858
1702.90795519491	857.799987792969
1703.51391412069	858
1704.11979326437	856.599975585938
1704.72559263332	858.599975585938
1705.33131223496	857
1705.93695207668	858.200012207031
1706.54251216588	859.200012207031
1707.14799250994	857.200012207031
1707.75339311628	858
1708.35871399227	857.599975585938
1708.96395514532	857.799987792969
1709.56911658282	858.400024414063
