634.948122577771	862.200012207031
635.690341530823	860.400024414063
636.43246851086	860.200012207031
637.174503525845	861.799987792969
637.916446583745	862.599975585938
638.658297692538	862.200012207031
639.400056860179	860.599975585938
640.141724094637	862.200012207031
640.883299403885	862
641.62478279588	861.200012207031
642.366174278594	861.599975585938
643.107473859989	861
643.848681548029	861.200012207031
644.589797350679	861.200012207031
645.330821275901	861.599975585938
646.071753331665	861.200012207031
646.812593525922	861.599975585938
647.553341866646	863.200012207031
648.293998361798	860.799987792969
649.03456301933	862.200012207031
649.775035847216	861.400024414063
650.515416853409	861.200012207031
651.255706045874	862.200012207031
651.995903432568	861
652.736009021453	862
653.476022820486	860
654.215944837629	862.200012207031
654.955775080842	860.599975585938
655.695513558081	862.200012207031
656.435160277301	861
657.174715246465	862.400024414063
657.914178473527	861.400024414063
658.653549966449	862.799987792969
659.392829733176	862.400024414063
660.132017781678	862.200012207031
660.871114119901	862.400024414063
661.610118755803	863.200012207031
662.349031697343	861.599975585938
663.087852952468	861.599975585938
663.826582529139	862
664.565220435305	862
665.30376667892	862.400024414063
666.04222126794	862.599975585938
666.780584210316	861.799987792969
667.518855514	862.400024414063
668.25703518694	862.200012207031
668.995123237096	862.799987792969
669.733119672413	862.400024414063
670.471024500842	863.799987792969
671.208837730333	860.799987792969
671.946559368839	862.400024414063
672.684189424308	862.599975585938
673.421727904689	862.400024414063
674.159174817929	863.599975585938
674.896530171977	863.400024414063
675.633793974786	864.799987792969
676.370966234295	861.400024414063
677.108046958461	862.599975585938
677.845036155219	864
678.581933832528	861.200012207031
679.318739998323	863.200012207031
680.055454660558	863.200012207031
680.792077827172	862.400024414063
681.528609506116	864.799987792969
682.265049705331	864
683.001398432759	864
683.737655696349	863.400024414063
684.47382150404	864.599975585938
685.20989586378	865
685.945878783503	863.599975585938
686.68177027116	865
687.417570334688	867.599975585938
688.153278982032	866.200012207031
688.888896221129	868.400024414063
689.624422059921	867.599975585938
690.359856506349	869.400024414063
691.095199568354	867
691.830451253874	867
692.565611570844	866
693.300680527212	866.400024414063
694.03565813091	866.799987792969
694.770544389877	863.200012207031
695.505339312053	864.200012207031
696.240042905372	865
696.974655177772	862.599975585938
697.70917613719	863
698.443605791561	861.400024414063
699.177944148826	862.400024414063
699.912191216909	863.200012207031
700.646347003755	863.599975585938
701.380411517295	862.200012207031
702.114384765465	862
702.848266756195	862.799987792969
703.582057497421	862.200012207031
704.315756997074	863.400024414063
705.049365263089	861.799987792969
705.782882303399	862.200012207031
706.516308125936	862
707.249642738626	861.799987792969
707.982886149403	861.799987792969
708.716038366204	861.599975585938
709.449099396949	862
710.182069249577	862
710.914947932009	861.400024414063
711.647735452181	863
712.380431818022	862
713.113037037454	861
713.845551118411	861.599975585938
714.577974068818	861.200012207031
715.310305896604	861.400024414063
716.042546609694	862.200012207031
716.774696216013	863.599975585938
717.506754723493	861
718.238722140053	861.200012207031
718.970598473624	862.599975585938
719.702383732127	862
720.43407792349	860.599975585938
721.165681055634	861.799987792969
721.897193136486	862
722.628614173966	859.799987792969
723.359944175997	861.599975585938
724.091183150505	860.599975585938
724.822331105412	861
725.553388048638	860.200012207031
726.284353988106	861.200012207031
727.015228931734	860.599975585938
727.746012887449	860.599975585938
728.476705863162	860.200012207031
729.207307866803	861.200012207031
729.937818906289	862.200012207031
730.668238989535	861
731.398568124459	859.400024414063
732.128806318986	861.400024414063
732.858953581034	861
733.589009918514	861.400024414063
734.318975339348	860
735.048849851452	861.400024414063
735.778633462744	860.799987792969
736.508326181137	860.599975585938
737.237928014549	861.599975585938
737.967438970897	860.400024414063
738.696859058095	861.799987792969
739.426188284054	861
740.155426656692	861.200012207031
740.884574183922	860.799987792969
741.613630873659	861.799987792969
742.342596733815	861
743.071471772302	861
743.800255997034	861
744.528949415921	861
745.257552036877	860
745.986063867811	861.400024414063
746.714484916638	860.400024414063
747.442815191261	860.599975585938
748.171054699597	861
748.899203449554	861.799987792969
749.627261449039	860.799987792969
750.355228705966	861.599975585938
751.083105228239	860.200012207031
751.810891023765	860.799987792969
752.538586100459	860.200012207031
753.266190466218	862.599975585938
753.99370412896	862.400024414063
754.721127096582	861.799987792969
755.448459377	861.599975585938
756.175700978114	863.400024414063
756.902851907828	862.599975585938
757.629912174055	861
758.356881784688	862.400024414063
759.083760747639	860.200012207031
759.810549070817	860.400024414063
760.537246762113	860
761.263853829442	860.200012207031
761.990370280698	861.400024414063
762.716796123791	861.200012207031
763.443131366618	862.599975585938
764.169376017082	861.400024414063
764.895530083085	862.400024414063
765.621593572527	860.799987792969
766.347566493312	861.400024414063
767.073448853336	862.400024414063
767.799240660502	862.400024414063
768.524941922707	862
769.250552647854	862.200012207031
769.976072843836	863.599975585938
770.701502518551	862.200012207031
771.426841679905	862
772.152090335793	863.799987792969
772.877248494107	861.799987792969
773.602316162747	861.599975585938
774.327293349609	862.200012207031
775.052180062592	861.400024414063
775.776976309589	863.200012207031
776.501682098496	862
777.226297437206	863
777.950822333616	860.599975585938
778.675256795621	862.400024414063
779.399600831111	860.799987792969
780.123854447983	860.799987792969
780.84801765413	861.799987792969
781.572090457441	862.599975585938
782.296072865811	861.799987792969
783.019964887131	860.599975585938
783.743766529297	861.799987792969
784.467477800194	861.400024414063
785.191098707719	861.599975585938
785.914629259756	861.200012207031
786.638069464194	860.400024414063
787.361419328932	861.200012207031
788.084678861852	861.799987792969
788.807848070845	861.200012207031
789.530926963798	861
790.253915548602	861
790.976813833144	859.799987792969
791.699621825307	861.200012207031
792.422339532986	861.400024414063
793.144966964061	861.599975585938
793.86750412642	860.200012207031
794.589951027946	861.400024414063
795.312307676536	861.400024414063
796.03457408006	860.400024414063
796.756750246417	859.799987792969
797.478836183477	861.200012207031
798.200831899137	860.599975585938
798.92273740127	860.799987792969
799.644552697769	861.200012207031
800.36627779651	861.799987792969
801.087912705374	860.599975585938
801.809457432251	861.200012207031
802.530911985017	860.599975585938
803.252276371558	862.200012207031
803.973550599748	862
804.694734677472	863.400024414063
805.415828612611	861.400024414063
806.136832413045	862.799987792969
806.857746086646	861.200012207031
807.578569641305	861.400024414063
808.299303084892	861
809.019946425289	860.799987792969
809.740499670372	862
810.460962828022	860.799987792969
811.181335906114	862.200012207031
811.901618912524	862.799987792969
812.621811855131	862
813.341914741809	862.400024414063
814.061927580433	861.599975585938
814.781850378881	862.200012207031
815.501683145025	861.799987792969
816.221425886743	862
816.941078611903	861.599975585938
817.660641328387	861.799987792969
818.380114044065	861.400024414063
819.099496766808	860.599975585938
819.818789504492	859.599975585938
820.53799226499	860.799987792969
821.257105056168	861.599975585938
821.976127885904	861.400024414063
822.695060762064	861.599975585938
823.413903692525	862.200012207031
824.132656685151	862
824.851319747817	861.799987792969
825.569892888388	861.200012207031
826.288376114739	862.200012207031
827.006769434737	862
827.725072856249	862
828.443286387142	861
829.161410035285	860.599975585938
829.87944380855	860
830.597387714798	861.799987792969
831.315241761898	861.400024414063
832.033005957715	862
832.750680310119	859.799987792969
833.468264826969	862.599975585938
834.18575951614	861.599975585938
834.903164385486	861.599975585938
835.620479442878	859.599975585938
836.337704696181	861.200012207031
837.054840153255	861.599975585938
837.771885821962	861.200012207031
838.488841710172	860.200012207031
839.20570782574	860.599975585938
839.922484176531	860
840.639170770409	861.400024414063
841.355767615231	860.799987792969
842.072274718864	861.400024414063
842.788692089164	862.400024414063
843.505019733993	862.400024414063
844.221257661209	860.799987792969
844.937405878676	861.599975585938
845.65346439425	861.200012207031
846.369433215789	861
847.085312351156	862.400024414063
847.801101808205	860.799987792969
848.516801594793	863.400024414063
849.232411718781	860
849.947932188021	860.799987792969
850.663363010376	861.400024414063
851.378704193698	861.599975585938
852.093955745842	862.400024414063
852.809117674669	862.599975585938
853.524189988028	862
854.239172693778	861
854.954065799768	860.400024414063
855.668869313857	861
856.383583243899	861.799987792969
857.098207597743	862.400024414063
857.812742383246	862.200012207031
858.527187608255	863
859.241543280628	862.799987792969
859.955809408218	862.799987792969
860.669985998868	863.400024414063
861.384073060437	862.799987792969
862.098070600772	863.200012207031
862.811978627724	862.599975585938
863.52579714914	861.599975585938
864.239526172873	861
864.953165706776	862.200012207031
865.666715758687	863.599975585938
866.380176336464	863.200012207031
867.093547447951	862
867.806829100996	862.400024414063
868.520021303444	860.599975585938
869.233124063149	861.400024414063
869.94613738795	862.200012207031
870.659061285693	861.400024414063
871.37189576423	862.599975585938
872.084640831403	861.799987792969
872.797296495057	862
873.509862763039	861.400024414063
874.22233964319	862.599975585938
874.934727143353	863
875.647025271374	862.599975585938
876.359234035097	861.599975585938
877.071353442361	863.200012207031
877.783383501015	862.599975585938
878.495324218895	861.599975585938
879.207175603844	861.200012207031
879.918937663705	862
880.630610406318	862
881.342193839524	862.599975585938
882.053687971161	863.599975585938
882.765092809069	863.200012207031
883.476408361091	863.599975585938
884.187634635066	862
884.898771638828	862.200012207031
885.609819380221	862
886.320777867076	862.799987792969
887.031647107236	862.599975585938
887.742427108536	863.200012207031
888.453117878816	862.599975585938
889.16371942591	862.200012207031
889.874231757652	861.799987792969
890.584654881883	861.200012207031
891.294988806434	863.599975585938
892.005233539141	865
892.715389087837	861.599975585938
893.42545546036	862.599975585938
894.135432664543	864.599975585938
894.845320708216	863
895.555119599216	863.599975585938
896.264829345375	863.799987792969
896.974449954526	862.200012207031
897.683981434496	863.799987792969
898.393423793125	862.200012207031
899.102777038235	863.599975585938
899.812041177664	863.400024414063
900.521216219239	861.200012207031
901.230302170793	862.200012207031
901.939299040155	863.200012207031
902.64820683515	863.200012207031
903.357025563612	864.200012207031
904.065755233368	863.200012207031
904.774395852247	862
905.482947428076	863.200012207031
906.191409968682	864
906.899783481897	862
907.608067975538	863.599975585938
908.316263457443	863.200012207031
909.02436993543	862.200012207031
909.732387417327	863.400024414063
910.440315910959	862.400024414063
911.148155424154	862.599975585938
911.855905964731	863.200012207031
912.563567540521	862.400024414063
913.271140159339	863.400024414063
913.978623829017	864.200012207031
914.686018557374	861.799987792969
915.393324352237	862.599975585938
916.100541221421	863
916.807669172752	863
917.514708214054	862.799987792969
918.221658353142	861.400024414063
918.928519597843	862.400024414063
919.635291955976	861.200012207031
920.341975435358	861
921.048570043813	861.400024414063
921.75507578916	861.799987792969
922.461492679212	863
923.167820721795	862.599975585938
923.874059924726	862
924.58021029582	862.200012207031
925.286271842893	861.799987792969
925.992244573769	861.400024414063
926.698128496262	861.400024414063
927.403923618184	860.599975585938
928.109629947355	861.200012207031
928.815247491593	862
929.520776258708	861.200012207031
930.226216256519	861.599975585938
930.931567492841	861.799987792969
931.636829975482	860.599975585938
932.342003712263	861.799987792969
933.047088710995	860.799987792969
933.752084979491	861
934.456992525564	860.799987792969
935.161811357024	862.599975585938
935.866541481688	862.200012207031
936.571182907363	861.799987792969
937.275735641861	861.400024414063
937.980199692995	861
938.684575068572	861.799987792969
939.388861776411	861.599975585938
940.093059824311	860
940.797169220085	860.799987792969
941.501189971544	861.200012207031
942.205122086495	862
942.908965572751	860.599975585938
943.612720438111	862.200012207031
944.316386690391	860.799987792969
945.019964337391	862.599975585938
945.723453386924	861.799987792969
946.426853846795	862.200012207031
947.130165724808	861.599975585938
947.83338902877	861.200012207031
948.536523766488	863.400024414063
949.239569945764	861.599975585938
949.942527574402	863.200012207031
950.64539666021	861
951.348177210993	859.799987792969
952.050869234548	861.599975585938
952.753472738683	860.599975585938
953.455987731199	860.200012207031
954.158414219898	861.599975585938
954.860752212587	861
955.563001717061	861.799987792969
956.265162741124	860.200012207031
956.967235292576	861.599975585938
957.669219379224	861.599975585938
958.371115008857	861.200012207031
959.072922189283	861.599975585938
959.774640928301	861.599975585938
960.476271233708	861.799987792969
961.177813113301	861.599975585938
961.879266574882	861.599975585938
962.580631626248	861.400024414063
963.281908275194	860.799987792969
963.98309652952	861.200012207031
964.684196397022	861.599975585938
965.3852078855	862.400024414063
966.086131002745	860.400024414063
966.786965756555	861.799987792969
967.487712154726	861
968.188370205055	860.599975585938
968.888939915331	860.599975585938
969.589421293352	860
970.289814346909	859.799987792969
970.990119083801	861
971.690335511819	862.400024414063
972.39046363875	861.599975585938
973.090503472398	861.599975585938
973.790455020545	862.200012207031
974.490318290987	860.599975585938
975.190093291516	862.400024414063
975.889780029923	861.799987792969
976.589378513998	861.799987792969
977.288888751527	861.200012207031
977.988310750308	860.400024414063
978.687644518122	860.599975585938
979.386890062767	861.400024414063
980.086047392025	861
980.785116513689	861.400024414063
981.484097435542	861.200012207031
982.182990165377	861.400024414063
982.88179471098	861.799987792969
983.580511080137	860.200012207031
984.279139280632	862.200012207031
984.977679320253	862
985.67613120679	860
986.374494948027	862
987.072770551745	861.799987792969
987.770958025731	860.799987792969
988.469057377772	860.400024414063
989.167068615649	861.599975585938
989.864991747145	859.599975585938
990.562826780047	861.599975585938
991.260573722134	861.200012207031
991.958232581195	860.799987792969
992.655803365003	860.799987792969
993.353286081346	861.799987792969
994.050680738006	861.599975585938
994.74798734276	861.200012207031
995.44520590339	861.799987792969
996.142336427681	860.200012207031
996.839378923407	861.799987792969
997.536333398348	861.200012207031
998.233199860289	861.200012207031
998.929978317004	861.400024414063
999.626668776274	862.400024414063
1000.32327124587	861.200012207031
1001.01978573359	861.400024414063
1001.71621224718	860.200012207031
1002.41255079445	862.200012207031
1003.10880138315	861.200012207031
1003.80496402107	861.200012207031
1004.50103871599	862.599975585938
1005.19702547567	860.400024414063
1005.8929243079	860.599975585938
1006.58873522045	860.799987792969
1007.2844582211	861.400024414063
1007.98009331761	861.599975585938
1008.67564051776	861.599975585938
1009.37109982933	861.599975585938
1010.06647126009	862
1010.7617548178	861.799987792969
1011.45695051026	861.400024414063
1012.15205834522	861.599975585938
1012.84707833045	861.599975585938
1013.54201047373	862.400024414063
1014.23685478284	862.599975585938
1014.93161126553	862.799987792969
1015.62627992959	860.400024414063
1016.32086078277	861.200012207031
1017.01535383285	862.599975585938
1017.70975908761	861.599975585938
1018.40407655479	861
1019.09830624219	861.799987792969
1019.79244815755	862.200012207031
1020.48650230866	862.400024414063
1021.18046870328	862.400024414063
1021.87434734917	863.400024414063
1022.56813825411	862
1023.26184142584	863
1023.95545687216	862.799987792969
1024.64898460082	863.799987792969
1025.34242461957	864.400024414063
1026.0357769362	863.200012207031
1026.72904155846	863.799987792969
1027.42221849412	864.200012207031
1028.11530775094	865.200012207031
1028.80830933668	864.599975585938
1029.50122325911	865
1030.19404952599	865.799987792969
1030.88678814508	863.799987792969
1031.57943912414	865.200012207031
1032.27200247093	865.599975585938
1032.96447819323	864.400024414063
1033.65686629878	864.400024414063
1034.34916679534	863.599975585938
1035.04137969068	863.200012207031
1035.73350499256	864.599975585938
1036.42554270874	864.200012207031
1037.11749284697	863.200012207031
1037.80935541501	862.200012207031
1038.50113042062	863.599975585938
1039.19281787156	863.799987792969
1039.88441777559	862.599975585938
1040.57593014046	862.400024414063
1041.26735497393	864
1041.95869228376	862.400024414063
1042.6499420777	863.400024414063
1043.3411043635	861.400024414063
1044.03217914893	861.400024414063
1044.72316644174	862
1045.41406624968	863
1046.1048785805	861.599975585938
1046.79560344197	861.799987792969
1047.48624084182	861.200012207031
1048.17679078783	862.400024414063
1048.86725328774	861.799987792969
1049.55762834929	861.599975585938
1050.24791598025	862.599975585938
1050.93811618837	862
1051.62822898139	863
1052.31825436707	860.599975585938
1053.00819235315	861.400024414063
1053.6980429474	860.599975585938
1054.38780615755	861
1055.07748199136	862.400024414063
1055.76707045658	862
1056.45657156095	862.200012207031
1057.14598531222	861.400024414063
1057.83531171814	861
1058.52455078646	862.400024414063
1059.21370252494	861.599975585938
1059.90276694129	861.200012207031
1060.5917440433	861.599975585938
1061.28063383868	862.599975585938
1061.9694363352	862
1062.65815154059	862.200012207031
1063.34677946261	862.799987792969
1064.03532010899	861.400024414063
1064.72377348748	862.599975585938
1065.41213960583	862.799987792969
1066.10041847177	863
1066.78861009306	862.799987792969
1067.47671447743	861.599975585938
1068.16473163263	863
1068.85266156639	861.799987792969
1069.54050428647	863.200012207031
1070.2282598006	862.599975585938
1070.91592811652	862.200012207031
1071.60350924198	861.799987792969
1072.29100318471	863.400024414063
1072.97840995245	861.799987792969
1073.66572955295	861.400024414063
1074.35296199394	862.400024414063
1075.04010728316	863.200012207031
1075.72716542836	861.799987792969
1076.41413643726	862.200012207031
1077.10102031761	861.400024414063
1077.78781707715	862.200012207031
1078.4745267236	862
1079.16114926471	861.599975585938
1079.84768470822	862.400024414063
1080.53413306185	861.400024414063
1081.22049433336	863
1081.90676853046	860.400024414063
1082.5929556609	861.599975585938
1083.27905573241	861.200012207031
1083.96506875272	862.599975585938
1084.65099472957	862.200012207031
1085.3368336707	862.200012207031
1086.02258558383	860.799987792969
1086.70825047669	862.200012207031
1087.39382835703	862.200012207031
1088.07931923257	861
1088.76472311104	861.799987792969
1089.45004000018	860.799987792969
1090.13526990771	860
1090.82041284137	861
1091.50546880889	861.599975585938
1092.19043781799	862
1092.87531987642	861
1093.56011499188	861.799987792969
1094.24482317212	861
1094.92944442486	861.400024414063
1095.61397875783	861.400024414063
1096.29842617876	861.599975585938
1096.98278669537	861.799987792969
1097.6670603154	861.599975585938
1098.35124704656	860.599975585938
1099.03534689659	860.200012207031
1099.71935987322	863
1100.40328598416	861.200012207031
1101.08712523713	862.200012207031
1101.77087763988	861.400024414063
1102.45454320012	860.799987792969
1103.13812192557	861.400024414063
1103.82161382396	860.200012207031
1104.50501890301	863.799987792969
1105.18833717045	861.599975585938
1105.87156863399	862
1106.55471330137	861
1107.2377711803	861.400024414063
1107.9207422785	861.799987792969
1108.60362660369	862.599975585938
1109.2864241636	862.400024414063
1109.96913496594	860.599975585938
1110.65175901844	862.400024414063
1111.33429632882	863.200012207031
1112.01674690479	863
1112.69911075408	861.599975585938
1113.38138788439	862.200012207031
1114.06357830346	864.200012207031
1114.745682019	862.799987792969
1115.42769903872	863.200012207031
1116.10962937035	862.400024414063
1116.7914730216	863.200012207031
1117.47323000018	862.599975585938
1118.15490031382	860.799987792969
1118.83648397022	861.599975585938
1119.51798097712	864.599975585938
1120.1993913422	862.400024414063
1120.88071507321	863.599975585938
1121.56195217784	865
1122.24310266381	862.400024414063
1122.92416653884	863.400024414063
1123.60514381064	863.799987792969
1124.28603448692	864
1124.9668385754	864
1125.64755608378	864
1126.32818701978	863.799987792969
1127.00873139111	863.799987792969
1127.68918920548	862.599975585938
1128.3695604706	862.599975585938
1129.04984519419	864
1129.73004338394	864
1130.41015504758	863
1131.09018019281	863.400024414063
1131.77011882734	863
1132.44997095888	864.200012207031
1133.12973659514	864.799987792969
1133.80941574381	863.400024414063
1134.48900841263	863.599975585938
1135.16851460927	863.599975585938
1135.84793434147	864.200012207031
1136.52726761692	863.599975585938
1137.20651444333	863
1137.8856748284	863.200012207031
1138.56474877984	863
1139.24373630536	863.400024414063
1139.92263741265	862.599975585938
1140.60145210943	863.599975585938
1141.28018040339	863
1141.95882230225	863.599975585938
1142.6373778137	863.200012207031
1143.31584694545	862
1143.99422970519	862
1144.67252610064	861.599975585938
1145.35073613949	863.400024414063
1146.02885982944	862
1146.7068971782	862
1147.38484819347	863.400024414063
1148.06271288294	862.799987792969
1148.74049125432	863.400024414063
1149.41818331531	864
1150.0957890736	862.200012207031
1150.77330853689	861.799987792969
1151.45074171289	863.400024414063
1152.12808860928	862.400024414063
1152.80534923378	863.200012207031
1153.48252359407	864.599975585938
1154.15961169786	861.599975585938
1154.83661355283	861.200012207031
1155.51352916669	861.799987792969
1156.19035854713	862.200012207031
1156.86710170185	863
1157.54375863855	862.599975585938
1158.22032936491	862
1158.89681388863	861.599975585938
1159.57321221741	861.200012207031
1160.24952435894	863
1160.92575032092	863.799987792969
1161.60189011103	862.200012207031
1162.27794373697	862
1162.95391120644	860.599975585938
1163.62979252712	862.200012207031
1164.3055877067	862
1164.98129675288	863.400024414063
1165.65691967336	862.400024414063
1166.33245647581	862.799987792969
1167.00790716792	862
1167.6832717574	861
1168.35855025193	862.599975585938
1169.0337426592	861.200012207031
1169.70884898689	861
1170.3838692427	862.200012207031
1171.05880343431	861
1171.73365156941	862
1172.40841365569	860.799987792969
1173.08308970083	863
1173.75767971253	862.200012207031
1174.43218369847	862.200012207031
1175.10660166633	861.200012207031
1175.7809336238	860.599975585938
1176.45517957857	860.400024414063
1177.12933953832	862
1177.80341351073	861.599975585938
1178.47740150349	862.400024414063
1179.15130352429	861.400024414063
1179.8251195808	861
1180.49884968071	861.599975585938
1181.1724938317	862.799987792969
1181.84605204145	861.599975585938
1182.51952431766	861
1183.19291066799	862.400024414063
1183.86621110013	864.400024414063
1184.53942562176	862.400024414063
1185.21255424057	862.599975585938
1185.88559696422	862
1186.55855380041	862.400024414063
1187.2314247568	862.799987792969
1187.90420984109	862.799987792969
1188.57690906095	862
1189.24952242405	862.400024414063
1189.92204993808	862
1190.59449161071	864.200012207031
1191.26684744962	862.200012207031
1191.93911746249	862.799987792969
1192.61130165699	862.200012207031
1193.28340004081	862.799987792969
1193.95541262161	863
1194.62733940707	861.400024414063
1195.29918040487	862.400024414063
1195.97093562269	861.200012207031
1196.64260506819	862.799987792969
1197.31418874905	862.599975585938
1197.98568667295	862.400024414063
1198.65709884755	860.599975585938
1199.32842528053	863.200012207031
1199.99966597957	861.799987792969
1200.67082095234	862.599975585938
1201.3418902065	862.599975585938
1202.01287374974	863
1202.68377158971	861.799987792969
1203.3545837341	862.799987792969
1204.02531019057	861.799987792969
1204.6959509668	861.599975585938
1205.36650607045	862.799987792969
1206.03697550919	863
1206.70735929069	861.200012207031
1207.37765742263	862.400024414063
1208.04786991266	863.599975585938
1208.71799676846	861.799987792969
1209.38803799769	864
1210.05799360803	863
1210.72786360714	864.200012207031
1211.39764800268	862.400024414063
1212.06734680233	861.200012207031
1212.73696001375	861.200012207031
1213.4064876446	862.799987792969
1214.07592970255	863.200012207031
1214.74528619526	863.400024414063
1215.4145571304	864
1216.08374251564	863.799987792969
1216.75284235863	863
1217.42185666704	863.599975585938
1218.09078544854	863.400024414063
1218.75962871078	863.799987792969
1219.42838646143	862.599975585938
1220.09705870816	863.599975585938
1220.76564545861	864
1221.43414672046	864.599975585938
1222.10256250136	863.599975585938
1222.77089280898	863.400024414063
1223.43913765098	864.200012207031
1224.107297035	864.400024414063
1224.77537096873	864.799987792969
1225.44335945981	862.200012207031
1226.1112625159	863
1226.77908014467	861.599975585938
1227.44681235376	862.400024414063
1228.11445915085	862
1228.78202054357	862.599975585938
1229.44949653961	864
1230.11688714659	864
1230.7841923722	863.799987792969
1231.45141222407	862.599975585938
1232.11854670988	864.400024414063
1232.78559583726	862.799987792969
1233.45255961388	863.200012207031
1234.1194380474	865
1234.78623114546	863.799987792969
1235.45293891572	862.799987792969
1236.11956136583	863.200012207031
1236.78609850345	863.400024414063
1237.45255033623	863.200012207031
1238.11891687182	864.599975585938
1238.78519811788	862.799987792969
1239.45139408205	863.799987792969
1240.11750477198	863
1240.78353019534	862.799987792969
1241.44947035976	864.599975585938
1242.11532527291	863
1242.78109494242	864.200012207031
1243.44677937595	863.599975585938
1244.11237858115	862.599975585938
1244.77789256567	862
1245.44332133715	863.200012207031
1246.10866490325	863.599975585938
1246.7739232716	864.400024414063
1247.43909644987	864.400024414063
1248.10418444569	863.599975585938
1248.76918726671	864.599975585938
1249.43410492059	864
1250.09893741496	864
1250.76368475747	861.799987792969
1251.42834695576	862.799987792969
1252.09292401749	861.799987792969
1252.75741595029	863.200012207031
1253.42182276182	863.599975585938
1254.08614445971	864.200012207031
1254.75038105161	862
1255.41453254515	863.200012207031
1256.07859894799	864.400024414063
1256.74258026777	864
1257.40647651213	863
1258.0702876887	862.799987792969
1258.73401380514	863.200012207031
1259.39765486908	862.799987792969
1260.06121088817	862.200012207031
1260.72468187004	861.799987792969
1261.38806782233	862.799987792969
1262.05136875269	862.599975585938
1262.71458466875	864.200012207031
1263.37771557815	863.599975585938
1264.04076148854	862
1264.70372240753	863.200012207031
1265.3665983428	862.400024414063
1266.02938930195	864
1266.69209529263	863.799987792969
1267.35471632249	863
1268.01725239914	861.599975585938
1268.67970353024	863.599975585938
1269.34206972342	861.599975585938
1270.00435098631	862.799987792969
1270.66654732655	863.400024414063
1271.32865875177	862
1271.9906852696	862.599975585938
1272.65262688768	863.599975585938
1273.31448361365	862
1273.97625545514	863.599975585938
1274.63794241978	863.400024414063
1275.2995445152	863.599975585938
1275.96106174903	863.400024414063
1276.62249412892	863
1277.28384166248	863.599975585938
1277.94510435735	863.400024414063
1278.60628222116	863.599975585938
1279.26737526155	862.799987792969
1279.92838348613	864
1280.58930690255	864.200012207031
1281.25014551842	862.799987792969
1281.91089934139	862.599975585938
1282.57156837907	862.200012207031
1283.2321526391	863.400024414063
1283.89265212911	863
1284.55306685671	863
1285.21339682955	863
1285.87364205525	863
1286.53380254142	863.400024414063
1287.19387829571	862.200012207031
1287.85386932573	862.799987792969
1288.51377563911	862.200012207031
1289.17359724348	863.599975585938
1289.83333414646	862.200012207031
1290.49298635567	862.400024414063
1291.15255387874	861.400024414063
1291.8120367233	864
1292.47143489696	863.599975585938
1293.13074840736	865.599975585938
1293.7899772621	863
1294.44912146882	863.200012207031
1295.10818103513	862.799987792969
1295.76715596866	863
1296.42604627704	862.400024414063
1297.08485196787	864.599975585938
1297.74357304878	864.200012207031
1298.4022095274	863.400024414063
1299.06076141134	864
1299.71922870821	861.799987792969
1300.37761142565	861.599975585938
1301.03590957126	863
1301.69412315268	864.400024414063
1302.3522521775	864.799987792969
1303.01029665336	866
1303.66825658787	864.400024414063
1304.32613198865	864.400024414063
1304.98392286332	864.200012207031
1305.64162921948	862.799987792969
1306.29925106476	864.200012207031
1306.95678840677	864.799987792969
1307.61424125312	863.200012207031
1308.27160961145	865.200012207031
1308.92889348934	863.200012207031
1309.58609289443	864.599975585938
1310.24320783432	866.599975585938
1310.90023831664	866.200012207031
1311.55718434898	863.599975585938
1312.21404593897	866
1312.87082309421	865.599975585938
1313.52751582233	864.799987792969
1314.18412413092	864
1314.84064802761	863.799987792969
1315.49708752	864.799987792969
1316.1534426157	865
1316.80971332233	864
1317.46589964749	864.799987792969
1318.1220015988	865
1318.77801918386	865.400024414063
1319.43395241028	865.200012207031
1320.08980128567	864.200012207031
1320.74556581764	866.200012207031
1321.4012460138	864
1322.05684188176	865.599975585938
1322.71235342911	864.799987792969
1323.36778066347	864.599975585938
1324.02312359245	865
1324.67838222365	865.599975585938
1325.33355656468	865.200012207031
1325.98864662314	865.599975585938
1326.64365240663	864.400024414063
1327.29857392277	865
1327.95341117915	863.799987792969
1328.60816418339	865
1329.26283294308	864.400024414063
1329.91741746582	865
1330.57191775923	864.799987792969
1331.2263338309	863.799987792969
1331.88066568843	863.799987792969
1332.53491333943	865.400024414063
1333.1890767915	863.799987792969
1333.84315605224	865.799987792969
1334.49715112925	864
1335.15106203013	864.400024414063
1335.80488876249	864.400024414063
1336.45863133391	864.400024414063
1337.112289752	863.200012207031
1337.76586402437	863.599975585938
1338.4193541586	863.799987792969
1339.0727601623	864.599975585938
1339.72608204306	864.200012207031
1340.37931980849	863.799987792969
1341.03247346617	864.599975585938
1341.68554302372	865.400024414063
1342.33852848871	864.400024414063
1342.99142986876	864.200012207031
1343.64424717145	866.400024414063
1344.29698040438	864.799987792969
1344.94962957515	865
1345.60219469135	865
1346.25467576058	864
1346.90707279042	864
1347.55938578848	867
1348.21161476235	863.599975585938
1348.86375971962	865.599975585938
1349.51582066787	864.599975585938
1350.16779761472	862.799987792969
1350.81969056774	865.400024414063
1351.47149953453	866
1352.12322452269	863.799987792969
1352.77486553979	865
1353.42642259344	863.799987792969
1354.07789569122	866.200012207031
1354.72928484072	863.799987792969
1355.38059004953	866
1356.03181132525	865
1356.68294867545	866.599975585938
1357.33400210773	865.400024414063
1357.98497162968	864.599975585938
1358.63585724889	864.599975585938
1359.28665897294	864.799987792969
1359.93737680942	865
1360.58801076591	865.799987792969
1361.23856085001	862.799987792969
1361.88902706929	864.799987792969
1362.53940943135	863.200012207031
1363.18970794377	865.400024414063
1363.83992261413	864.200012207031
1364.49005345003	864.400024414063
1365.14010045904	863
1365.79006364874	863
1366.43994302673	865.400024414063
1367.08973860058	864.200012207031
1367.73945037788	863.799987792969
1368.38907836621	862.599975585938
1369.03862257315	864.200012207031
1369.68808300629	865.400024414063
1370.3374596732	865.200012207031
1370.98675258148	865.799987792969
1371.63596173868	864.799987792969
1372.28508715241	864.200012207031
1372.93412883024	865
1373.58308677974	865
1374.2319610085	864
1374.8807515241	864
1375.52945833412	866
1376.17808144612	864.200012207031
1376.82662086771	866.200012207031
1377.47507660644	866.200012207031
1378.12344866989	865.400024414063
1378.77173706565	864
1379.41994180129	866.200012207031
1380.06806288439	865
1380.71610032252	863.799987792969
1381.36405412326	864.400024414063
1382.01192429419	866.400024414063
1382.65971084287	865.400024414063
1383.30741377688	864.799987792969
1383.95503310381	866.799987792969
1384.60256883121	865
1385.25002096667	865.400024414063
1385.89738951775	864.599975585938
1386.54467449204	867.799987792969
1387.19187589709	866
1387.8389937405	866
1388.48602802982	866.400024414063
1389.13297877262	866.599975585938
1389.77984597649	866.200012207031
1390.42662964899	867.599975585938
1391.07332979768	866.200012207031
1391.71994643015	864.799987792969
1392.36647955395	865.400024414063
1393.01292917667	866
1393.65929530586	867
1394.3055779491	866.599975585938
1394.95177711395	865
1395.59789280799	867.599975585938
1396.24392503877	867.200012207031
1396.88987381387	867
1397.53573914086	867.599975585938
1398.1815210273	866.400024414063
1398.82721948075	867.599975585938
1399.47283450878	867.400024414063
1400.11836611897	865.400024414063
1400.76381431886	867.200012207031
1401.40917911603	865.400024414063
1402.05446051805	867.200012207031
1402.69965853247	868
1403.34477316686	866.400024414063
1403.98980442878	865.200012207031
1404.6347523258	866.599975585938
1405.27961686548	866.599975585938
1405.92439805538	865.400024414063
1406.56909590306	867.599975585938
1407.21371041608	867
1407.85824160202	867.400024414063
1408.50268946841	867
1409.14705402284	865.400024414063
1409.79133527285	867.599975585938
1410.43553322601	865.599975585938
1411.07964788987	867.599975585938
1411.723679272	866.599975585938
1412.36762737996	867.799987792969
1413.01149222129	866.799987792969
1413.65527380357	867.400024414063
1414.29897213435	867.599975585938
1414.94258722118	866.400024414063
1415.58611907163	867
1416.22956769325	867.200012207031
1416.87293309359	868.400024414063
1417.51621528021	868.200012207031
1418.15941426067	868.200012207031
1418.80253004253	867.599975585938
1419.44556263333	868
1420.08851204063	870.200012207031
1420.731378272	869.599975585938
1421.37416133497	868.799987792969
1422.0168612371	869
1422.65947798596	869.200012207031
1423.30201158908	869.200012207031
1423.94446205403	870
1424.58682938835	869.799987792969
1425.2291135996	869.799987792969
1425.87131469532	871.799987792969
1426.51343268308	869
1427.15546757042	869.799987792969
1427.79741936488	871.200012207031
1428.43928807403	868.400024414063
1429.0810737054	871.599975585938
1429.72277626656	872.599975585938
1430.36439576504	871
1431.00593220841	870
1431.64738560419	873.200012207031
1432.28875595995	874.400024414063
1432.93004328324	874.400024414063
1433.57124758159	874.599975585938
1434.21236886255	872.200012207031
1434.85340713368	874.200012207031
1435.49436240252	873.400024414063
1436.13523467661	873
1436.77602396349	872
1437.41673027073	872.599975585938
1438.05735360585	874.400024414063
1438.69789397641	870.400024414063
1439.33835138994	873.799987792969
1439.978725854	872.599975585938
1440.61901737612	874.400024414063
1441.25922596385	873.400024414063
1441.89935162473	873.400024414063
1442.53939436631	872
1443.17935419612	873
1443.81923112171	873.799987792969
1444.45902515061	873.200012207031
1445.09873629038	873.400024414063
1445.73836454854	874.200012207031
1446.37790993265	871
1447.01737245024	873
1447.65675210885	871.200012207031
1448.29604891602	871.200012207031
1448.93526287928	871.599975585938
1449.57439400618	872.599975585938
1450.21344230426	872
1450.85240778105	871.599975585938
1451.49129044409	871.200012207031
1452.13009030092	869.200012207031
1452.76880735907	871.200012207031
1453.40744162608	872.799987792969
1454.04599310949	869.799987792969
1454.68446181683	870.400024414063
1455.32284775564	871.799987792969
1455.96115093345	870.400024414063
1456.5993713578	869.400024414063
1457.23750903623	870.400024414063
1457.87556397626	869
1458.51353618543	869.200012207031
1459.15142567127	869
1459.78923244132	868
1460.42695650311	868.599975585938
1461.06459786417	865.799987792969
1461.70215653203	868.400024414063
1462.33963251423	867.599975585938
1462.97702581829	866
1463.61433645175	869
1464.25156442214	867.200012207031
1464.88870973699	867.599975585938
1465.52577240382	867.200012207031
1466.16275243017	867.799987792969
1466.79964982356	866.200012207031
1467.43646459154	865.400024414063
1468.07319674161	867.400024414063
1468.70984628132	866.799987792969
1469.34641321818	868
1469.98289755974	869
1470.6192993135	867.400024414063
1471.25561848701	867.599975585938
1471.89185508779	866.599975585938
1472.52800912336	866.400024414063
1473.16408060124	867
1473.80006952897	867.400024414063
1474.43597591407	867.200012207031
1475.07179976406	867
1475.70754108647	865.599975585938
1476.34319988883	868.200012207031
1476.97877617865	867
1477.61426996345	866.200012207031
1478.24968125077	866.599975585938
1478.88501004812	866.799987792969
1479.52025636303	866.200012207031
1480.15542020302	865.599975585938
1480.79050157561	866.799987792969
1481.42550048832	866.400024414063
1482.06041694867	867
1482.69525096418	868
1483.33000254237	866.599975585938
1483.96467169077	865.200012207031
1484.59925841689	865.400024414063
1485.23376272825	865
1485.86818463237	867.599975585938
1486.50252413677	866.200012207031
1487.13678124896	866.799987792969
1487.77095597646	864.200012207031
1488.4050483268	866
1489.03905830749	865.599975585938
1489.67298592604	866.200012207031
1490.30683118996	867.200012207031
1490.9405941068	865.400024414063
1491.57427468403	865.599975585938
1492.2078729292	865.400024414063
1492.84138884981	865.400024414063
1493.47482245338	865.400024414063
1494.10817374742	865.599975585938
1494.74144273944	865.599975585938
1495.37462943696	865.400024414063
1496.0077338475	864.599975585938
1496.64075597856	866
1497.27369583765	866
1497.9065534323	866.799987792969
1498.53932877001	866.200012207031
1499.17202185829	867.200012207031
1499.80463270465	864
1500.43716131661	864.200012207031
1501.06960770167	866.200012207031
1501.70197186735	865.400024414063
1502.33425382116	864.400024414063
1502.96645357059	864.799987792969
1503.59857112317	867.400024414063
1504.23060648641	866.400024414063
1504.8625596678	866.599975585938
1505.49443067486	866
1506.1262195151	865.599975585938
1506.75792619602	865.400024414063
1507.38955072513	865.200012207031
1508.02109310993	865
1508.65255335794	864.400024414063
1509.28393147666	865.599975585938
1509.91522747359	864.599975585938
1510.54644135624	865.599975585938
1511.17757313212	865.599975585938
1511.80862280872	866.200012207031
1512.43959039356	865.400024414063
1513.07047589413	866
1513.70127931795	865.400024414063
1514.33200067251	865.799987792969
1514.96263996531	863
1515.59319720386	865.200012207031
1516.22367239567	865.200012207031
1516.85406554822	866.400024414063
1517.48437666903	865.799987792969
1518.1146057656	866.200012207031
1518.74475284542	865
1519.374817916	866.200012207031
1520.00480098483	864
1520.63470205942	866.200012207031
1521.26452114726	865.200012207031
1521.89425825586	865.599975585938
1522.52391339271	866
1523.15348656531	865
1523.78297778116	866.400024414063
1524.41238704775	865.200012207031
1525.04171437259	866.400024414063
1525.67095976317	865
1526.30012322699	865.200012207031
1526.92920477154	865.599975585938
1527.55820440432	864.599975585938
1528.18712213283	864.599975585938
1528.81595796455	864.799987792969
1529.44471190699	864.200012207031
1530.07338396764	864
1530.70197415399	863.599975585938
1531.33048247353	863.799987792969
1531.95890893377	863.599975585938
1532.58725354219	865.200012207031
1533.21551630629	864.799987792969
1533.84369723356	863.799987792969
1534.47179633148	863
1535.09981360757	863.400024414063
1535.72774906929	864.200012207031
1536.35560272415	863.799987792969
1536.98337457963	863.599975585938
1537.61106464323	862.799987792969
1538.23867292243	863.599975585938
1538.86619942473	863.400024414063
1539.49364415762	862.599975585938
1540.12100712857	864.200012207031
1540.74828834509	862.799987792969
1541.37548781466	862.200012207031
1542.00260554478	863.200012207031
1542.62964154291	863.599975585938
1543.25659581655	863.200012207031
1543.8834683732	864
1544.51025922034	864.400024414063
1545.13696836544	861.400024414063
1545.76359581601	862.799987792969
1546.39014157952	861.400024414063
1547.01660566345	863.599975585938
1547.64298807531	862.200012207031
1548.26928882255	862.599975585938
1548.89550791269	862.599975585938
1549.52164535318	863.200012207031
1550.14770115153	862.200012207031
1550.77367531521	861.799987792969
1551.39956785171	862.799987792969
1552.0253787685	862
1552.65110807307	862.799987792969
1553.2767557729	862.400024414063
1553.90232187548	862.200012207031
1554.52780638828	862.400024414063
1555.15320931879	862.799987792969
1555.77853067447	862.599975585938
1556.40377046282	861.799987792969
1557.02892869132	862.799987792969
1557.65400536744	862
1558.27900049866	863.200012207031
1558.90391409247	863.599975585938
1559.52874615633	864.200012207031
1560.15349669773	861.799987792969
1560.77816572414	863.599975585938
1561.40275324305	861.200012207031
1562.02725926192	861.799987792969
1562.65168378824	861.799987792969
1563.27602682948	862.200012207031
1563.90028839311	862.599975585938
1564.52446848662	862
1565.14856711748	862.799987792969
1565.77258429316	861.799987792969
1566.39652002113	862.400024414063
1567.02037430887	862.599975585938
1567.64414716387	862
1568.26783859357	862
1568.89144860547	861.599975585938
1569.51497720703	862.799987792969
1570.13842440573	863
1570.76179020904	861.400024414063
1571.38507462442	861.599975585938
1572.00827765936	862.400024414063
1572.63139932132	862.200012207031
1573.25443961777	863.200012207031
1573.87739855618	862.400024414063
1574.50027614402	861.799987792969
1575.12307238877	862.799987792969
1575.74578729789	862.799987792969
1576.36842087885	861
1576.99097313912	864.400024414063
1577.61344408616	862.400024414063
1578.23583372745	862.400024414063
1578.85814207046	863.799987792969
1579.48036912264	863
1580.10251489147	862.400024414063
1580.72457938441	863
1581.34656260893	862.400024414063
1581.9684645725	862.799987792969
1582.59028528258	863.200012207031
1583.21202474663	864
1583.83368297212	863.400024414063
1584.45525996652	863
1585.07675573728	862.799987792969
1585.69817029188	861.799987792969
1586.31950363778	861.599975585938
1586.94075578243	861.200012207031
1587.5619267333	863.200012207031
1588.18301649786	863.200012207031
1588.80402508357	862.400024414063
1589.42495249788	863.200012207031
1590.04579874826	862.799987792969
1590.66656384217	863.799987792969
1591.28724778707	863.599975585938
1591.90785059042	862.599975585938
1592.52837225968	863.200012207031
1593.14881280232	862.799987792969
1593.76917222578	862.599975585938
1594.38945053753	863
1595.00964774502	862
1595.62976385573	863.200012207031
1596.24979887709	862.599975585938
1596.86975281657	863.599975585938
1597.48962568164	864
1598.10941747974	864.799987792969
1598.72912821832	863.599975585938
1599.34875790486	863.400024414063
1599.9683065468	865
1600.58777415159	863.599975585938
1601.2071607267	864.400024414063
1601.82646627958	864.799987792969
1602.44569081769	863.400024414063
1603.06483434846	865.799987792969
1603.68389687937	863.400024414063
1604.30287841786	864.799987792969
1604.92177897139	865
1605.54059854741	864
1606.15933715337	864.200012207031
1606.77799479672	864.200012207031
1607.39657148492	864.599975585938
1608.01506722542	863.400024414063
1608.63348202566	864.400024414063
1609.2518158931	865.400024414063
1609.87006883519	865.799987792969
1610.48824085939	867.400024414063
1611.10633197312	866.799987792969
1611.72434218386	865.400024414063
1612.34227149904	866.400024414063
1612.96011992612	866.200012207031
1613.57788747254	866.599975585938
1614.19557414575	867.799987792969
1614.8131799532	867.799987792969
1615.43070490234	869.200012207031
1616.04814900061	868.200012207031
1616.66551225545	869.400024414063
1617.28279467433	868.599975585938
1617.89999626467	867.400024414063
1618.51711703393	869.400024414063
1619.13415698955	870.799987792969
1619.75111613898	871.200012207031
1620.36799448966	870.400024414063
1620.98479204903	871.799987792969
1621.60150882455	872.599975585938
1622.21814482364	870.599975585938
1622.83470005376	870.799987792969
1623.45117452235	869
1624.06756823685	869.200012207031
1624.6838812047	871.200012207031
1625.30011343335	872.400024414063
1625.91626493022	870.200012207031
1626.53233570278	869.400024414063
1627.14832575845	870
1627.76423510468	869.400024414063
1628.38006374891	870.400024414063
1628.99581169857	869
1629.61147896111	870.200012207031
1630.22706554397	868.799987792969
1630.84257145457	867.599975585938
1631.45799670038	867.599975585938
1632.07334128881	866
1632.6886052273	866.400024414063
1633.3037885233	864.599975585938
1633.91889118425	863.599975585938
1634.53391321757	865.799987792969
1635.1488546307	864.400024414063
1635.76371543108	863.400024414063
1636.37849562616	863.200012207031
1636.99319522335	863.799987792969
1637.60781423009	862.799987792969
1638.22235265383	862.200012207031
1638.83681050198	864.200012207031
1639.451187782	864
1640.0654845013	861.799987792969
1640.67970066734	861.599975585938
1641.29383628752	862.400024414063
1641.9078913693	861.799987792969
1642.5218659201	862
1643.13575994735	862
1643.74957345849	862
1644.36330646094	861.200012207031
1644.97695896213	859.799987792969
1645.59053096951	863
1646.20402249049	860.799987792969
1646.8174335325	861.799987792969
1647.43076410298	862.599975585938
1648.04401420935	860.400024414063
1648.65718385905	861.400024414063
1649.2702730595	862
1649.88328181812	861
1650.49621014236	861.400024414063
1651.10905803963	861.599975585938
1651.72182551735	860.200012207031
1652.33451258297	862.200012207031
1652.9471192439	860.599975585938
1653.55964550757	862
1654.1720913814	860
1654.78445687283	861
1655.39674198926	859.799987792969
1656.00894673814	860.400024414063
1656.62107112688	861
1657.23311516291	861.799987792969
1657.84507885365	862.200012207031
1658.45696220652	859.799987792969
1659.06876522895	860.599975585938
1659.68048792835	859.400024414063
1660.29213031217	860.200012207031
1660.90369238779	860.799987792969
1661.51517416267	861
1662.12657564421	860.400024414063
1662.73789683984	860.599975585938
1663.34913775697	862
1663.96029840303	860.799987792969
1664.57137878544	860.400024414063
1665.18237891161	861
1665.79329878897	860.599975585938
1666.40413842493	860.400024414063
1667.01489782691	859.799987792969
1667.62557700233	861
1668.2361759586	860.400024414063
1668.84669470315	860.799987792969
1669.4571332434	861.200012207031
1670.06749158675	862.200012207031
1670.67776974062	860
1671.28796771243	862.200012207031
1671.8980855096	860.400024414063
1672.50812313954	861.200012207031
1673.11808060967	859
1673.72795792739	861.200012207031
1674.33775510013	859.599975585938
1674.9474721353	859.599975585938
1675.55710904031	861
1676.16666582257	860.200012207031
1676.7761424895	859.599975585938
1677.38553904851	860.200012207031
1677.99485550702	860.200012207031
1678.60409187243	860.200012207031
1679.21324815215	861.400024414063
1679.8223243536	860.799987792969
1680.43132048419	861.200012207031
1681.04023655132	859.400024414063
1681.64907256241	860.599975585938
1682.25782852487	861.400024414063
1682.86650444611	861
1683.47510033353	860.599975585938
1684.08361619455	859.400024414063
1684.69205203657	859.799987792969
1685.300407867	860.599975585938
1685.90868369325	860.200012207031
1686.51687952272	861
1687.12499536283	860.400024414063
1687.73303122098	860.400024414063
1688.34098710457	860.799987792969
1688.94886302101	860.799987792969
1689.55665897772	859.799987792969
1690.16437498208	860
1690.77201104152	860.799987792969
1691.37956716342	858.599975585938
1691.9870433552	859.200012207031
1692.59443962426	859.400024414063
1693.20175597801	860.599975585938
1693.80899242384	861.400024414063
1694.41614896916	859
1695.02322562138	859.200012207031
1695.63022238789	859.599975585938
1696.23713927609	860.799987792969
1696.8439762934	860.799987792969
1697.4507334472	860.200012207031
1698.05741074491	859.799987792969
1698.66400819391	859.400024414063
1699.27052580161	860
1699.87696357542	858.599975585938
1700.48332152272	860.200012207031
1701.08959965092	859.200012207031
1701.69579796742	859.200012207031
1702.30191647962	859
1702.90795519491	859.799987792969
1703.51391412069	858.799987792969
1704.11979326437	859.599975585938
1704.72559263332	859.799987792969
1705.33131223496	860.200012207031
1705.93695207668	858.400024414063
1706.54251216588	859
1707.14799250994	860.200012207031
1707.75339311628	859.400024414063
1708.35871399227	859.799987792969
1708.96395514532	858.200012207031
1709.56911658282	859.200012207031
