634.948122577771	857.799987792969
635.690341530823	857.599975585938
636.43246851086	857.400024414063
637.174503525845	857.200012207031
637.916446583745	857
638.658297692538	856.799987792969
639.400056860179	856.799987792969
640.141724094637	858
640.883299403885	857.799987792969
641.62478279588	857.400024414063
642.366174278594	856.599975585938
643.107473859989	857.799987792969
643.848681548029	856.400024414063
644.589797350679	858.799987792969
645.330821275901	856.599975585938
646.071753331665	856.799987792969
646.812593525922	859.200012207031
647.553341866646	857.400024414063
648.293998361798	857.799987792969
649.03456301933	858
649.775035847216	858
650.515416853409	857.200012207031
651.255706045874	857
651.995903432568	858.200012207031
652.736009021453	858.200012207031
653.476022820486	856.799987792969
654.215944837629	857.799987792969
654.955775080842	857.799987792969
655.695513558081	857.799987792969
656.435160277301	858.599975585938
657.174715246465	858
657.914178473527	857.400024414063
658.653549966449	857.799987792969
659.392829733176	857.200012207031
660.132017781678	857.799987792969
660.871114119901	857.200012207031
661.610118755803	858.200012207031
662.349031697343	858
663.087852952468	857.599975585938
663.826582529139	858.400024414063
664.565220435305	858.200012207031
665.30376667892	859
666.04222126794	858.599975585938
666.780584210316	857.599975585938
667.518855514	857.799987792969
668.25703518694	858.799987792969
668.995123237096	858.400024414063
669.733119672413	859
670.471024500842	858.200012207031
671.208837730333	859
671.946559368839	856.799987792969
672.684189424308	858.799987792969
673.421727904689	858.599975585938
674.159174817929	858
674.896530171977	857.400024414063
675.633793974786	858
676.370966234295	859
677.108046958461	859.200012207031
677.845036155219	859.599975585938
678.581933832528	859.799987792969
679.318739998323	859.799987792969
680.055454660558	859.400024414063
680.792077827172	860.200012207031
681.528609506116	858.200012207031
682.265049705331	857.400024414063
683.001398432759	859.599975585938
683.737655696349	858.799987792969
684.47382150404	860.799987792969
685.20989586378	860
685.945878783503	858.200012207031
686.68177027116	859.799987792969
687.417570334688	859.799987792969
688.153278982032	859
688.888896221129	858.200012207031
689.624422059921	858.400024414063
690.359856506349	858.599975585938
691.095199568354	859.400024414063
691.830451253874	859
692.565611570844	859.200012207031
693.300680527212	859.400024414063
694.03565813091	857.200012207031
694.770544389877	857.400024414063
695.505339312053	856.799987792969
696.240042905372	857
696.974655177772	856.799987792969
697.70917613719	859.400024414063
698.443605791561	858.200012207031
699.177944148826	857.200012207031
699.912191216909	857.799987792969
700.646347003755	856.200012207031
701.380411517295	857
702.114384765465	858
702.848266756195	856.599975585938
703.582057497421	857.400024414063
704.315756997074	856.400024414063
705.049365263089	857.799987792969
705.782882303399	856.599975585938
706.516308125936	856.799987792969
707.249642738626	856.799987792969
707.982886149403	856.599975585938
708.716038366204	857.200012207031
709.449099396949	857
710.182069249577	857
710.914947932009	857.799987792969
711.647735452181	857
712.380431818022	857.200012207031
713.113037037454	857.200012207031
713.845551118411	856.599975585938
714.577974068818	856.599975585938
715.310305896604	857.599975585938
716.042546609694	857.400024414063
716.774696216013	857
717.506754723493	858.200012207031
718.238722140053	858.400024414063
718.970598473624	858.400024414063
719.702383732127	858.200012207031
720.43407792349	857
721.165681055634	856
721.897193136486	856.200012207031
722.628614173966	857.599975585938
723.359944175997	856.799987792969
724.091183150505	857.599975585938
724.822331105412	857.400024414063
725.553388048638	857.799987792969
726.284353988106	857
727.015228931734	857.599975585938
727.746012887449	857.400024414063
728.476705863162	856.799987792969
729.207307866803	857.200012207031
729.937818906289	857
730.668238989535	857.799987792969
731.398568124459	857.599975585938
732.128806318986	856.799987792969
732.858953581034	857.200012207031
733.589009918514	857.400024414063
734.318975339348	856.599975585938
735.048849851452	856.400024414063
735.778633462744	857
736.508326181137	856.400024414063
737.237928014549	856.799987792969
737.967438970897	857
738.696859058095	857.599975585938
739.426188284054	857.400024414063
740.155426656692	856.599975585938
740.884574183922	857
741.613630873659	857.400024414063
742.342596733815	857.200012207031
743.071471772302	856.200012207031
743.800255997034	857.200012207031
744.528949415921	856.400024414063
745.257552036877	856
745.986063867811	857
746.714484916638	858.200012207031
747.442815191261	856.799987792969
748.171054699597	857
748.899203449554	856.599975585938
749.627261449039	858.400024414063
750.355228705966	857
751.083105228239	857.400024414063
751.810891023765	857.400024414063
752.538586100459	857.799987792969
753.266190466218	856.599975585938
753.99370412896	857.599975585938
754.721127096582	857.200012207031
755.448459377	855.799987792969
756.175700978114	856.200012207031
756.902851907828	857.599975585938
757.629912174055	857
758.356881784688	856.599975585938
759.083760747639	857.400024414063
759.810549070817	857.599975585938
760.537246762113	856.599975585938
761.263853829442	857.599975585938
761.990370280698	857
762.716796123791	856.400024414063
763.443131366618	857
764.169376017082	856.599975585938
764.895530083085	857.400024414063
765.621593572527	856.599975585938
766.347566493312	856.200012207031
767.073448853336	857
767.799240660502	857.400024414063
768.524941922707	857
769.250552647854	857.599975585938
769.976072843836	857
770.701502518551	857.400024414063
771.426841679905	856.400024414063
772.152090335793	857.200012207031
772.877248494107	856.599975585938
773.602316162747	857.799987792969
774.327293349609	856.400024414063
775.052180062592	856.200012207031
775.776976309589	857.799987792969
776.501682098496	856.400024414063
777.226297437206	857
777.950822333616	857.200012207031
778.675256795621	857.200012207031
779.399600831111	857
780.123854447983	856.799987792969
780.84801765413	856.400024414063
781.572090457441	856
782.296072865811	856.799987792969
783.019964887131	856.599975585938
783.743766529297	856.799987792969
784.467477800194	857
785.191098707719	857.599975585938
785.914629259756	858.200012207031
786.638069464194	856.400024414063
787.361419328932	857.599975585938
788.084678861852	857
788.807848070845	857.200012207031
789.530926963798	857.599975585938
790.253915548602	858
790.976813833144	857.400024414063
791.699621825307	857
792.422339532986	856.200012207031
793.144966964061	856.799987792969
793.86750412642	857.200012207031
794.589951027946	858.599975585938
795.312307676536	857
796.03457408006	857.200012207031
796.756750246417	857.200012207031
797.478836183477	856.599975585938
798.200831899137	856.599975585938
798.92273740127	857
799.644552697769	856.799987792969
800.36627779651	856.599975585938
801.087912705374	857.200012207031
801.809457432251	857.599975585938
802.530911985017	856.799987792969
803.252276371558	856.599975585938
803.973550599748	856.200012207031
804.694734677472	857.200012207031
805.415828612611	856.799987792969
806.136832413045	857
806.857746086646	857.599975585938
807.578569641305	856.799987792969
808.299303084892	856.400024414063
809.019946425289	858.599975585938
809.740499670372	857.799987792969
810.460962828022	857
811.181335906114	857.599975585938
811.901618912524	857.599975585938
812.621811855131	856.799987792969
813.341914741809	856.599975585938
814.061927580433	857.599975585938
814.781850378881	857.200012207031
815.501683145025	856.799987792969
816.221425886743	857.799987792969
816.941078611903	857.599975585938
817.660641328387	856.200012207031
818.380114044065	857.599975585938
819.099496766808	856.400024414063
819.818789504492	856.599975585938
820.53799226499	856.799987792969
821.257105056168	855.599975585938
821.976127885904	857.200012207031
822.695060762064	856
823.413903692525	856
824.132656685151	856.400024414063
824.851319747817	857.400024414063
825.569892888388	857.200012207031
826.288376114739	857.200012207031
827.006769434737	857.599975585938
827.725072856249	857
828.443286387142	857.400024414063
829.161410035285	856.599975585938
829.87944380855	856
830.597387714798	857
831.315241761898	856.599975585938
832.033005957715	857.200012207031
832.750680310119	857
833.468264826969	857.400024414063
834.18575951614	857.400024414063
834.903164385486	857.400024414063
835.620479442878	855.799987792969
836.337704696181	857
837.054840153255	857
837.771885821962	856.599975585938
838.488841710172	857
839.20570782574	856.400024414063
839.922484176531	857.599975585938
840.639170770409	857.400024414063
841.355767615231	857.200012207031
842.072274718864	856.799987792969
842.788692089164	857.400024414063
843.505019733993	857.599975585938
844.221257661209	857.400024414063
844.937405878676	856.599975585938
845.65346439425	857
846.369433215789	857.599975585938
847.085312351156	857.200012207031
847.801101808205	857.799987792969
848.516801594793	856.599975585938
849.232411718781	856
849.947932188021	857.599975585938
850.663363010376	857.200012207031
851.378704193698	856.599975585938
852.093955745842	856.599975585938
852.809117674669	857.400024414063
853.524189988028	856.400024414063
854.239172693778	857
854.954065799768	856.400024414063
855.668869313857	856.799987792969
856.383583243899	857.400024414063
857.098207597743	857.599975585938
857.812742383246	856.200012207031
858.527187608255	858.599975585938
859.241543280628	856.400024414063
859.955809408218	857.799987792969
860.669985998868	857.400024414063
861.384073060437	857.799987792969
862.098070600772	856.599975585938
862.811978627724	857.400024414063
863.52579714914	856.799987792969
864.239526172873	857.599975585938
864.953165706776	855.799987792969
865.666715758687	857.400024414063
866.380176336464	856.400024414063
867.093547447951	856.599975585938
867.806829100996	857.200012207031
868.520021303444	857.400024414063
869.233124063149	857.799987792969
869.94613738795	856.400024414063
870.659061285693	857.599975585938
871.37189576423	857.400024414063
872.084640831403	856.799987792969
872.797296495057	857.400024414063
873.509862763039	856.200012207031
874.22233964319	857.200012207031
874.934727143353	856.400024414063
875.647025271374	858
876.359234035097	857.400024414063
877.071353442361	856.599975585938
877.783383501015	857.200012207031
878.495324218895	856
879.207175603844	856.400024414063
879.918937663705	856.799987792969
880.630610406318	857.400024414063
881.342193839524	855.799987792969
882.053687971161	857.200012207031
882.765092809069	858
883.476408361091	857
884.187634635066	857
884.898771638828	857.400024414063
885.609819380221	857.400024414063
886.320777867076	857.200012207031
887.031647107236	856.400024414063
887.742427108536	857.799987792969
888.453117878816	857
889.16371942591	857
889.874231757652	857.799987792969
890.584654881883	858
891.294988806434	857.799987792969
892.005233539141	856.799987792969
892.715389087837	858
893.42545546036	856.599975585938
894.135432664543	857.599975585938
894.845320708216	856.799987792969
895.555119599216	858
896.264829345375	857.799987792969
896.974449954526	857.200012207031
897.683981434496	857.200012207031
898.393423793125	856.799987792969
899.102777038235	856.799987792969
899.812041177664	857.400024414063
900.521216219239	857.200012207031
901.230302170793	858
901.939299040155	858.599975585938
902.64820683515	857
903.357025563612	856.599975585938
904.065755233368	856
904.774395852247	857.400024414063
905.482947428076	856
906.191409968682	857.400024414063
906.899783481897	856
907.608067975538	858
908.316263457443	857.400024414063
909.02436993543	857.599975585938
909.732387417327	857.599975585938
910.440315910959	857.200012207031
911.148155424154	856.200012207031
911.855905964731	856.400024414063
912.563567540521	858
913.271140159339	857.200012207031
913.978623829017	857.599975585938
914.686018557374	856.400024414063
915.393324352237	856
916.100541221421	856.400024414063
916.807669172752	857
917.514708214054	857.799987792969
918.221658353142	857.400024414063
918.928519597843	857.200012207031
919.635291955976	856.599975585938
920.341975435358	856.799987792969
921.048570043813	857.400024414063
921.75507578916	857
922.461492679212	857.599975585938
923.167820721795	857.400024414063
923.874059924726	857
924.58021029582	858.200012207031
925.286271842893	857.400024414063
925.992244573769	857.599975585938
926.698128496262	857
927.403923618184	856.599975585938
928.109629947355	857
928.815247491593	856.599975585938
929.520776258708	857.400024414063
930.226216256519	857.400024414063
930.931567492841	856.799987792969
931.636829975482	857.400024414063
932.342003712263	857.200012207031
933.047088710995	857.799987792969
933.752084979491	857.400024414063
934.456992525564	857.599975585938
935.161811357024	856.799987792969
935.866541481688	857.200012207031
936.571182907363	857.799987792969
937.275735641861	856.200012207031
937.980199692995	857.400024414063
938.684575068572	857.599975585938
939.388861776411	857.400024414063
940.093059824311	856.799987792969
940.797169220085	858
941.501189971544	856.599975585938
942.205122086495	856.200012207031
942.908965572751	857.400024414063
943.612720438111	858.400024414063
944.316386690391	857.400024414063
945.019964337391	855.799987792969
945.723453386924	856.200012207031
946.426853846795	857.799987792969
947.130165724808	857.200012207031
947.83338902877	858
948.536523766488	857.799987792969
949.239569945764	857
949.942527574402	857.200012207031
950.64539666021	857.200012207031
951.348177210993	856.599975585938
952.050869234548	856.400024414063
952.753472738683	858.400024414063
953.455987731199	857
954.158414219898	857.200012207031
954.860752212587	857.599975585938
955.563001717061	856
956.265162741124	857
956.967235292576	856.799987792969
957.669219379224	855.599975585938
958.371115008857	855.799987792969
959.072922189283	858.200012207031
959.774640928301	857
960.476271233708	857.200012207031
961.177813113301	857.799987792969
961.879266574882	856.400024414063
962.580631626248	855.599975585938
963.281908275194	857.200012207031
963.98309652952	857.599975585938
964.684196397022	856.599975585938
965.3852078855	857.200012207031
966.086131002745	856.799987792969
966.786965756555	856.400024414063
967.487712154726	857.400024414063
968.188370205055	857.200012207031
968.888939915331	857.400024414063
969.589421293352	856.599975585938
970.289814346909	857.200012207031
970.990119083801	856.599975585938
971.690335511819	857.200012207031
972.39046363875	857.400024414063
973.090503472398	857
973.790455020545	858
974.490318290987	857.400024414063
975.190093291516	856.799987792969
975.889780029923	857
976.589378513998	857.400024414063
977.288888751527	855.599975585938
977.988310750308	856.799987792969
978.687644518122	857
979.386890062767	856.599975585938
980.086047392025	856.599975585938
980.785116513689	856.599975585938
981.484097435542	856.400024414063
982.182990165377	857.200012207031
982.88179471098	857.200012207031
983.580511080137	857.200012207031
984.279139280632	856.799987792969
984.977679320253	857
985.67613120679	857
986.374494948027	857
987.072770551745	858
987.770958025731	857.400024414063
988.469057377772	857.200012207031
989.167068615649	856
989.864991747145	857.799987792969
990.562826780047	857.200012207031
991.260573722134	856.400024414063
991.958232581195	857.400024414063
992.655803365003	857
993.353286081346	856.799987792969
994.050680738006	857.599975585938
994.74798734276	858.200012207031
995.44520590339	856.799987792969
996.142336427681	857
996.839378923407	857.200012207031
997.536333398348	855.799987792969
998.233199860289	857.599975585938
998.929978317004	856.799987792969
999.626668776274	856.799987792969
1000.32327124587	858
1001.01978573359	856.400024414063
1001.71621224718	857.400024414063
1002.41255079445	857.200012207031
1003.10880138315	857.599975585938
1003.80496402107	857
1004.50103871599	856
1005.19702547567	856
1005.8929243079	857.400024414063
1006.58873522045	856.200012207031
1007.2844582211	856.599975585938
1007.98009331761	856.799987792969
1008.67564051776	856.799987792969
1009.37109982933	857.400024414063
1010.06647126009	856.400024414063
1010.7617548178	857.799987792969
1011.45695051026	857
1012.15205834522	856.599975585938
1012.84707833045	857.200012207031
1013.54201047373	856.599975585938
1014.23685478284	857.400024414063
1014.93161126553	856.799987792969
1015.62627992959	857.200012207031
1016.32086078277	856.799987792969
1017.01535383285	856.799987792969
1017.70975908761	857
1018.40407655479	857
1019.09830624219	856.599975585938
1019.79244815755	857.400024414063
1020.48650230866	857.799987792969
1021.18046870328	857.599975585938
1021.87434734917	858.200012207031
1022.56813825411	858
1023.26184142584	856.599975585938
1023.95545687216	858.200012207031
1024.64898460082	857.200012207031
1025.34242461957	858.200012207031
1026.0357769362	856.599975585938
1026.72904155846	857.799987792969
1027.42221849412	856.799987792969
1028.11530775094	858
1028.80830933668	857.400024414063
1029.50122325911	857
1030.19404952599	857.599975585938
1030.88678814508	858.799987792969
1031.57943912414	857.599975585938
1032.27200247093	857.599975585938
1032.96447819323	857.200012207031
1033.65686629878	857.599975585938
1034.34916679534	857.200012207031
1035.04137969068	856.400024414063
1035.73350499256	857.599975585938
1036.42554270874	858
1037.11749284697	857.400024414063
1037.80935541501	858
1038.50113042062	857.599975585938
1039.19281787156	858.599975585938
1039.88441777559	857
1040.57593014046	858.200012207031
1041.26735497393	857.400024414063
1041.95869228376	856.799987792969
1042.6499420777	856.599975585938
1043.3411043635	856.599975585938
1044.03217914893	856.400024414063
1044.72316644174	857
1045.41406624968	857
1046.1048785805	858.400024414063
1046.79560344197	856.799987792969
1047.48624084182	857.599975585938
1048.17679078783	857.599975585938
1048.86725328774	857.200012207031
1049.55762834929	857.599975585938
1050.24791598025	857.400024414063
1050.93811618837	856.799987792969
1051.62822898139	856.599975585938
1052.31825436707	858
1053.00819235315	856.799987792969
1053.6980429474	857.200012207031
1054.38780615755	856.799987792969
1055.07748199136	856.599975585938
1055.76707045658	856.599975585938
1056.45657156095	857.400024414063
1057.14598531222	856.599975585938
1057.83531171814	856.400024414063
1058.52455078646	856.400024414063
1059.21370252494	856.799987792969
1059.90276694129	856.599975585938
1060.5917440433	856.599975585938
1061.28063383868	857.200012207031
1061.9694363352	857.599975585938
1062.65815154059	857
1063.34677946261	856.599975585938
1064.03532010899	857.599975585938
1064.72377348748	856.799987792969
1065.41213960583	856.799987792969
1066.10041847177	857.599975585938
1066.78861009306	857.599975585938
1067.47671447743	858
1068.16473163263	856.400024414063
1068.85266156639	857.799987792969
1069.54050428647	856
1070.2282598006	856.400024414063
1070.91592811652	857.799987792969
1071.60350924198	857.200012207031
1072.29100318471	856.599975585938
1072.97840995245	856.799987792969
1073.66572955295	857
1074.35296199394	858.400024414063
1075.04010728316	858.200012207031
1075.72716542836	856.799987792969
1076.41413643726	858
1077.10102031761	857
1077.78781707715	856.400024414063
1078.4745267236	856.799987792969
1079.16114926471	857
1079.84768470822	856.799987792969
1080.53413306185	857
1081.22049433336	856.799987792969
1081.90676853046	856.200012207031
1082.5929556609	857.599975585938
1083.27905573241	857
1083.96506875272	857.799987792969
1084.65099472957	857.599975585938
1085.3368336707	856.400024414063
1086.02258558383	856.200012207031
1086.70825047669	856.599975585938
1087.39382835703	857.599975585938
1088.07931923257	857.400024414063
1088.76472311104	858
1089.45004000018	856.799987792969
1090.13526990771	857.200012207031
1090.82041284137	857.200012207031
1091.50546880889	857.200012207031
1092.19043781799	856.799987792969
1092.87531987642	856.799987792969
1093.56011499188	856.200012207031
1094.24482317212	857
1094.92944442486	856.599975585938
1095.61397875783	856.599975585938
1096.29842617876	857.200012207031
1096.98278669537	856.200012207031
1097.6670603154	856.400024414063
1098.35124704656	857
1099.03534689659	856.599975585938
1099.71935987322	857.400024414063
1100.40328598416	856.799987792969
1101.08712523713	856.200012207031
1101.77087763988	857.200012207031
1102.45454320012	856.799987792969
1103.13812192557	857.400024414063
1103.82161382396	856
1104.50501890301	857.599975585938
1105.18833717045	856.799987792969
1105.87156863399	859
1106.55471330137	857.799987792969
1107.2377711803	856.799987792969
1107.9207422785	857
1108.60362660369	856.799987792969
1109.2864241636	857
1109.96913496594	857.400024414063
1110.65175901844	858.599975585938
1111.33429632882	857
1112.01674690479	857.799987792969
1112.69911075408	856.599975585938
1113.38138788439	857.200012207031
1114.06357830346	857.599975585938
1114.745682019	857
1115.42769903872	857.200012207031
1116.10962937035	857.799987792969
1116.7914730216	857.799987792969
1117.47323000018	857.599975585938
1118.15490031382	857.599975585938
1118.83648397022	857.400024414063
1119.51798097712	857.400024414063
1120.1993913422	856.799987792969
1120.88071507321	857.400024414063
1121.56195217784	857.799987792969
1122.24310266381	856.400024414063
1122.92416653884	857
1123.60514381064	857.400024414063
1124.28603448692	857.200012207031
1124.9668385754	857.799987792969
1125.64755608378	857.400024414063
1126.32818701978	857.599975585938
1127.00873139111	858.400024414063
1127.68918920548	856.799987792969
1128.3695604706	857.200012207031
1129.04984519419	858.200012207031
1129.73004338394	858.799987792969
1130.41015504758	857.799987792969
1131.09018019281	856.400024414063
1131.77011882734	856.599975585938
1132.44997095888	857
1133.12973659514	857
1133.80941574381	857.599975585938
1134.48900841263	858.599975585938
1135.16851460927	858
1135.84793434147	858.599975585938
1136.52726761692	856.799987792969
1137.20651444333	856.400024414063
1137.8856748284	858.200012207031
1138.56474877984	856
1139.24373630536	858
1139.92263741265	857.799987792969
1140.60145210943	856.799987792969
1141.28018040339	857.599975585938
1141.95882230225	857
1142.6373778137	857.799987792969
1143.31584694545	858.799987792969
1143.99422970519	857.599975585938
1144.67252610064	857.599975585938
1145.35073613949	856.599975585938
1146.02885982944	856.799987792969
1146.7068971782	858.400024414063
1147.38484819347	856.400024414063
1148.06271288294	856.200012207031
1148.74049125432	857.599975585938
1149.41818331531	856.200012207031
1150.0957890736	856.799987792969
1150.77330853689	856
1151.45074171289	856.599975585938
1152.12808860928	857.400024414063
1152.80534923378	857.400024414063
1153.48252359407	857.200012207031
1154.15961169786	857
1154.83661355283	857.599975585938
1155.51352916669	858.200012207031
1156.19035854713	857.799987792969
1156.86710170185	857.599975585938
1157.54375863855	857.200012207031
1158.22032936491	856.599975585938
1158.89681388863	857.200012207031
1159.57321221741	857.400024414063
1160.24952435894	858
1160.92575032092	857.400024414063
1161.60189011103	856.599975585938
1162.27794373697	858.599975585938
1162.95391120644	857.599975585938
1163.62979252712	857.200012207031
1164.3055877067	856.599975585938
1164.98129675288	857.599975585938
1165.65691967336	858.799987792969
1166.33245647581	857.200012207031
1167.00790716792	856.200012207031
1167.6832717574	857.799987792969
1168.35855025193	857.200012207031
1169.0337426592	857.200012207031
1169.70884898689	856.400024414063
1170.3838692427	856.799987792969
1171.05880343431	857.799987792969
1171.73365156941	856.799987792969
1172.40841365569	857
1173.08308970083	856.799987792969
1173.75767971253	857.400024414063
1174.43218369847	858.200012207031
1175.10660166633	858.200012207031
1175.7809336238	856.200012207031
1176.45517957857	857.200012207031
1177.12933953832	857.799987792969
1177.80341351073	857.599975585938
1178.47740150349	857.200012207031
1179.15130352429	857
1179.8251195808	856.799987792969
1180.49884968071	858
1181.1724938317	856.799987792969
1181.84605204145	857.400024414063
1182.51952431766	857.200012207031
1183.19291066799	857.400024414063
1183.86621110013	857.799987792969
1184.53942562176	857.799987792969
1185.21255424057	858
1185.88559696422	856.799987792969
1186.55855380041	857.200012207031
1187.2314247568	857.599975585938
1187.90420984109	857.400024414063
1188.57690906095	857.200012207031
1189.24952242405	856.799987792969
1189.92204993808	857.400024414063
1190.59449161071	858.200012207031
1191.26684744962	858.599975585938
1191.93911746249	857.400024414063
1192.61130165699	856.400024414063
1193.28340004081	857.200012207031
1193.95541262161	857.200012207031
1194.62733940707	857.799987792969
1195.29918040487	857.599975585938
1195.97093562269	857
1196.64260506819	858.599975585938
1197.31418874905	857
1197.98568667295	857.400024414063
1198.65709884755	858.200012207031
1199.32842528053	858
1199.99966597957	858
1200.67082095234	857.799987792969
1201.3418902065	857.599975585938
1202.01287374974	857.400024414063
1202.68377158971	856.799987792969
1203.3545837341	857
1204.02531019057	858.200012207031
1204.6959509668	856.400024414063
1205.36650607045	857.799987792969
1206.03697550919	856.799987792969
1206.70735929069	857.400024414063
1207.37765742263	856.400024414063
1208.04786991266	857.200012207031
1208.71799676846	857
1209.38803799769	856.200012207031
1210.05799360803	856.200012207031
1210.72786360714	857.400024414063
1211.39764800268	857
1212.06734680233	857.599975585938
1212.73696001375	857.400024414063
1213.4064876446	858.400024414063
1214.07592970255	857
1214.74528619526	858
1215.4145571304	857
1216.08374251564	856.400024414063
1216.75284235863	857
1217.42185666704	857.599975585938
1218.09078544854	857.400024414063
1218.75962871078	856.799987792969
1219.42838646143	857.599975585938
1220.09705870816	857.400024414063
1220.76564545861	858.200012207031
1221.43414672046	858
1222.10256250136	857
1222.77089280898	857.799987792969
1223.43913765098	857.400024414063
1224.107297035	857.599975585938
1224.77537096873	857.200012207031
1225.44335945981	857.599975585938
1226.1112625159	856.400024414063
1226.77908014467	858
1227.44681235376	857.599975585938
1228.11445915085	857.200012207031
1228.78202054357	857.200012207031
1229.44949653961	858.400024414063
1230.11688714659	858.599975585938
1230.7841923722	857.200012207031
1231.45141222407	858.400024414063
1232.11854670988	858
1232.78559583726	857.799987792969
1233.45255961388	857.599975585938
1234.1194380474	858.599975585938
1234.78623114546	858.799987792969
1235.45293891572	858.200012207031
1236.11956136583	858.599975585938
1236.78609850345	858
1237.45255033623	856.799987792969
1238.11891687182	857.599975585938
1238.78519811788	857.200012207031
1239.45139408205	858.200012207031
1240.11750477198	857.599975585938
1240.78353019534	858.200012207031
1241.44947035976	857.599975585938
1242.11532527291	858
1242.78109494242	858.200012207031
1243.44677937595	858
1244.11237858115	857.400024414063
1244.77789256567	858.200012207031
1245.44332133715	857.599975585938
1246.10866490325	857.599975585938
1246.7739232716	857.400024414063
1247.43909644987	857.200012207031
1248.10418444569	858
1248.76918726671	857
1249.43410492059	856.599975585938
1250.09893741496	857.400024414063
1250.76368475747	858.599975585938
1251.42834695576	857.799987792969
1252.09292401749	858.200012207031
1252.75741595029	856.799987792969
1253.42182276182	858.400024414063
1254.08614445971	857.599975585938
1254.75038105161	856.799987792969
1255.41453254515	858
1256.07859894799	858
1256.74258026777	856.400024414063
1257.40647651213	857.200012207031
1258.0702876887	857.200012207031
1258.73401380514	856.799987792969
1259.39765486908	857.799987792969
1260.06121088817	858
1260.72468187004	857
1261.38806782233	857.599975585938
1262.05136875269	857.400024414063
1262.71458466875	857.400024414063
1263.37771557815	856.200012207031
1264.04076148854	857.400024414063
1264.70372240753	858.400024414063
1265.3665983428	857.799987792969
1266.02938930195	858.400024414063
1266.69209529263	857.599975585938
1267.35471632249	857
1268.01725239914	858
1268.67970353024	858
1269.34206972342	858.400024414063
1270.00435098631	856.400024414063
1270.66654732655	857.400024414063
1271.32865875177	858.200012207031
1271.9906852696	857.799987792969
1272.65262688768	856.599975585938
1273.31448361365	857
1273.97625545514	857.400024414063
1274.63794241978	857.200012207031
1275.2995445152	857.400024414063
1275.96106174903	857.599975585938
1276.62249412892	856.799987792969
1277.28384166248	856.799987792969
1277.94510435735	857.200012207031
1278.60628222116	857.599975585938
1279.26737526155	857.400024414063
1279.92838348613	859.400024414063
1280.58930690255	857.400024414063
1281.25014551842	856.799987792969
1281.91089934139	856.799987792969
1282.57156837907	856.400024414063
1283.2321526391	856.799987792969
1283.89265212911	858
1284.55306685671	856.799987792969
1285.21339682955	856.400024414063
1285.87364205525	857.400024414063
1286.53380254142	857
1287.19387829571	857.799987792969
1287.85386932573	857.200012207031
1288.51377563911	857.200012207031
1289.17359724348	858.200012207031
1289.83333414646	857.599975585938
1290.49298635567	858
1291.15255387874	857.400024414063
1291.8120367233	857
1292.47143489696	857.799987792969
1293.13074840736	858.400024414063
1293.7899772621	857.400024414063
1294.44912146882	857.400024414063
1295.10818103513	857.400024414063
1295.76715596866	856.799987792969
1296.42604627704	857.200012207031
1297.08485196787	856.400024414063
1297.74357304878	858.200012207031
1298.4022095274	856.599975585938
1299.06076141134	857.200012207031
1299.71922870821	856.799987792969
1300.37761142565	859
1301.03590957126	858.400024414063
1301.69412315268	856.400024414063
1302.3522521775	857.400024414063
1303.01029665336	857
1303.66825658787	857.599975585938
1304.32613198865	858.200012207031
1304.98392286332	856.400024414063
1305.64162921948	857.200012207031
1306.29925106476	856.400024414063
1306.95678840677	858.599975585938
1307.61424125312	857.799987792969
1308.27160961145	857.799987792969
1308.92889348934	858
1309.58609289443	857.799987792969
1310.24320783432	857.799987792969
1310.90023831664	857.799987792969
1311.55718434898	857.400024414063
1312.21404593897	858.799987792969
1312.87082309421	856.599975585938
1313.52751582233	857.799987792969
1314.18412413092	857.599975585938
1314.84064802761	857
1315.49708752	859.200012207031
1316.1534426157	858.200012207031
1316.80971332233	857.799987792969
1317.46589964749	858.400024414063
1318.1220015988	857.599975585938
1318.77801918386	857.599975585938
1319.43395241028	858.400024414063
1320.08980128567	857.400024414063
1320.74556581764	857.200012207031
1321.4012460138	857.400024414063
1322.05684188176	858
1322.71235342911	858.799987792969
1323.36778066347	857.599975585938
1324.02312359245	857.400024414063
1324.67838222365	859
1325.33355656468	857.799987792969
1325.98864662314	858.799987792969
1326.64365240663	857.599975585938
1327.29857392277	857.400024414063
1327.95341117915	857.200012207031
1328.60816418339	857.599975585938
1329.26283294308	857.400024414063
1329.91741746582	858
1330.57191775923	857.799987792969
1331.2263338309	856.400024414063
1331.88066568843	857.799987792969
1332.53491333943	857
1333.1890767915	857.799987792969
1333.84315605224	857.200012207031
1334.49715112925	857.400024414063
1335.15106203013	857.799987792969
1335.80488876249	857.400024414063
1336.45863133391	858.400024414063
1337.112289752	858.599975585938
1337.76586402437	857.200012207031
1338.4193541586	857
1339.0727601623	858.400024414063
1339.72608204306	858
1340.37931980849	858.200012207031
1341.03247346617	857.400024414063
1341.68554302372	857.400024414063
1342.33852848871	858.200012207031
1342.99142986876	857.799987792969
1343.64424717145	857.799987792969
1344.29698040438	858.400024414063
1344.94962957515	858
1345.60219469135	857.799987792969
1346.25467576058	857.599975585938
1346.90707279042	858
1347.55938578848	857.599975585938
1348.21161476235	858
1348.86375971962	856.799987792969
1349.51582066787	858.400024414063
1350.16779761472	857.599975585938
1350.81969056774	857.799987792969
1351.47149953453	856.599975585938
1352.12322452269	856.599975585938
1352.77486553979	857.599975585938
1353.42642259344	857.599975585938
1354.07789569122	857.400024414063
1354.72928484072	857.599975585938
1355.38059004953	857.400024414063
1356.03181132525	858
1356.68294867545	856.799987792969
1357.33400210773	858.400024414063
1357.98497162968	857.799987792969
1358.63585724889	857.400024414063
1359.28665897294	857.200012207031
1359.93737680942	858.799987792969
1360.58801076591	857.400024414063
1361.23856085001	858.400024414063
1361.88902706929	856.400024414063
1362.53940943135	857
1363.18970794377	858.200012207031
1363.83992261413	858
1364.49005345003	857.799987792969
1365.14010045904	857.799987792969
1365.79006364874	857.200012207031
1366.43994302673	857.799987792969
1367.08973860058	858
1367.73945037788	857.400024414063
1368.38907836621	858.400024414063
1369.03862257315	857.599975585938
1369.68808300629	857
1370.3374596732	857.400024414063
1370.98675258148	857.599975585938
1371.63596173868	857.400024414063
1372.28508715241	856.400024414063
1372.93412883024	856.599975585938
1373.58308677974	857.400024414063
1374.2319610085	857.599975585938
1374.8807515241	857.400024414063
1375.52945833412	857.599975585938
1376.17808144612	856.799987792969
1376.82662086771	857.599975585938
1377.47507660644	856.799987792969
1378.12344866989	857.599975585938
1378.77173706565	857.599975585938
1379.41994180129	856.400024414063
1380.06806288439	856.799987792969
1380.71610032252	856.599975585938
1381.36405412326	857.400024414063
1382.01192429419	858.400024414063
1382.65971084287	856.799987792969
1383.30741377688	858.799987792969
1383.95503310381	857.400024414063
1384.60256883121	857.799987792969
1385.25002096667	857.400024414063
1385.89738951775	857.799987792969
1386.54467449204	859
1387.19187589709	857.599975585938
1387.8389937405	857.200012207031
1388.48602802982	857.799987792969
1389.13297877262	857.400024414063
1389.77984597649	858.599975585938
1390.42662964899	857.799987792969
1391.07332979768	857.400024414063
1391.71994643015	857.200012207031
1392.36647955395	858.200012207031
1393.01292917667	858.200012207031
1393.65929530586	857.799987792969
1394.3055779491	858
1394.95177711395	857.799987792969
1395.59789280799	858.400024414063
1396.24392503877	856.599975585938
1396.88987381387	857.799987792969
1397.53573914086	858.599975585938
1398.1815210273	858.400024414063
1398.82721948075	858.799987792969
1399.47283450878	858.799987792969
1400.11836611897	857
1400.76381431886	858
1401.40917911603	857.599975585938
1402.05446051805	858.200012207031
1402.69965853247	858.200012207031
1403.34477316686	857.799987792969
1403.98980442878	858.200012207031
1404.6347523258	857.200012207031
1405.27961686548	857.200012207031
1405.92439805538	858.599975585938
1406.56909590306	856
1407.21371041608	857.400024414063
1407.85824160202	857.799987792969
1408.50268946841	858.400024414063
1409.14705402284	857.799987792969
1409.79133527285	859.200012207031
1410.43553322601	859
1411.07964788987	859.400024414063
1411.723679272	857.599975585938
1412.36762737996	857.400024414063
1413.01149222129	858.599975585938
1413.65527380357	858
1414.29897213435	858.599975585938
1414.94258722118	857.799987792969
1415.58611907163	859
1416.22956769325	858
1416.87293309359	859
1417.51621528021	860.200012207031
1418.15941426067	858.799987792969
1418.80253004253	857.799987792969
1419.44556263333	858.799987792969
1420.08851204063	859
1420.731378272	858
1421.37416133497	857.799987792969
1422.0168612371	858.799987792969
1422.65947798596	858.400024414063
1423.30201158908	858.799987792969
1423.94446205403	858.200012207031
1424.58682938835	859.200012207031
1425.2291135996	858.799987792969
1425.87131469532	858.400024414063
1426.51343268308	859.400024414063
1427.15546757042	858.200012207031
1427.79741936488	858.400024414063
1428.43928807403	859.200012207031
1429.0810737054	859.200012207031
1429.72277626656	859.400024414063
1430.36439576504	860
1431.00593220841	859.200012207031
1431.64738560419	858.400024414063
1432.28875595995	860.200012207031
1432.93004328324	859
1433.57124758159	859.400024414063
1434.21236886255	859.799987792969
1434.85340713368	860.400024414063
1435.49436240252	860.400024414063
1436.13523467661	860
1436.77602396349	859.799987792969
1437.41673027073	859.400024414063
1438.05735360585	859.799987792969
1438.69789397641	860.200012207031
1439.33835138994	859.599975585938
1439.978725854	859.400024414063
1440.61901737612	859.799987792969
1441.25922596385	859
1441.89935162473	859
1442.53939436631	860.200012207031
1443.17935419612	860.599975585938
1443.81923112171	859.400024414063
1444.45902515061	860.200012207031
1445.09873629038	860.400024414063
1445.73836454854	859.400024414063
1446.37790993265	860.400024414063
1447.01737245024	860.200012207031
1447.65675210885	860
1448.29604891602	862.200012207031
1448.93526287928	859.400024414063
1449.57439400618	858.599975585938
1450.21344230426	857.599975585938
1450.85240778105	859
1451.49129044409	860.599975585938
1452.13009030092	860.799987792969
1452.76880735907	859.799987792969
1453.40744162608	858.799987792969
1454.04599310949	859
1454.68446181683	858.799987792969
1455.32284775564	858.599975585938
1455.96115093345	858.799987792969
1456.5993713578	858.799987792969
1457.23750903623	858.799987792969
1457.87556397626	859.200012207031
1458.51353618543	859.799987792969
1459.15142567127	859
1459.78923244132	858.200012207031
1460.42695650311	858.200012207031
1461.06459786417	859
1461.70215653203	856.799987792969
1462.33963251423	858.599975585938
1462.97702581829	858.200012207031
1463.61433645175	858.400024414063
1464.25156442214	858.799987792969
1464.88870973699	858.799987792969
1465.52577240382	859.200012207031
1466.16275243017	858
1466.79964982356	857.400024414063
1467.43646459154	858.400024414063
1468.07319674161	859.599975585938
1468.70984628132	859
1469.34641321818	858.400024414063
1469.98289755974	858
1470.6192993135	858.400024414063
1471.25561848701	857.799987792969
1471.89185508779	858.599975585938
1472.52800912336	858.200012207031
1473.16408060124	857.799987792969
1473.80006952897	858.200012207031
1474.43597591407	857
1475.07179976406	858.200012207031
1475.70754108647	858.200012207031
1476.34319988883	857
1476.97877617865	858.400024414063
1477.61426996345	858.799987792969
1478.24968125077	857.400024414063
1478.88501004812	857.599975585938
1479.52025636303	858.200012207031
1480.15542020302	857.400024414063
1480.79050157561	857.200012207031
1481.42550048832	858.599975585938
1482.06041694867	858.799987792969
1482.69525096418	858
1483.33000254237	856.599975585938
1483.96467169077	858.400024414063
1484.59925841689	856.799987792969
1485.23376272825	857.599975585938
1485.86818463237	857
1486.50252413677	858
1487.13678124896	858.799987792969
1487.77095597646	857.799987792969
1488.4050483268	858.599975585938
1489.03905830749	857.400024414063
1489.67298592604	857.400024414063
1490.30683118996	858.200012207031
1490.9405941068	859
1491.57427468403	856.799987792969
1492.2078729292	858.400024414063
1492.84138884981	858.599975585938
1493.47482245338	857.200012207031
1494.10817374742	857
1494.74144273944	857.799987792969
1495.37462943696	857.200012207031
1496.0077338475	858
1496.64075597856	859
1497.27369583765	857.599975585938
1497.9065534323	858.200012207031
1498.53932877001	857.799987792969
1499.17202185829	858.400024414063
1499.80463270465	858.400024414063
1500.43716131661	857.599975585938
1501.06960770167	857
1501.70197186735	857.200012207031
1502.33425382116	858
1502.96645357059	858.400024414063
1503.59857112317	857.400024414063
1504.23060648641	858.599975585938
1504.8625596678	857.400024414063
1505.49443067486	857.599975585938
1506.1262195151	858.200012207031
1506.75792619602	857.599975585938
1507.38955072513	857
1508.02109310993	856.799987792969
1508.65255335794	858.400024414063
1509.28393147666	858.400024414063
1509.91522747359	856.799987792969
1510.54644135624	857.599975585938
1511.17757313212	857
1511.80862280872	857
1512.43959039356	858.200012207031
1513.07047589413	858.200012207031
1513.70127931795	858
1514.33200067251	858.400024414063
1514.96263996531	857.799987792969
1515.59319720386	858.799987792969
1516.22367239567	858
1516.85406554822	857.599975585938
1517.48437666903	857.799987792969
1518.1146057656	858.400024414063
1518.74475284542	857.200012207031
1519.374817916	857.599975585938
1520.00480098483	858
1520.63470205942	857.799987792969
1521.26452114726	858.200012207031
1521.89425825586	858
1522.52391339271	857.799987792969
1523.15348656531	858.599975585938
1523.78297778116	858.400024414063
1524.41238704775	858
1525.04171437259	857.599975585938
1525.67095976317	858.400024414063
1526.30012322699	858.599975585938
1526.92920477154	857.799987792969
1527.55820440432	859.400024414063
1528.18712213283	858
1528.81595796455	857.599975585938
1529.44471190699	858.400024414063
1530.07338396764	858.599975585938
1530.70197415399	858.400024414063
1531.33048247353	858
1531.95890893377	858
1532.58725354219	857
1533.21551630629	857.400024414063
1533.84369723356	856.799987792969
1534.47179633148	857.200012207031
1535.09981360757	856.400024414063
1535.72774906929	857
1536.35560272415	857.599975585938
1536.98337457963	858.400024414063
1537.61106464323	858
1538.23867292243	856.599975585938
1538.86619942473	857.200012207031
1539.49364415762	857.799987792969
1540.12100712857	857.400024414063
1540.74828834509	857.799987792969
1541.37548781466	858.400024414063
1542.00260554478	857.400024414063
1542.62964154291	857
1543.25659581655	858.799987792969
1543.8834683732	857.200012207031
1544.51025922034	858.200012207031
1545.13696836544	858.599975585938
1545.76359581601	856.400024414063
1546.39014157952	857.400024414063
1547.01660566345	857.200012207031
1547.64298807531	857.200012207031
1548.26928882255	858.400024414063
1548.89550791269	856.599975585938
1549.52164535318	858.400024414063
1550.14770115153	857.200012207031
1550.77367531521	857.599975585938
1551.39956785171	858
1552.0253787685	857.799987792969
1552.65110807307	857.200012207031
1553.2767557729	857.799987792969
1553.90232187548	858
1554.52780638828	857.799987792969
1555.15320931879	857
1555.77853067447	857.200012207031
1556.40377046282	857.200012207031
1557.02892869132	856.200012207031
1557.65400536744	858
1558.27900049866	856.799987792969
1558.90391409247	857.599975585938
1559.52874615633	858.400024414063
1560.15349669773	857.200012207031
1560.77816572414	857.599975585938
1561.40275324305	857.200012207031
1562.02725926192	857.799987792969
1562.65168378824	857.799987792969
1563.27602682948	857
1563.90028839311	856.799987792969
1564.52446848662	856.400024414063
1565.14856711748	856.799987792969
1565.77258429316	857.599975585938
1566.39652002113	856.400024414063
1567.02037430887	856
1567.64414716387	857.200012207031
1568.26783859357	856.400024414063
1568.89144860547	856.799987792969
1569.51497720703	858.400024414063
1570.13842440573	857.799987792969
1570.76179020904	858
1571.38507462442	857.200012207031
1572.00827765936	858.400024414063
1572.63139932132	857.400024414063
1573.25443961777	857.200012207031
1573.87739855618	858.400024414063
1574.50027614402	857.799987792969
1575.12307238877	857
1575.74578729789	857.400024414063
1576.36842087885	857
1576.99097313912	857.599975585938
1577.61344408616	858.200012207031
1578.23583372745	857.799987792969
1578.85814207046	857.400024414063
1579.48036912264	857.200012207031
1580.10251489147	856.799987792969
1580.72457938441	857.200012207031
1581.34656260893	857.799987792969
1581.9684645725	857.200012207031
1582.59028528258	858.200012207031
1583.21202474663	857.599975585938
1583.83368297212	858.200012207031
1584.45525996652	858.200012207031
1585.07675573728	857.400024414063
1585.69817029188	858
1586.31950363778	855.799987792969
1586.94075578243	857.200012207031
1587.5619267333	857.200012207031
1588.18301649786	857
1588.80402508357	858.200012207031
1589.42495249788	856.599975585938
1590.04579874826	857
1590.66656384217	858.200012207031
1591.28724778707	857.599975585938
1591.90785059042	856.599975585938
1592.52837225968	856.400024414063
1593.14881280232	857.799987792969
1593.76917222578	857
1594.38945053753	857.200012207031
1595.00964774502	857.400024414063
1595.62976385573	857.799987792969
1596.24979887709	856.799987792969
1596.86975281657	857.400024414063
1597.48962568164	857.799987792969
1598.10941747974	857.400024414063
1598.72912821832	856
1599.34875790486	858
1599.9683065468	857.400024414063
1600.58777415159	858.200012207031
1601.2071607267	857.200012207031
1601.82646627958	857.599975585938
1602.44569081769	857.599975585938
1603.06483434846	858.799987792969
1603.68389687937	857.400024414063
1604.30287841786	858.200012207031
1604.92177897139	857.599975585938
1605.54059854741	858.400024414063
1606.15933715337	859.400024414063
1606.77799479672	857
1607.39657148492	857.400024414063
1608.01506722542	857.599975585938
1608.63348202566	857
1609.2518158931	857.400024414063
1609.87006883519	859.799987792969
1610.48824085939	858.799987792969
1611.10633197312	858.799987792969
1611.72434218386	859.400024414063
1612.34227149904	859.400024414063
1612.96011992612	858.400024414063
1613.57788747254	857.799987792969
1614.19557414575	858.599975585938
1614.8131799532	858.799987792969
1615.43070490234	859.799987792969
1616.04814900061	859.200012207031
1616.66551225545	858.400024414063
1617.28279467433	857.799987792969
1617.89999626467	857.599975585938
1618.51711703393	857.599975585938
1619.13415698955	858
1619.75111613898	858
1620.36799448966	857.599975585938
1620.98479204903	858.799987792969
1621.60150882455	858.200012207031
1622.21814482364	858
1622.83470005376	858.799987792969
1623.45117452235	858.599975585938
1624.06756823685	858.400024414063
1624.6838812047	858.799987792969
1625.30011343335	859.799987792969
1625.91626493022	858.200012207031
1626.53233570278	858.400024414063
1627.14832575845	858
1627.76423510468	857.200012207031
1628.38006374891	856.599975585938
1628.99581169857	858.400024414063
1629.61147896111	857
1630.22706554397	857
1630.84257145457	857.200012207031
1631.45799670038	858.200012207031
1632.07334128881	858.200012207031
1632.6886052273	858
1633.3037885233	858.200012207031
1633.91889118425	857.400024414063
1634.53391321757	857
1635.1488546307	856.799987792969
1635.76371543108	858
1636.37849562616	857.400024414063
1636.99319522335	857.799987792969
1637.60781423009	857
1638.22235265383	856.599975585938
1638.83681050198	857
1639.451187782	856.799987792969
1640.0654845013	857.400024414063
1640.67970066734	857.200012207031
1641.29383628752	857
1641.9078913693	857.400024414063
1642.5218659201	857.799987792969
1643.13575994735	858
1643.74957345849	855.599975585938
1644.36330646094	858.200012207031
1644.97695896213	858
1645.59053096951	856.799987792969
1646.20402249049	857.400024414063
1646.8174335325	856.400024414063
1647.43076410298	856.799987792969
1648.04401420935	857.599975585938
1648.65718385905	857
1649.2702730595	856.599975585938
1649.88328181812	856.799987792969
1650.49621014236	856.599975585938
1651.10905803963	857.599975585938
1651.72182551735	858.599975585938
1652.33451258297	858.599975585938
1652.9471192439	858
1653.55964550757	856.599975585938
1654.1720913814	857.400024414063
1654.78445687283	855.799987792969
1655.39674198926	857
1656.00894673814	856.599975585938
1656.62107112688	857.400024414063
1657.23311516291	857.599975585938
1657.84507885365	856.599975585938
1658.45696220652	855.599975585938
1659.06876522895	857.200012207031
1659.68048792835	857
1660.29213031217	857.799987792969
1660.90369238779	856.799987792969
1661.51517416267	857.400024414063
1662.12657564421	857
1662.73789683984	856.799987792969
1663.34913775697	856.400024414063
1663.96029840303	856.400024414063
1664.57137878544	856.400024414063
1665.18237891161	856.400024414063
1665.79329878897	857
1666.40413842493	857
1667.01489782691	857.200012207031
1667.62557700233	857.599975585938
1668.2361759586	856.799987792969
1668.84669470315	857.200012207031
1669.4571332434	857.799987792969
1670.06749158675	856.799987792969
1670.67776974062	857.200012207031
1671.28796771243	857
1671.8980855096	856.799987792969
1672.50812313954	856.799987792969
1673.11808060967	856.799987792969
1673.72795792739	857.599975585938
1674.33775510013	857.200012207031
1674.9474721353	857.400024414063
1675.55710904031	857.599975585938
1676.16666582257	856.799987792969
1676.7761424895	857.799987792969
1677.38553904851	856.400024414063
1677.99485550702	857
1678.60409187243	857
1679.21324815215	858.400024414063
1679.8223243536	857.200012207031
1680.43132048419	856.799987792969
1681.04023655132	857
1681.64907256241	856.599975585938
1682.25782852487	857.200012207031
1682.86650444611	857.400024414063
1683.47510033353	857.599975585938
1684.08361619455	857
1684.69205203657	856.599975585938
1685.300407867	857.400024414063
1685.90868369325	858
1686.51687952272	857.400024414063
1687.12499536283	856.599975585938
1687.73303122098	856.799987792969
1688.34098710457	856
1688.94886302101	856.599975585938
1689.55665897772	857.599975585938
1690.16437498208	856.799987792969
1690.77201104152	857.599975585938
1691.37956716342	856.799987792969
1691.9870433552	856.599975585938
1692.59443962426	857.200012207031
1693.20175597801	857.400024414063
1693.80899242384	856.400024414063
1694.41614896916	857
1695.02322562138	856.400024414063
1695.63022238789	856.400024414063
1696.23713927609	857
1696.8439762934	856.200012207031
1697.4507334472	856.200012207031
1698.05741074491	856.599975585938
1698.66400819391	856
1699.27052580161	856.799987792969
1699.87696357542	856.200012207031
1700.48332152272	857.200012207031
1701.08959965092	857.400024414063
1701.69579796742	856
1702.30191647962	856.200012207031
1702.90795519491	856.400024414063
1703.51391412069	856.200012207031
1704.11979326437	857.200012207031
1704.72559263332	857
1705.33131223496	857
1705.93695207668	858
1706.54251216588	856.799987792969
1707.14799250994	856.599975585938
1707.75339311628	856.799987792969
1708.35871399227	857.799987792969
1708.96395514532	856.799987792969
1709.56911658282	856.599975585938
