634.948122577771	863.200012207031
635.690341530823	860.400024414063
636.43246851086	862.400024414063
637.174503525845	862.799987792969
637.916446583745	862.799987792969
638.658297692538	864
639.400056860179	863.400024414063
640.141724094637	862.400024414063
640.883299403885	861.799987792969
641.62478279588	863.200012207031
642.366174278594	861.799987792969
643.107473859989	862.599975585938
643.848681548029	863.400024414063
644.589797350679	863
645.330821275901	863
646.071753331665	863.200012207031
646.812593525922	863.400024414063
647.553341866646	863.599975585938
648.293998361798	865
649.03456301933	861.599975585938
649.775035847216	862.799987792969
650.515416853409	863.799987792969
651.255706045874	864
651.995903432568	864.400024414063
652.736009021453	862.599975585938
653.476022820486	862.799987792969
654.215944837629	863.599975585938
654.955775080842	863.400024414063
655.695513558081	864.799987792969
656.435160277301	863.599975585938
657.174715246465	862.400024414063
657.914178473527	864.799987792969
658.653549966449	864.200012207031
659.392829733176	864.200012207031
660.132017781678	863.799987792969
660.871114119901	863.599975585938
661.610118755803	863.200012207031
662.349031697343	863.200012207031
663.087852952468	864.400024414063
663.826582529139	863.200012207031
664.565220435305	864.400024414063
665.30376667892	863.599975585938
666.04222126794	864.200012207031
666.780584210316	866
667.518855514	863.200012207031
668.25703518694	864.599975585938
668.995123237096	863.599975585938
669.733119672413	866
670.471024500842	864.400024414063
671.208837730333	864.599975585938
671.946559368839	864.599975585938
672.684189424308	864.599975585938
673.421727904689	865
674.159174817929	863.200012207031
674.896530171977	865.200012207031
675.633793974786	865
676.370966234295	864.599975585938
677.108046958461	864.799987792969
677.845036155219	866.400024414063
678.581933832528	864.400024414063
679.318739998323	866.799987792969
680.055454660558	866.200012207031
680.792077827172	866
681.528609506116	865.400024414063
682.265049705331	865.200012207031
683.001398432759	864.799987792969
683.737655696349	865.599975585938
684.47382150404	865
685.20989586378	868.400024414063
685.945878783503	868
686.68177027116	866.200012207031
687.417570334688	868.799987792969
688.153278982032	866.599975585938
688.888896221129	868.400024414063
689.624422059921	869
690.359856506349	868.400024414063
691.095199568354	866.599975585938
691.830451253874	867.400024414063
692.565611570844	867.400024414063
693.300680527212	867.599975585938
694.03565813091	867.599975585938
694.770544389877	866.799987792969
695.505339312053	866.599975585938
696.240042905372	866.400024414063
696.974655177772	865.799987792969
697.70917613719	865
698.443605791561	865.799987792969
699.177944148826	863.200012207031
699.912191216909	864
700.646347003755	864.200012207031
701.380411517295	863.400024414063
702.114384765465	864.799987792969
702.848266756195	863.799987792969
703.582057497421	863.799987792969
704.315756997074	861.799987792969
705.049365263089	862.200012207031
705.782882303399	863
706.516308125936	863.799987792969
707.249642738626	863.200012207031
707.982886149403	864.799987792969
708.716038366204	862.799987792969
709.449099396949	864.200012207031
710.182069249577	864
710.914947932009	863.599975585938
711.647735452181	864.400024414063
712.380431818022	863.400024414063
713.113037037454	864.599975585938
713.845551118411	863.599975585938
714.577974068818	862.200012207031
715.310305896604	862.200012207031
716.042546609694	863
716.774696216013	862.599975585938
717.506754723493	862.400024414063
718.238722140053	862.200012207031
718.970598473624	862.599975585938
719.702383732127	864
720.43407792349	861.599975585938
721.165681055634	865.200012207031
721.897193136486	863.599975585938
722.628614173966	862
723.359944175997	862.799987792969
724.091183150505	861.599975585938
724.822331105412	862.200012207031
725.553388048638	862.400024414063
726.284353988106	863.400024414063
727.015228931734	863.200012207031
727.746012887449	862.400024414063
728.476705863162	861.200012207031
729.207307866803	863.599975585938
729.937818906289	862.200012207031
730.668238989535	863.599975585938
731.398568124459	863.599975585938
732.128806318986	862.200012207031
732.858953581034	864.400024414063
733.589009918514	861.799987792969
734.318975339348	862.400024414063
735.048849851452	861.599975585938
735.778633462744	861.799987792969
736.508326181137	862.599975585938
737.237928014549	862.200012207031
737.967438970897	863
738.696859058095	863.599975585938
739.426188284054	862.799987792969
740.155426656692	862.200012207031
740.884574183922	863
741.613630873659	862.400024414063
742.342596733815	862.599975585938
743.071471772302	862.200012207031
743.800255997034	862.599975585938
744.528949415921	862.799987792969
745.257552036877	863.200012207031
745.986063867811	864.400024414063
746.714484916638	862.200012207031
747.442815191261	861.799987792969
748.171054699597	862.799987792969
748.899203449554	862
749.627261449039	864.200012207031
750.355228705966	862
751.083105228239	862.200012207031
751.810891023765	862.400024414063
752.538586100459	862.799987792969
753.266190466218	863.599975585938
753.99370412896	862.400024414063
754.721127096582	861
755.448459377	863.400024414063
756.175700978114	864.200012207031
756.902851907828	863.200012207031
757.629912174055	862
758.356881784688	863.799987792969
759.083760747639	862.799987792969
759.810549070817	862
760.537246762113	863.599975585938
761.263853829442	862.200012207031
761.990370280698	861.799987792969
762.716796123791	863
763.443131366618	862.799987792969
764.169376017082	863.400024414063
764.895530083085	863.200012207031
765.621593572527	862.799987792969
766.347566493312	861.400024414063
767.073448853336	863.599975585938
767.799240660502	863.200012207031
768.524941922707	863.200012207031
769.250552647854	863
769.976072843836	863.599975585938
770.701502518551	863.599975585938
771.426841679905	863.599975585938
772.152090335793	863.400024414063
772.877248494107	863.200012207031
773.602316162747	864.799987792969
774.327293349609	865.200012207031
775.052180062592	863
775.776976309589	862.799987792969
776.501682098496	863.799987792969
777.226297437206	864.200012207031
777.950822333616	863.400024414063
778.675256795621	864.799987792969
779.399600831111	863.400024414063
780.123854447983	861.799987792969
780.84801765413	864.400024414063
781.572090457441	861.799987792969
782.296072865811	862.599975585938
783.019964887131	862.400024414063
783.743766529297	862.799987792969
784.467477800194	862.799987792969
785.191098707719	862.400024414063
785.914629259756	862.400024414063
786.638069464194	863.400024414063
787.361419328932	861.799987792969
788.084678861852	861.200012207031
788.807848070845	862.200012207031
789.530926963798	862.799987792969
790.253915548602	863
790.976813833144	863
791.699621825307	863.799987792969
792.422339532986	863.200012207031
793.144966964061	862.400024414063
793.86750412642	861.400024414063
794.589951027946	862.599975585938
795.312307676536	862.599975585938
796.03457408006	862.799987792969
796.756750246417	862.400024414063
797.478836183477	862.599975585938
798.200831899137	863.599975585938
798.92273740127	861.599975585938
799.644552697769	862.799987792969
800.36627779651	863.400024414063
801.087912705374	863
801.809457432251	862.400024414063
802.530911985017	863.799987792969
803.252276371558	863
803.973550599748	864.200012207031
804.694734677472	864.200012207031
805.415828612611	864
806.136832413045	864.599975585938
806.857746086646	862.400024414063
807.578569641305	862.200012207031
808.299303084892	864.599975585938
809.019946425289	864
809.740499670372	863.400024414063
810.460962828022	863.400024414063
811.181335906114	864.599975585938
811.901618912524	862.799987792969
812.621811855131	864.400024414063
813.341914741809	863.200012207031
814.061927580433	862.200012207031
814.781850378881	863.200012207031
815.501683145025	863.400024414063
816.221425886743	861.599975585938
816.941078611903	861.599975585938
817.660641328387	861.599975585938
818.380114044065	863.400024414063
819.099496766808	863
819.818789504492	862.200012207031
820.53799226499	862.200012207031
821.257105056168	862.599975585938
821.976127885904	862.200012207031
822.695060762064	863.200012207031
823.413903692525	863.799987792969
824.132656685151	862.400024414063
824.851319747817	863
825.569892888388	863.799987792969
826.288376114739	863
827.006769434737	864.400024414063
827.725072856249	863
828.443286387142	863.599975585938
829.161410035285	862.799987792969
829.87944380855	862.400024414063
830.597387714798	862.200012207031
831.315241761898	861.799987792969
832.033005957715	864.200012207031
832.750680310119	861.400024414063
833.468264826969	863.599975585938
834.18575951614	863.200012207031
834.903164385486	861.599975585938
835.620479442878	863
836.337704696181	862.599975585938
837.054840153255	862.599975585938
837.771885821962	862.400024414063
838.488841710172	862
839.20570782574	862.799987792969
839.922484176531	864
840.639170770409	862.799987792969
841.355767615231	863
842.072274718864	861.799987792969
842.788692089164	862
843.505019733993	864
844.221257661209	863.799987792969
844.937405878676	862.599975585938
845.65346439425	863.200012207031
846.369433215789	861.799987792969
847.085312351156	862.400024414063
847.801101808205	863.200012207031
848.516801594793	863
849.232411718781	863.799987792969
849.947932188021	862.599975585938
850.663363010376	864.400024414063
851.378704193698	863.799987792969
852.093955745842	862
852.809117674669	863.200012207031
853.524189988028	863.799987792969
854.239172693778	863.400024414063
854.954065799768	863.200012207031
855.668869313857	864.799987792969
856.383583243899	862.799987792969
857.098207597743	863.599975585938
857.812742383246	862
858.527187608255	865.400024414063
859.241543280628	864.400024414063
859.955809408218	865.400024414063
860.669985998868	864
861.384073060437	863.799987792969
862.098070600772	864.200012207031
862.811978627724	863.400024414063
863.52579714914	862
864.239526172873	863
864.953165706776	862
865.666715758687	863.200012207031
866.380176336464	864.200012207031
867.093547447951	863.400024414063
867.806829100996	863
868.520021303444	864.200012207031
869.233124063149	861
869.94613738795	862.799987792969
870.659061285693	862.400024414063
871.37189576423	862.599975585938
872.084640831403	864.599975585938
872.797296495057	863.200012207031
873.509862763039	863.400024414063
874.22233964319	864.200012207031
874.934727143353	863.400024414063
875.647025271374	865.599975585938
876.359234035097	864.200012207031
877.071353442361	864.400024414063
877.783383501015	862.799987792969
878.495324218895	863.799987792969
879.207175603844	863.799987792969
879.918937663705	863.599975585938
880.630610406318	862.599975585938
881.342193839524	863.200012207031
882.053687971161	863
882.765092809069	862.799987792969
883.476408361091	863.200012207031
884.187634635066	865
884.898771638828	864.200012207031
885.609819380221	864.599975585938
886.320777867076	865.200012207031
887.031647107236	864.400024414063
887.742427108536	863.400024414063
888.453117878816	864.599975585938
889.16371942591	864.400024414063
889.874231757652	864
890.584654881883	864.200012207031
891.294988806434	864.599975585938
892.005233539141	864.400024414063
892.715389087837	864.400024414063
893.42545546036	865.200012207031
894.135432664543	864
894.845320708216	864.599975585938
895.555119599216	863
896.264829345375	864.400024414063
896.974449954526	864.599975585938
897.683981434496	865
898.393423793125	864.200012207031
899.102777038235	864.200012207031
899.812041177664	865
900.521216219239	863
901.230302170793	864.599975585938
901.939299040155	865
902.64820683515	863.599975585938
903.357025563612	864.200012207031
904.065755233368	864
904.774395852247	867
905.482947428076	863.799987792969
906.191409968682	865
906.899783481897	865.599975585938
907.608067975538	865.599975585938
908.316263457443	866
909.02436993543	865
909.732387417327	863.599975585938
910.440315910959	864.599975585938
911.148155424154	864
911.855905964731	865.200012207031
912.563567540521	864.799987792969
913.271140159339	865.400024414063
913.978623829017	864
914.686018557374	864
915.393324352237	864.400024414063
916.100541221421	864.400024414063
916.807669172752	863.599975585938
917.514708214054	865.400024414063
918.221658353142	863.599975585938
918.928519597843	862.599975585938
919.635291955976	864.799987792969
920.341975435358	864.200012207031
921.048570043813	863.200012207031
921.75507578916	863
922.461492679212	863.400024414063
923.167820721795	863.200012207031
923.874059924726	863.200012207031
924.58021029582	861.200012207031
925.286271842893	862.200012207031
925.992244573769	863.799987792969
926.698128496262	865
927.403923618184	862
928.109629947355	863
928.815247491593	862.400024414063
929.520776258708	864.200012207031
930.226216256519	862.200012207031
930.931567492841	863.400024414063
931.636829975482	862.799987792969
932.342003712263	862.599975585938
933.047088710995	862.400024414063
933.752084979491	862.400024414063
934.456992525564	862.400024414063
935.161811357024	862.400024414063
935.866541481688	862.599975585938
936.571182907363	862.799987792969
937.275735641861	862.599975585938
937.980199692995	862.599975585938
938.684575068572	862.599975585938
939.388861776411	862.799987792969
940.093059824311	861.599975585938
940.797169220085	862.599975585938
941.501189971544	863.200012207031
942.205122086495	863.400024414063
942.908965572751	862.799987792969
943.612720438111	862.599975585938
944.316386690391	862.599975585938
945.019964337391	863.200012207031
945.723453386924	862
946.426853846795	862.200012207031
947.130165724808	862.200012207031
947.83338902877	863.799987792969
948.536523766488	863.200012207031
949.239569945764	864
949.942527574402	862.200012207031
950.64539666021	863.200012207031
951.348177210993	862.799987792969
952.050869234548	863
952.753472738683	863
953.455987731199	863.200012207031
954.158414219898	861
954.860752212587	861.799987792969
955.563001717061	862.200012207031
956.265162741124	861.599975585938
956.967235292576	863
957.669219379224	863.400024414063
958.371115008857	862.400024414063
959.072922189283	860.799987792969
959.774640928301	863.200012207031
960.476271233708	865
961.177813113301	862.599975585938
961.879266574882	862.200012207031
962.580631626248	862
963.281908275194	863
963.98309652952	862
964.684196397022	863.200012207031
965.3852078855	863.799987792969
966.086131002745	861.799987792969
966.786965756555	863.400024414063
967.487712154726	862
968.188370205055	862.400024414063
968.888939915331	862.200012207031
969.589421293352	862.599975585938
970.289814346909	862.799987792969
970.990119083801	860.599975585938
971.690335511819	862.799987792969
972.39046363875	864.200012207031
973.090503472398	862.200012207031
973.790455020545	864.400024414063
974.490318290987	863.799987792969
975.190093291516	862
975.889780029923	862.400024414063
976.589378513998	863
977.288888751527	862.400024414063
977.988310750308	862
978.687644518122	863.799987792969
979.386890062767	863.400024414063
980.086047392025	862.200012207031
980.785116513689	862.200012207031
981.484097435542	862.799987792969
982.182990165377	862.599975585938
982.88179471098	861.400024414063
983.580511080137	863.200012207031
984.279139280632	862.799987792969
984.977679320253	863
985.67613120679	863.200012207031
986.374494948027	863.200012207031
987.072770551745	862.799987792969
987.770958025731	863
988.469057377772	864
989.167068615649	861.400024414063
989.864991747145	862.400024414063
990.562826780047	862.200012207031
991.260573722134	863.799987792969
991.958232581195	863.799987792969
992.655803365003	863.599975585938
993.353286081346	862
994.050680738006	861.599975585938
994.74798734276	862.400024414063
995.44520590339	862.799987792969
996.142336427681	864.599975585938
996.839378923407	864
997.536333398348	861
998.233199860289	862.599975585938
998.929978317004	863
999.626668776274	861.799987792969
1000.32327124587	862
1001.01978573359	862.799987792969
1001.71621224718	863.599975585938
1002.41255079445	863.400024414063
1003.10880138315	862.799987792969
1003.80496402107	862.400024414063
1004.50103871599	863
1005.19702547567	862.400024414063
1005.8929243079	862.799987792969
1006.58873522045	861
1007.2844582211	863.400024414063
1007.98009331761	864
1008.67564051776	863.200012207031
1009.37109982933	863.400024414063
1010.06647126009	863
1010.7617548178	862
1011.45695051026	862.599975585938
1012.15205834522	863.400024414063
1012.84707833045	862.400024414063
1013.54201047373	863.400024414063
1014.23685478284	863.400024414063
1014.93161126553	864.599975585938
1015.62627992959	863
1016.32086078277	862.599975585938
1017.01535383285	863
1017.70975908761	862.599975585938
1018.40407655479	863.400024414063
1019.09830624219	863.200012207031
1019.79244815755	862.799987792969
1020.48650230866	863.200012207031
1021.18046870328	863.400024414063
1021.87434734917	862.400024414063
1022.56813825411	863.200012207031
1023.26184142584	863.200012207031
1023.95545687216	865.400024414063
1024.64898460082	863.400024414063
1025.34242461957	863.400024414063
1026.0357769362	864.799987792969
1026.72904155846	865.599975585938
1027.42221849412	865
1028.11530775094	865
1028.80830933668	864.200012207031
1029.50122325911	863.799987792969
1030.19404952599	865.400024414063
1030.88678814508	865
1031.57943912414	866.400024414063
1032.27200247093	864.599975585938
1032.96447819323	866
1033.65686629878	865.200012207031
1034.34916679534	867
1035.04137969068	866
1035.73350499256	866.599975585938
1036.42554270874	866
1037.11749284697	864.799987792969
1037.80935541501	864
1038.50113042062	866.200012207031
1039.19281787156	863.599975585938
1039.88441777559	865.400024414063
1040.57593014046	863.599975585938
1041.26735497393	865.400024414063
1041.95869228376	864.799987792969
1042.6499420777	864.200012207031
1043.3411043635	864.799987792969
1044.03217914893	865.599975585938
1044.72316644174	863.599975585938
1045.41406624968	864.200012207031
1046.1048785805	863.799987792969
1046.79560344197	863
1047.48624084182	862.200012207031
1048.17679078783	863
1048.86725328774	863
1049.55762834929	862.799987792969
1050.24791598025	863.799987792969
1050.93811618837	863.400024414063
1051.62822898139	863.200012207031
1052.31825436707	862.599975585938
1053.00819235315	862
1053.6980429474	863.200012207031
1054.38780615755	863.400024414063
1055.07748199136	864.799987792969
1055.76707045658	863.799987792969
1056.45657156095	863.599975585938
1057.14598531222	863.400024414063
1057.83531171814	862.599975585938
1058.52455078646	864.400024414063
1059.21370252494	865.200012207031
1059.90276694129	864.599975585938
1060.5917440433	862.599975585938
1061.28063383868	863.799987792969
1061.9694363352	863.400024414063
1062.65815154059	863
1063.34677946261	863
1064.03532010899	862.400024414063
1064.72377348748	864.200012207031
1065.41213960583	864.400024414063
1066.10041847177	864.400024414063
1066.78861009306	863.599975585938
1067.47671447743	865
1068.16473163263	864
1068.85266156639	865.599975585938
1069.54050428647	864.200012207031
1070.2282598006	864.599975585938
1070.91592811652	864.200012207031
1071.60350924198	863.200012207031
1072.29100318471	862.400024414063
1072.97840995245	864.799987792969
1073.66572955295	862.400024414063
1074.35296199394	864.599975585938
1075.04010728316	865.400024414063
1075.72716542836	862.799987792969
1076.41413643726	866
1077.10102031761	863.799987792969
1077.78781707715	864.799987792969
1078.4745267236	864.799987792969
1079.16114926471	863.599975585938
1079.84768470822	864.400024414063
1080.53413306185	862.799987792969
1081.22049433336	863.200012207031
1081.90676853046	863.400024414063
1082.5929556609	863.799987792969
1083.27905573241	863.599975585938
1083.96506875272	862.599975585938
1084.65099472957	864
1085.3368336707	863.200012207031
1086.02258558383	863.400024414063
1086.70825047669	862.799987792969
1087.39382835703	863.400024414063
1088.07931923257	863.400024414063
1088.76472311104	863
1089.45004000018	863.799987792969
1090.13526990771	862
1090.82041284137	862.400024414063
1091.50546880889	863.400024414063
1092.19043781799	864.799987792969
1092.87531987642	863.200012207031
1093.56011499188	861.799987792969
1094.24482317212	861.599975585938
1094.92944442486	863.599975585938
1095.61397875783	862.200012207031
1096.29842617876	862.200012207031
1096.98278669537	862
1097.6670603154	862.599975585938
1098.35124704656	863.799987792969
1099.03534689659	862.799987792969
1099.71935987322	862.200012207031
1100.40328598416	862.799987792969
1101.08712523713	862.599975585938
1101.77087763988	862.599975585938
1102.45454320012	862.599975585938
1103.13812192557	862.200012207031
1103.82161382396	863.200012207031
1104.50501890301	863.400024414063
1105.18833717045	863.599975585938
1105.87156863399	863.599975585938
1106.55471330137	863.599975585938
1107.2377711803	864
1107.9207422785	863
1108.60362660369	864.400024414063
1109.2864241636	863
1109.96913496594	862.799987792969
1110.65175901844	864
1111.33429632882	865
1112.01674690479	865.200012207031
1112.69911075408	865.599975585938
1113.38138788439	863.599975585938
1114.06357830346	865.200012207031
1114.745682019	864.799987792969
1115.42769903872	863.799987792969
1116.10962937035	864.200012207031
1116.7914730216	864.799987792969
1117.47323000018	864.400024414063
1118.15490031382	864.400024414063
1118.83648397022	865.599975585938
1119.51798097712	864.200012207031
1120.1993913422	864.599975585938
1120.88071507321	866.599975585938
1121.56195217784	864.799987792969
1122.24310266381	863.200012207031
1122.92416653884	865.400024414063
1123.60514381064	865
1124.28603448692	865.599975585938
1124.9668385754	866.200012207031
1125.64755608378	864.799987792969
1126.32818701978	864.799987792969
1127.00873139111	865.200012207031
1127.68918920548	867.799987792969
1128.3695604706	865.599975585938
1129.04984519419	865.799987792969
1129.73004338394	864.400024414063
1130.41015504758	865.599975585938
1131.09018019281	866.200012207031
1131.77011882734	865.400024414063
1132.44997095888	863.599975585938
1133.12973659514	865
1133.80941574381	863.599975585938
1134.48900841263	865.400024414063
1135.16851460927	864
1135.84793434147	864.799987792969
1136.52726761692	867.200012207031
1137.20651444333	864.799987792969
1137.8856748284	865.400024414063
1138.56474877984	865.400024414063
1139.24373630536	866
1139.92263741265	865.200012207031
1140.60145210943	862.799987792969
1141.28018040339	865.200012207031
1141.95882230225	864.400024414063
1142.6373778137	863.799987792969
1143.31584694545	865.200012207031
1143.99422970519	864.200012207031
1144.67252610064	865.799987792969
1145.35073613949	865
1146.02885982944	866
1146.7068971782	865.200012207031
1147.38484819347	865.599975585938
1148.06271288294	865.400024414063
1148.74049125432	866.400024414063
1149.41818331531	864.400024414063
1150.0957890736	864.599975585938
1150.77330853689	865.200012207031
1151.45074171289	863.599975585938
1152.12808860928	865.599975585938
1152.80534923378	864.799987792969
1153.48252359407	866
1154.15961169786	867
1154.83661355283	865.599975585938
1155.51352916669	865.799987792969
1156.19035854713	864.200012207031
1156.86710170185	865
1157.54375863855	866
1158.22032936491	865.400024414063
1158.89681388863	864
1159.57321221741	866
1160.24952435894	867.799987792969
1160.92575032092	864
1161.60189011103	865
1162.27794373697	865.400024414063
1162.95391120644	864.200012207031
1163.62979252712	864.599975585938
1164.3055877067	864
1164.98129675288	865.200012207031
1165.65691967336	865
1166.33245647581	864.599975585938
1167.00790716792	864.599975585938
1167.6832717574	864.599975585938
1168.35855025193	864.599975585938
1169.0337426592	864.799987792969
1169.70884898689	864.400024414063
1170.3838692427	865.599975585938
1171.05880343431	865.799987792969
1171.73365156941	865.200012207031
1172.40841365569	865.799987792969
1173.08308970083	864.200012207031
1173.75767971253	864
1174.43218369847	863
1175.10660166633	864.200012207031
1175.7809336238	864.400024414063
1176.45517957857	863.599975585938
1177.12933953832	866
1177.80341351073	864.200012207031
1178.47740150349	864.200012207031
1179.15130352429	864.200012207031
1179.8251195808	864.599975585938
1180.49884968071	863.599975585938
1181.1724938317	864.799987792969
1181.84605204145	864.400024414063
1182.51952431766	864.200012207031
1183.19291066799	863
1183.86621110013	862.799987792969
1184.53942562176	862.400024414063
1185.21255424057	863.400024414063
1185.88559696422	864.200012207031
1186.55855380041	863.799987792969
1187.2314247568	865.200012207031
1187.90420984109	863.599975585938
1188.57690906095	862.599975585938
1189.24952242405	862.799987792969
1189.92204993808	863.400024414063
1190.59449161071	863.400024414063
1191.26684744962	863
1191.93911746249	863.200012207031
1192.61130165699	863.599975585938
1193.28340004081	864.400024414063
1193.95541262161	863.400024414063
1194.62733940707	864.400024414063
1195.29918040487	864.200012207031
1195.97093562269	864
1196.64260506819	864.400024414063
1197.31418874905	863.799987792969
1197.98568667295	864
1198.65709884755	864.599975585938
1199.32842528053	863
1199.99966597957	865.400024414063
1200.67082095234	864.599975585938
1201.3418902065	864.799987792969
1202.01287374974	863
1202.68377158971	865.200012207031
1203.3545837341	862.799987792969
1204.02531019057	864.200012207031
1204.6959509668	864.599975585938
1205.36650607045	865
1206.03697550919	864.799987792969
1206.70735929069	864
1207.37765742263	864
1208.04786991266	865
1208.71799676846	865.200012207031
1209.38803799769	866.599975585938
1210.05799360803	865.400024414063
1210.72786360714	864
1211.39764800268	865.799987792969
1212.06734680233	866.400024414063
1212.73696001375	864.799987792969
1213.4064876446	864.400024414063
1214.07592970255	865
1214.74528619526	865
1215.4145571304	864.599975585938
1216.08374251564	866.400024414063
1216.75284235863	865.400024414063
1217.42185666704	865
1218.09078544854	864.799987792969
1218.75962871078	865.400024414063
1219.42838646143	865.200012207031
1220.09705870816	864.799987792969
1220.76564545861	865.799987792969
1221.43414672046	865
1222.10256250136	863.599975585938
1222.77089280898	867.200012207031
1223.43913765098	866.200012207031
1224.107297035	865
1224.77537096873	864.799987792969
1225.44335945981	866.200012207031
1226.1112625159	864.599975585938
1226.77908014467	865.599975585938
1227.44681235376	865.799987792969
1228.11445915085	867.200012207031
1228.78202054357	865.200012207031
1229.44949653961	866.799987792969
1230.11688714659	865.599975585938
1230.7841923722	866.200012207031
1231.45141222407	865.799987792969
1232.11854670988	866.200012207031
1232.78559583726	866
1233.45255961388	867
1234.1194380474	868
1234.78623114546	867.200012207031
1235.45293891572	865.799987792969
1236.11956136583	867.599975585938
1236.78609850345	866.400024414063
1237.45255033623	867.599975585938
1238.11891687182	866.599975585938
1238.78519811788	866.200012207031
1239.45139408205	865.400024414063
1240.11750477198	865.599975585938
1240.78353019534	866.599975585938
1241.44947035976	868.200012207031
1242.11532527291	865.599975585938
1242.78109494242	865.400024414063
1243.44677937595	863.799987792969
1244.11237858115	865.200012207031
1244.77789256567	865.400024414063
1245.44332133715	866.400024414063
1246.10866490325	866
1246.7739232716	864.400024414063
1247.43909644987	865.599975585938
1248.10418444569	865.599975585938
1248.76918726671	866.400024414063
1249.43410492059	864.400024414063
1250.09893741496	866.400024414063
1250.76368475747	865.400024414063
1251.42834695576	864.799987792969
1252.09292401749	864.599975585938
1252.75741595029	865.400024414063
1253.42182276182	863.599975585938
1254.08614445971	866
1254.75038105161	864.200012207031
1255.41453254515	863.799987792969
1256.07859894799	865.599975585938
1256.74258026777	865.400024414063
1257.40647651213	866.799987792969
1258.0702876887	867
1258.73401380514	865.400024414063
1259.39765486908	864.799987792969
1260.06121088817	865.599975585938
1260.72468187004	865.799987792969
1261.38806782233	866.799987792969
1262.05136875269	865.200012207031
1262.71458466875	865.599975585938
1263.37771557815	866.599975585938
1264.04076148854	864.799987792969
1264.70372240753	865.200012207031
1265.3665983428	866.200012207031
1266.02938930195	866.599975585938
1266.69209529263	864.799987792969
1267.35471632249	865.599975585938
1268.01725239914	866.799987792969
1268.67970353024	864.400024414063
1269.34206972342	865.400024414063
1270.00435098631	865.400024414063
1270.66654732655	864.799987792969
1271.32865875177	865.599975585938
1271.9906852696	865.799987792969
1272.65262688768	866.200012207031
1273.31448361365	862.799987792969
1273.97625545514	865.200012207031
1274.63794241978	864.799987792969
1275.2995445152	864.599975585938
1275.96106174903	864.200012207031
1276.62249412892	862.599975585938
1277.28384166248	866.799987792969
1277.94510435735	863.400024414063
1278.60628222116	864.599975585938
1279.26737526155	865.799987792969
1279.92838348613	865
1280.58930690255	864.799987792969
1281.25014551842	866
1281.91089934139	863
1282.57156837907	865.599975585938
1283.2321526391	865.599975585938
1283.89265212911	864.200012207031
1284.55306685671	866.200012207031
1285.21339682955	864
1285.87364205525	867.599975585938
1286.53380254142	865.599975585938
1287.19387829571	865.200012207031
1287.85386932573	865.200012207031
1288.51377563911	866.200012207031
1289.17359724348	865.799987792969
1289.83333414646	864.599975585938
1290.49298635567	866.599975585938
1291.15255387874	867.400024414063
1291.8120367233	866.799987792969
1292.47143489696	867.400024414063
1293.13074840736	866.799987792969
1293.7899772621	866.599975585938
1294.44912146882	865.799987792969
1295.10818103513	867.599975585938
1295.76715596866	865.799987792969
1296.42604627704	867.200012207031
1297.08485196787	866
1297.74357304878	868
1298.4022095274	869.200012207031
1299.06076141134	867.599975585938
1299.71922870821	867.200012207031
1300.37761142565	867
1301.03590957126	866.799987792969
1301.69412315268	867.599975585938
1302.3522521775	866
1303.01029665336	868.200012207031
1303.66825658787	866.200012207031
1304.32613198865	867.200012207031
1304.98392286332	866.400024414063
1305.64162921948	867.599975585938
1306.29925106476	867.200012207031
1306.95678840677	867
1307.61424125312	868
1308.27160961145	867.200012207031
1308.92889348934	867.200012207031
1309.58609289443	868.599975585938
1310.24320783432	867.400024414063
1310.90023831664	868
1311.55718434898	866.200012207031
1312.21404593897	866.400024414063
1312.87082309421	868
1313.52751582233	868.400024414063
1314.18412413092	867
1314.84064802761	867.799987792969
1315.49708752	868.200012207031
1316.1534426157	867.799987792969
1316.80971332233	867.599975585938
1317.46589964749	868.400024414063
1318.1220015988	868.599975585938
1318.77801918386	867.400024414063
1319.43395241028	867.799987792969
1320.08980128567	868.799987792969
1320.74556581764	868.200012207031
1321.4012460138	868.599975585938
1322.05684188176	870
1322.71235342911	867.200012207031
1323.36778066347	869.400024414063
1324.02312359245	869
1324.67838222365	867
1325.33355656468	867.400024414063
1325.98864662314	868.200012207031
1326.64365240663	868.599975585938
1327.29857392277	867
1327.95341117915	868.400024414063
1328.60816418339	869.400024414063
1329.26283294308	866.799987792969
1329.91741746582	868.799987792969
1330.57191775923	869.400024414063
1331.2263338309	867.200012207031
1331.88066568843	867.200012207031
1332.53491333943	869.599975585938
1333.1890767915	867
1333.84315605224	867.200012207031
1334.49715112925	867.799987792969
1335.15106203013	866
1335.80488876249	865.200012207031
1336.45863133391	868
1337.112289752	868.799987792969
1337.76586402437	867.599975585938
1338.4193541586	867.799987792969
1339.0727601623	867.599975585938
1339.72608204306	868
1340.37931980849	869.400024414063
1341.03247346617	867.400024414063
1341.68554302372	866.599975585938
1342.33852848871	866.400024414063
1342.99142986876	867.799987792969
1343.64424717145	867
1344.29698040438	866.400024414063
1344.94962957515	868.200012207031
1345.60219469135	867.599975585938
1346.25467576058	867.200012207031
1346.90707279042	866.200012207031
1347.55938578848	868.400024414063
1348.21161476235	867.200012207031
1348.86375971962	867.200012207031
1349.51582066787	867.200012207031
1350.16779761472	866.200012207031
1350.81969056774	868.400024414063
1351.47149953453	868.599975585938
1352.12322452269	868
1352.77486553979	869.400024414063
1353.42642259344	868
1354.07789569122	868.400024414063
1354.72928484072	867.400024414063
1355.38059004953	868.799987792969
1356.03181132525	867.400024414063
1356.68294867545	866.799987792969
1357.33400210773	867.799987792969
1357.98497162968	866
1358.63585724889	866.799987792969
1359.28665897294	868
1359.93737680942	869.200012207031
1360.58801076591	868.200012207031
1361.23856085001	867.799987792969
1361.88902706929	869.799987792969
1362.53940943135	868.799987792969
1363.18970794377	868.200012207031
1363.83992261413	869.200012207031
1364.49005345003	867.400024414063
1365.14010045904	866.599975585938
1365.79006364874	866.599975585938
1366.43994302673	867.200012207031
1367.08973860058	866.400024414063
1367.73945037788	867.599975585938
1368.38907836621	866.599975585938
1369.03862257315	868.599975585938
1369.68808300629	867.599975585938
1370.3374596732	868.400024414063
1370.98675258148	868.200012207031
1371.63596173868	867.599975585938
1372.28508715241	866.200012207031
1372.93412883024	867.799987792969
1373.58308677974	867
1374.2319610085	866.799987792969
1374.8807515241	868.599975585938
1375.52945833412	866.400024414063
1376.17808144612	868
1376.82662086771	868.200012207031
1377.47507660644	867.200012207031
1378.12344866989	869.599975585938
1378.77173706565	868.200012207031
1379.41994180129	868
1380.06806288439	869.200012207031
1380.71610032252	867.400024414063
1381.36405412326	869.200012207031
1382.01192429419	870.400024414063
1382.65971084287	870.599975585938
1383.30741377688	870
1383.95503310381	869
1384.60256883121	869.799987792969
1385.25002096667	869.200012207031
1385.89738951775	871.599975585938
1386.54467449204	868.400024414063
1387.19187589709	871.400024414063
1387.8389937405	870.200012207031
1388.48602802982	870
1389.13297877262	871.400024414063
1389.77984597649	870.200012207031
1390.42662964899	868.200012207031
1391.07332979768	871.599975585938
1391.71994643015	871.599975585938
1392.36647955395	870.400024414063
1393.01292917667	871.400024414063
1393.65929530586	871
1394.3055779491	868.599975585938
1394.95177711395	871.400024414063
1395.59789280799	871.200012207031
1396.24392503877	869.400024414063
1396.88987381387	870.799987792969
1397.53573914086	870.599975585938
1398.1815210273	871
1398.82721948075	871.200012207031
1399.47283450878	871.200012207031
1400.11836611897	872.200012207031
1400.76381431886	870.799987792969
1401.40917911603	870
1402.05446051805	871.400024414063
1402.69965853247	870.400024414063
1403.34477316686	869.400024414063
1403.98980442878	872
1404.6347523258	869.200012207031
1405.27961686548	870.599975585938
1405.92439805538	870
1406.56909590306	869
1407.21371041608	869.599975585938
1407.85824160202	868.799987792969
1408.50268946841	869.599975585938
1409.14705402284	867.400024414063
1409.79133527285	869.400024414063
1410.43553322601	867.400024414063
1411.07964788987	870.599975585938
1411.723679272	869.599975585938
1412.36762737996	869.599975585938
1413.01149222129	871
1413.65527380357	869
1414.29897213435	870.400024414063
1414.94258722118	869.599975585938
1415.58611907163	869.799987792969
1416.22956769325	872.400024414063
1416.87293309359	872.799987792969
1417.51621528021	869.200012207031
1418.15941426067	872.200012207031
1418.80253004253	870.799987792969
1419.44556263333	871.599975585938
1420.08851204063	871.400024414063
1420.731378272	871
1421.37416133497	872
1422.0168612371	872
1422.65947798596	873.200012207031
1423.30201158908	873
1423.94446205403	873.799987792969
1424.58682938835	871.599975585938
1425.2291135996	874.400024414063
1425.87131469532	875.200012207031
1426.51343268308	873.799987792969
1427.15546757042	876.400024414063
1427.79741936488	874.599975585938
1428.43928807403	872.599975585938
1429.0810737054	874.400024414063
1429.72277626656	874.799987792969
1430.36439576504	874.799987792969
1431.00593220841	873.200012207031
1431.64738560419	874.400024414063
1432.28875595995	872.400024414063
1432.93004328324	876
1433.57124758159	873.200012207031
1434.21236886255	874.599975585938
1434.85340713368	876.200012207031
1435.49436240252	874.799987792969
1436.13523467661	876.799987792969
1436.77602396349	876.799987792969
1437.41673027073	875.599975585938
1438.05735360585	874
1438.69789397641	872.799987792969
1439.33835138994	873.200012207031
1439.978725854	873.799987792969
1440.61901737612	874.400024414063
1441.25922596385	874.599975585938
1441.89935162473	874.599975585938
1442.53939436631	874.200012207031
1443.17935419612	872.599975585938
1443.81923112171	875.400024414063
1444.45902515061	875.599975585938
1445.09873629038	874.400024414063
1445.73836454854	876.400024414063
1446.37790993265	873
1447.01737245024	876.599975585938
1447.65675210885	876.599975585938
1448.29604891602	876.400024414063
1448.93526287928	873.400024414063
1449.57439400618	875.599975585938
1450.21344230426	876
1450.85240778105	873.599975585938
1451.49129044409	875.599975585938
1452.13009030092	875.400024414063
1452.76880735907	874.400024414063
1453.40744162608	874.599975585938
1454.04599310949	874.400024414063
1454.68446181683	873.400024414063
1455.32284775564	873.799987792969
1455.96115093345	870.599975585938
1456.5993713578	872.599975585938
1457.23750903623	873.200012207031
1457.87556397626	871.200012207031
1458.51353618543	871.400024414063
1459.15142567127	872.599975585938
1459.78923244132	873.200012207031
1460.42695650311	871.599975585938
1461.06459786417	872.599975585938
1461.70215653203	873.599975585938
1462.33963251423	868.599975585938
1462.97702581829	870.799987792969
1463.61433645175	872
1464.25156442214	872.599975585938
1464.88870973699	871.799987792969
1465.52577240382	870.799987792969
1466.16275243017	870.200012207031
1466.79964982356	869.400024414063
1467.43646459154	871.599975585938
1468.07319674161	869.400024414063
1468.70984628132	870.599975585938
1469.34641321818	870.400024414063
1469.98289755974	870.799987792969
1470.6192993135	869.599975585938
1471.25561848701	872.400024414063
1471.89185508779	872
1472.52800912336	869.400024414063
1473.16408060124	870.799987792969
1473.80006952897	869.799987792969
1474.43597591407	871.400024414063
1475.07179976406	869
1475.70754108647	871.799987792969
1476.34319988883	869.599975585938
1476.97877617865	871.200012207031
1477.61426996345	870.400024414063
1478.24968125077	870
1478.88501004812	869.599975585938
1479.52025636303	871.400024414063
1480.15542020302	870.599975585938
1480.79050157561	870.400024414063
1481.42550048832	869.799987792969
1482.06041694867	872
1482.69525096418	871.599975585938
1483.33000254237	869
1483.96467169077	872.599975585938
1484.59925841689	871.799987792969
1485.23376272825	871
1485.86818463237	869.599975585938
1486.50252413677	872.400024414063
1487.13678124896	870
1487.77095597646	868.200012207031
1488.4050483268	870
1489.03905830749	869.599975585938
1489.67298592604	869.200012207031
1490.30683118996	867.599975585938
1490.9405941068	869
1491.57427468403	868.599975585938
1492.2078729292	869.200012207031
1492.84138884981	868.799987792969
1493.47482245338	868.599975585938
1494.10817374742	869.599975585938
1494.74144273944	867.799987792969
1495.37462943696	868.799987792969
1496.0077338475	869.599975585938
1496.64075597856	868.799987792969
1497.27369583765	869.799987792969
1497.9065534323	870.599975585938
1498.53932877001	868.599975585938
1499.17202185829	869.400024414063
1499.80463270465	869.400024414063
1500.43716131661	867.599975585938
1501.06960770167	868.599975585938
1501.70197186735	869.799987792969
1502.33425382116	870
1502.96645357059	869.799987792969
1503.59857112317	869.599975585938
1504.23060648641	868.799987792969
1504.8625596678	868
1505.49443067486	868.599975585938
1506.1262195151	871.400024414063
1506.75792619602	869.400024414063
1507.38955072513	868.400024414063
1508.02109310993	868
1508.65255335794	867.799987792969
1509.28393147666	867
1509.91522747359	869.799987792969
1510.54644135624	868.599975585938
1511.17757313212	868
1511.80862280872	869
1512.43959039356	867.799987792969
1513.07047589413	869.400024414063
1513.70127931795	868.200012207031
1514.33200067251	867.599975585938
1514.96263996531	868.799987792969
1515.59319720386	866.599975585938
1516.22367239567	866.400024414063
1516.85406554822	868.400024414063
1517.48437666903	869
1518.1146057656	868
1518.74475284542	865.799987792969
1519.374817916	865.599975585938
1520.00480098483	868.400024414063
1520.63470205942	867.599975585938
1521.26452114726	866.599975585938
1521.89425825586	866.599975585938
1522.52391339271	868
1523.15348656531	865.200012207031
1523.78297778116	866.200012207031
1524.41238704775	867.599975585938
1525.04171437259	866
1525.67095976317	868.400024414063
1526.30012322699	867
1526.92920477154	866.200012207031
1527.55820440432	866.799987792969
1528.18712213283	865
1528.81595796455	866.200012207031
1529.44471190699	866.400024414063
1530.07338396764	865.599975585938
1530.70197415399	866.200012207031
1531.33048247353	866.200012207031
1531.95890893377	867
1532.58725354219	866.200012207031
1533.21551630629	866
1533.84369723356	865.799987792969
1534.47179633148	864.799987792969
1535.09981360757	865.799987792969
1535.72774906929	868
1536.35560272415	864.799987792969
1536.98337457963	864.799987792969
1537.61106464323	864
1538.23867292243	865.799987792969
1538.86619942473	863.599975585938
1539.49364415762	864.799987792969
1540.12100712857	864.200012207031
1540.74828834509	868
1541.37548781466	865.799987792969
1542.00260554478	865.599975585938
1542.62964154291	864.799987792969
1543.25659581655	863.200012207031
1543.8834683732	865.200012207031
1544.51025922034	865.799987792969
1545.13696836544	864
1545.76359581601	865
1546.39014157952	864.599975585938
1547.01660566345	864
1547.64298807531	864.799987792969
1548.26928882255	864
1548.89550791269	864.799987792969
1549.52164535318	863.400024414063
1550.14770115153	864.799987792969
1550.77367531521	864.599975585938
1551.39956785171	865.599975585938
1552.0253787685	865.400024414063
1552.65110807307	865.799987792969
1553.2767557729	864.200012207031
1553.90232187548	864
1554.52780638828	863.799987792969
1555.15320931879	864
1555.77853067447	863.400024414063
1556.40377046282	863.799987792969
1557.02892869132	863.200012207031
1557.65400536744	864
1558.27900049866	863.200012207031
1558.90391409247	863.799987792969
1559.52874615633	864.799987792969
1560.15349669773	863.400024414063
1560.77816572414	865.799987792969
1561.40275324305	865.400024414063
1562.02725926192	865.599975585938
1562.65168378824	864
1563.27602682948	864
1563.90028839311	863.200012207031
1564.52446848662	863.799987792969
1565.14856711748	863.799987792969
1565.77258429316	863.200012207031
1566.39652002113	863.599975585938
1567.02037430887	863.400024414063
1567.64414716387	863.799987792969
1568.26783859357	864.799987792969
1568.89144860547	863.400024414063
1569.51497720703	863.599975585938
1570.13842440573	863.599975585938
1570.76179020904	865.799987792969
1571.38507462442	863.599975585938
1572.00827765936	864.200012207031
1572.63139932132	866.400024414063
1573.25443961777	864.799987792969
1573.87739855618	863.599975585938
1574.50027614402	863.799987792969
1575.12307238877	864.400024414063
1575.74578729789	865.400024414063
1576.36842087885	866.200012207031
1576.99097313912	864.200012207031
1577.61344408616	864.400024414063
1578.23583372745	865
1578.85814207046	863
1579.48036912264	862.599975585938
1580.10251489147	864
1580.72457938441	864.799987792969
1581.34656260893	865
1581.9684645725	863.799987792969
1582.59028528258	864.400024414063
1583.21202474663	866
1583.83368297212	865
1584.45525996652	864.799987792969
1585.07675573728	863.799987792969
1585.69817029188	863.400024414063
1586.31950363778	865.400024414063
1586.94075578243	864
1587.5619267333	864.599975585938
1588.18301649786	865.799987792969
1588.80402508357	863.400024414063
1589.42495249788	864
1590.04579874826	865.799987792969
1590.66656384217	864.799987792969
1591.28724778707	865.400024414063
1591.90785059042	864.799987792969
1592.52837225968	865.400024414063
1593.14881280232	866
1593.76917222578	866
1594.38945053753	865.799987792969
1595.00964774502	865.799987792969
1595.62976385573	866
1596.24979887709	864.200012207031
1596.86975281657	865
1597.48962568164	865.400024414063
1598.10941747974	864.200012207031
1598.72912821832	865.400024414063
1599.34875790486	866.400024414063
1599.9683065468	864
1600.58777415159	866
1601.2071607267	864.599975585938
1601.82646627958	865.200012207031
1602.44569081769	864.599975585938
1603.06483434846	864.200012207031
1603.68389687937	865
1604.30287841786	865
1604.92177897139	867.400024414063
1605.54059854741	866.200012207031
1606.15933715337	863.799987792969
1606.77799479672	866
1607.39657148492	866.400024414063
1608.01506722542	867.400024414063
1608.63348202566	866.599975585938
1609.2518158931	867.799987792969
1609.87006883519	866.799987792969
1610.48824085939	869.599975585938
1611.10633197312	867
1611.72434218386	868.799987792969
1612.34227149904	865.799987792969
1612.96011992612	868.799987792969
1613.57788747254	867.599975585938
1614.19557414575	868.400024414063
1614.8131799532	870.400024414063
1615.43070490234	869.599975585938
1616.04814900061	870.799987792969
1616.66551225545	871.400024414063
1617.28279467433	871
1617.89999626467	871.200012207031
1618.51711703393	870.200012207031
1619.13415698955	874.200012207031
1619.75111613898	873
1620.36799448966	873.400024414063
1620.98479204903	874
1621.60150882455	870.799987792969
1622.21814482364	873
1622.83470005376	874.599975585938
1623.45117452235	876.799987792969
1624.06756823685	873
1624.6838812047	876
1625.30011343335	874.200012207031
1625.91626493022	875.400024414063
1626.53233570278	875
1627.14832575845	876
1627.76423510468	874
1628.38006374891	873.599975585938
1628.99581169857	874
1629.61147896111	870
1630.22706554397	872
1630.84257145457	873.400024414063
1631.45799670038	872.400024414063
1632.07334128881	872.200012207031
1632.6886052273	872.200012207031
1633.3037885233	870.799987792969
1633.91889118425	870
1634.53391321757	870
1635.1488546307	869
1635.76371543108	868.599975585938
1636.37849562616	866.799987792969
1636.99319522335	866.200012207031
1637.60781423009	865.599975585938
1638.22235265383	866.200012207031
1638.83681050198	865.599975585938
1639.451187782	863.599975585938
1640.0654845013	865.400024414063
1640.67970066734	863.799987792969
1641.29383628752	864.200012207031
1641.9078913693	864.400024414063
1642.5218659201	862.799987792969
1643.13575994735	864.599975585938
1643.74957345849	862.200012207031
1644.36330646094	863
1644.97695896213	863.400024414063
1645.59053096951	862.799987792969
1646.20402249049	863.799987792969
1646.8174335325	864
1647.43076410298	863
1648.04401420935	863
1648.65718385905	863.599975585938
1649.2702730595	862.599975585938
1649.88328181812	864.400024414063
1650.49621014236	863
1651.10905803963	864
1651.72182551735	862.799987792969
1652.33451258297	862
1652.9471192439	863.599975585938
1653.55964550757	863.400024414063
1654.1720913814	862
1654.78445687283	862.400024414063
1655.39674198926	862
1656.00894673814	862.200012207031
1656.62107112688	862.599975585938
1657.23311516291	862
1657.84507885365	862.799987792969
1658.45696220652	861.599975585938
1659.06876522895	861.799987792969
1659.68048792835	862.200012207031
1660.29213031217	862.200012207031
1660.90369238779	863.799987792969
1661.51517416267	863
1662.12657564421	861.799987792969
1662.73789683984	863
1663.34913775697	860.599975585938
1663.96029840303	861.599975585938
1664.57137878544	861.799987792969
1665.18237891161	861
1665.79329878897	861
1666.40413842493	862.400024414063
1667.01489782691	861.599975585938
1667.62557700233	860.599975585938
1668.2361759586	861
1668.84669470315	861
1669.4571332434	860.599975585938
1670.06749158675	860.799987792969
1670.67776974062	861.599975585938
1671.28796771243	861.799987792969
1671.8980855096	860.400024414063
1672.50812313954	862.799987792969
1673.11808060967	862.200012207031
1673.72795792739	860.400024414063
1674.33775510013	861.799987792969
1674.9474721353	861.599975585938
1675.55710904031	863
1676.16666582257	861.400024414063
1676.7761424895	861.799987792969
1677.38553904851	862
1677.99485550702	861.200012207031
1678.60409187243	861
1679.21324815215	862.200012207031
1679.8223243536	862.200012207031
1680.43132048419	861.400024414063
1681.04023655132	861.400024414063
1681.64907256241	861.599975585938
1682.25782852487	861.200012207031
1682.86650444611	860.599975585938
1683.47510033353	861
1684.08361619455	862.599975585938
1684.69205203657	861.799987792969
1685.300407867	861.599975585938
1685.90868369325	862
1686.51687952272	861
1687.12499536283	861.799987792969
1687.73303122098	860.200012207031
1688.34098710457	860.599975585938
1688.94886302101	861.799987792969
1689.55665897772	860.200012207031
1690.16437498208	862
1690.77201104152	860.799987792969
1691.37956716342	860.799987792969
1691.9870433552	861.400024414063
1692.59443962426	862.200012207031
1693.20175597801	861.400024414063
1693.80899242384	861.599975585938
1694.41614896916	859.599975585938
1695.02322562138	859.599975585938
1695.63022238789	860.200012207031
1696.23713927609	860.599975585938
1696.8439762934	861
1697.4507334472	861
1698.05741074491	860.200012207031
1698.66400819391	861
1699.27052580161	859.799987792969
1699.87696357542	862.200012207031
1700.48332152272	861
1701.08959965092	861.599975585938
1701.69579796742	861.599975585938
1702.30191647962	860.599975585938
1702.90795519491	859.799987792969
1703.51391412069	860.799987792969
1704.11979326437	859.599975585938
1704.72559263332	861.200012207031
1705.33131223496	860.599975585938
1705.93695207668	861.200012207031
1706.54251216588	860.799987792969
1707.14799250994	860.200012207031
1707.75339311628	860.799987792969
1708.35871399227	859.599975585938
1708.96395514532	861.400024414063
1709.56911658282	859.400024414063
