634.948122577771	860.599975585938
635.690341530823	861
636.43246851086	860
637.174503525845	861
637.916446583745	860
638.658297692538	861.799987792969
639.400056860179	860.599975585938
640.141724094637	861.799987792969
640.883299403885	859
641.62478279588	860.799987792969
642.366174278594	859.400024414063
643.107473859989	861.799987792969
643.848681548029	861.200012207031
644.589797350679	860.200012207031
645.330821275901	859.400024414063
646.071753331665	860.799987792969
646.812593525922	861
647.553341866646	860.799987792969
648.293998361798	860.200012207031
649.03456301933	860.599975585938
649.775035847216	859.799987792969
650.515416853409	861.400024414063
651.255706045874	861.599975585938
651.995903432568	860.200012207031
652.736009021453	861
653.476022820486	861.200012207031
654.215944837629	860.599975585938
654.955775080842	859.599975585938
655.695513558081	860
656.435160277301	859.400024414063
657.174715246465	860.400024414063
657.914178473527	860.599975585938
658.653549966449	861.599975585938
659.392829733176	860.200012207031
660.132017781678	861.400024414063
660.871114119901	861.200012207031
661.610118755803	860.599975585938
662.349031697343	860.400024414063
663.087852952468	859.599975585938
663.826582529139	860.200012207031
664.565220435305	860.599975585938
665.30376667892	860.400024414063
666.04222126794	862
666.780584210316	861.400024414063
667.518855514	862.599975585938
668.25703518694	860.799987792969
668.995123237096	860.400024414063
669.733119672413	861.400024414063
670.471024500842	859.799987792969
671.208837730333	860
671.946559368839	860.799987792969
672.684189424308	860.799987792969
673.421727904689	861.799987792969
674.159174817929	859.599975585938
674.896530171977	860.200012207031
675.633793974786	859.200012207031
676.370966234295	860.200012207031
677.108046958461	860.599975585938
677.845036155219	860.400024414063
678.581933832528	862.200012207031
679.318739998323	860.799987792969
680.055454660558	860
680.792077827172	860
681.528609506116	860.799987792969
682.265049705331	860.400024414063
683.001398432759	860.400024414063
683.737655696349	861.200012207031
684.47382150404	861.400024414063
685.20989586378	860.599975585938
685.945878783503	860.799987792969
686.68177027116	860.200012207031
687.417570334688	861.400024414063
688.153278982032	860
688.888896221129	859.200012207031
689.624422059921	860.400024414063
690.359856506349	860.799987792969
691.095199568354	861.599975585938
691.830451253874	860.599975585938
692.565611570844	860.400024414063
693.300680527212	860.400024414063
694.03565813091	860.799987792969
694.770544389877	860.200012207031
695.505339312053	859
696.240042905372	859.400024414063
696.974655177772	859.200012207031
697.70917613719	861
698.443605791561	859.599975585938
699.177944148826	859.599975585938
699.912191216909	860
700.646347003755	859.599975585938
701.380411517295	859
702.114384765465	861.200012207031
702.848266756195	860.400024414063
703.582057497421	859.799987792969
704.315756997074	859.200012207031
705.049365263089	859.200012207031
705.782882303399	860
706.516308125936	859
707.249642738626	859.599975585938
707.982886149403	859
708.716038366204	859.599975585938
709.449099396949	860.200012207031
710.182069249577	859.400024414063
710.914947932009	859.400024414063
711.647735452181	859.400024414063
712.380431818022	859.599975585938
713.113037037454	858.200012207031
713.845551118411	859.799987792969
714.577974068818	859.200012207031
715.310305896604	859.799987792969
716.042546609694	858
716.774696216013	858.200012207031
717.506754723493	858.799987792969
718.238722140053	859.400024414063
718.970598473624	858.200012207031
719.702383732127	859.400024414063
720.43407792349	858.799987792969
721.165681055634	859.599975585938
721.897193136486	858.799987792969
722.628614173966	859
723.359944175997	858.799987792969
724.091183150505	859.599975585938
724.822331105412	858.799987792969
725.553388048638	859
726.284353988106	858.200012207031
727.015228931734	858.799987792969
727.746012887449	859.599975585938
728.476705863162	860.599975585938
729.207307866803	859.599975585938
729.937818906289	858.599975585938
730.668238989535	859.599975585938
731.398568124459	858.599975585938
732.128806318986	860.799987792969
732.858953581034	858.599975585938
733.589009918514	859.799987792969
734.318975339348	859.200012207031
735.048849851452	858.799987792969
735.778633462744	860.400024414063
736.508326181137	859.599975585938
737.237928014549	858.200012207031
737.967438970897	860.200012207031
738.696859058095	859.599975585938
739.426188284054	859.799987792969
740.155426656692	860
740.884574183922	858.200012207031
741.613630873659	858.400024414063
742.342596733815	858.400024414063
743.071471772302	859.400024414063
743.800255997034	859.599975585938
744.528949415921	859.599975585938
745.257552036877	859.200012207031
745.986063867811	858.400024414063
746.714484916638	857
747.442815191261	859.599975585938
748.171054699597	859.799987792969
748.899203449554	859.200012207031
749.627261449039	859.400024414063
750.355228705966	859.200012207031
751.083105228239	859.799987792969
751.810891023765	859.799987792969
752.538586100459	859.200012207031
753.266190466218	859.400024414063
753.99370412896	859.599975585938
754.721127096582	858.200012207031
755.448459377	859.599975585938
756.175700978114	858.200012207031
756.902851907828	858.599975585938
757.629912174055	859
758.356881784688	860
759.083760747639	858.200012207031
759.810549070817	859.599975585938
760.537246762113	859.400024414063
761.263853829442	858.200012207031
761.990370280698	860
762.716796123791	859
763.443131366618	858
764.169376017082	858.200012207031
764.895530083085	860
765.621593572527	860
766.347566493312	859.400024414063
767.073448853336	859.200012207031
767.799240660502	858.599975585938
768.524941922707	860
769.250552647854	860.200012207031
769.976072843836	859.200012207031
770.701502518551	859
771.426841679905	859.200012207031
772.152090335793	859
772.877248494107	859.400024414063
773.602316162747	859.200012207031
774.327293349609	860
775.052180062592	859.400024414063
775.776976309589	859.200012207031
776.501682098496	860.799987792969
777.226297437206	858.799987792969
777.950822333616	859
778.675256795621	860
779.399600831111	859
780.123854447983	859.200012207031
780.84801765413	859
781.572090457441	858.799987792969
782.296072865811	858.400024414063
783.019964887131	860.799987792969
783.743766529297	860
784.467477800194	859.400024414063
785.191098707719	859
785.914629259756	859.799987792969
786.638069464194	858.599975585938
787.361419328932	858.400024414063
788.084678861852	858.799987792969
788.807848070845	859.200012207031
789.530926963798	859.200012207031
790.253915548602	859.200012207031
790.976813833144	860
791.699621825307	859.599975585938
792.422339532986	858.599975585938
793.144966964061	860.200012207031
793.86750412642	858.200012207031
794.589951027946	858.599975585938
795.312307676536	858.599975585938
796.03457408006	859.200012207031
796.756750246417	858.599975585938
797.478836183477	858.599975585938
798.200831899137	859.200012207031
798.92273740127	858.799987792969
799.644552697769	859.200012207031
800.36627779651	859.200012207031
801.087912705374	859
801.809457432251	859.200012207031
802.530911985017	859.400024414063
803.252276371558	859.200012207031
803.973550599748	858
804.694734677472	859
805.415828612611	858.799987792969
806.136832413045	859.599975585938
806.857746086646	859.799987792969
807.578569641305	859.400024414063
808.299303084892	859.599975585938
809.019946425289	860.599975585938
809.740499670372	859.400024414063
810.460962828022	860.200012207031
811.181335906114	859.799987792969
811.901618912524	858.799987792969
812.621811855131	859
813.341914741809	858.799987792969
814.061927580433	859.200012207031
814.781850378881	858.400024414063
815.501683145025	858.400024414063
816.221425886743	859.799987792969
816.941078611903	858.400024414063
817.660641328387	858.400024414063
818.380114044065	859.400024414063
819.099496766808	858.599975585938
819.818789504492	859.599975585938
820.53799226499	858.599975585938
821.257105056168	859.799987792969
821.976127885904	859.799987792969
822.695060762064	859.400024414063
823.413903692525	859
824.132656685151	859.799987792969
824.851319747817	859.599975585938
825.569892888388	860.599975585938
826.288376114739	858.200012207031
827.006769434737	859.200012207031
827.725072856249	860.200012207031
828.443286387142	858.799987792969
829.161410035285	859.400024414063
829.87944380855	858.599975585938
830.597387714798	859.400024414063
831.315241761898	859.599975585938
832.033005957715	859
832.750680310119	859
833.468264826969	858.200012207031
834.18575951614	858.799987792969
834.903164385486	860.200012207031
835.620479442878	859.599975585938
836.337704696181	859.799987792969
837.054840153255	859.799987792969
837.771885821962	858.799987792969
838.488841710172	858.799987792969
839.20570782574	859
839.922484176531	859.799987792969
840.639170770409	858.799987792969
841.355767615231	858.599975585938
842.072274718864	859
842.788692089164	859.200012207031
843.505019733993	859
844.221257661209	859.400024414063
844.937405878676	858.200012207031
845.65346439425	858.400024414063
846.369433215789	857.799987792969
847.085312351156	858.799987792969
847.801101808205	858.799987792969
848.516801594793	858.400024414063
849.232411718781	859.200012207031
849.947932188021	858.599975585938
850.663363010376	859
851.378704193698	858.400024414063
852.093955745842	859.200012207031
852.809117674669	859.200012207031
853.524189988028	860.400024414063
854.239172693778	858.799987792969
854.954065799768	859.200012207031
855.668869313857	859.200012207031
856.383583243899	858.400024414063
857.098207597743	859.599975585938
857.812742383246	859.400024414063
858.527187608255	859.400024414063
859.241543280628	859.200012207031
859.955809408218	859.799987792969
860.669985998868	858.400024414063
861.384073060437	859
862.098070600772	859.599975585938
862.811978627724	859.599975585938
863.52579714914	859
864.239526172873	860.400024414063
864.953165706776	858.200012207031
865.666715758687	859.599975585938
866.380176336464	857.799987792969
867.093547447951	857.599975585938
867.806829100996	859.200012207031
868.520021303444	858.599975585938
869.233124063149	858.400024414063
869.94613738795	859.200012207031
870.659061285693	859.799987792969
871.37189576423	858.599975585938
872.084640831403	859.400024414063
872.797296495057	860
873.509862763039	859.799987792969
874.22233964319	860
874.934727143353	859.799987792969
875.647025271374	859.599975585938
876.359234035097	858.400024414063
877.071353442361	859.799987792969
877.783383501015	859.400024414063
878.495324218895	860
879.207175603844	859.599975585938
879.918937663705	860
880.630610406318	859.200012207031
881.342193839524	860.599975585938
882.053687971161	860.200012207031
882.765092809069	858.200012207031
883.476408361091	860.200012207031
884.187634635066	858.599975585938
884.898771638828	858.799987792969
885.609819380221	859.200012207031
886.320777867076	858.799987792969
887.031647107236	859.599975585938
887.742427108536	858.400024414063
888.453117878816	858.799987792969
889.16371942591	860
889.874231757652	860
890.584654881883	859.599975585938
891.294988806434	859.799987792969
892.005233539141	860.400024414063
892.715389087837	859.200012207031
893.42545546036	859.599975585938
894.135432664543	859.200012207031
894.845320708216	859.200012207031
895.555119599216	860.400024414063
896.264829345375	860.599975585938
896.974449954526	859.200012207031
897.683981434496	858.599975585938
898.393423793125	860.599975585938
899.102777038235	859.599975585938
899.812041177664	859
900.521216219239	859.799987792969
901.230302170793	859.599975585938
901.939299040155	860
902.64820683515	858.400024414063
903.357025563612	859
904.065755233368	860.599975585938
904.774395852247	859.599975585938
905.482947428076	860.799987792969
906.191409968682	859
906.899783481897	860.599975585938
907.608067975538	860.200012207031
908.316263457443	859
909.02436993543	860.799987792969
909.732387417327	858.200012207031
910.440315910959	858
911.148155424154	858.200012207031
911.855905964731	859.799987792969
912.563567540521	859
913.271140159339	858.799987792969
913.978623829017	859.400024414063
914.686018557374	859.400024414063
915.393324352237	858.400024414063
916.100541221421	859.599975585938
916.807669172752	860.400024414063
917.514708214054	859
918.221658353142	858.799987792969
918.928519597843	859.400024414063
919.635291955976	858.799987792969
920.341975435358	859.799987792969
921.048570043813	858.799987792969
921.75507578916	860.400024414063
922.461492679212	858.599975585938
923.167820721795	860
923.874059924726	859.200012207031
924.58021029582	859.400024414063
925.286271842893	859.400024414063
925.992244573769	859.799987792969
926.698128496262	858
927.403923618184	859.400024414063
928.109629947355	859
928.815247491593	858.599975585938
929.520776258708	858.599975585938
930.226216256519	859
930.931567492841	859.599975585938
931.636829975482	857.599975585938
932.342003712263	858.599975585938
933.047088710995	860.799987792969
933.752084979491	859.599975585938
934.456992525564	858.799987792969
935.161811357024	859.400024414063
935.866541481688	858.400024414063
936.571182907363	859.599975585938
937.275735641861	859.200012207031
937.980199692995	858.200012207031
938.684575068572	859.400024414063
939.388861776411	859.799987792969
940.093059824311	859
940.797169220085	860.400024414063
941.501189971544	859.400024414063
942.205122086495	858.799987792969
942.908965572751	859
943.612720438111	860.200012207031
944.316386690391	858.599975585938
945.019964337391	859
945.723453386924	858.799987792969
946.426853846795	859.400024414063
947.130165724808	859.200012207031
947.83338902877	859.799987792969
948.536523766488	860.400024414063
949.239569945764	859.599975585938
949.942527574402	859.799987792969
950.64539666021	858.799987792969
951.348177210993	858.799987792969
952.050869234548	860.200012207031
952.753472738683	859.200012207031
953.455987731199	859
954.158414219898	858.400024414063
954.860752212587	858.799987792969
955.563001717061	859.400024414063
956.265162741124	858.599975585938
956.967235292576	858.799987792969
957.669219379224	859
958.371115008857	858.799987792969
959.072922189283	858
959.774640928301	858.400024414063
960.476271233708	859.799987792969
961.177813113301	859.400024414063
961.879266574882	859.599975585938
962.580631626248	858.799987792969
963.281908275194	859.400024414063
963.98309652952	859.200012207031
964.684196397022	858.799987792969
965.3852078855	859.599975585938
966.086131002745	858.599975585938
966.786965756555	859.400024414063
967.487712154726	859.200012207031
968.188370205055	859
968.888939915331	859.200012207031
969.589421293352	859.400024414063
970.289814346909	859.799987792969
970.990119083801	858
971.690335511819	858.799987792969
972.39046363875	858.599975585938
973.090503472398	859.599975585938
973.790455020545	859.200012207031
974.490318290987	858.599975585938
975.190093291516	858.400024414063
975.889780029923	859
976.589378513998	859.400024414063
977.288888751527	858.799987792969
977.988310750308	859
978.687644518122	859.799987792969
979.386890062767	859.200012207031
980.086047392025	858.599975585938
980.785116513689	857.799987792969
981.484097435542	858
982.182990165377	858.799987792969
982.88179471098	858.599975585938
983.580511080137	858.599975585938
984.279139280632	859
984.977679320253	859
985.67613120679	859
986.374494948027	859
987.072770551745	857.400024414063
987.770958025731	859.200012207031
988.469057377772	859.799987792969
989.167068615649	858.799987792969
989.864991747145	858.799987792969
990.562826780047	858
991.260573722134	859.799987792969
991.958232581195	859.400024414063
992.655803365003	858.200012207031
993.353286081346	859.200012207031
994.050680738006	859.799987792969
994.74798734276	860.400024414063
995.44520590339	859.599975585938
996.142336427681	859.799987792969
996.839378923407	859.200012207031
997.536333398348	858.599975585938
998.233199860289	860.400024414063
998.929978317004	857.599975585938
999.626668776274	859
1000.32327124587	859.799987792969
1001.01978573359	858.400024414063
1001.71621224718	858.599975585938
1002.41255079445	858.799987792969
1003.10880138315	859.400024414063
1003.80496402107	859
1004.50103871599	858.599975585938
1005.19702547567	859.599975585938
1005.8929243079	858.400024414063
1006.58873522045	860
1007.2844582211	860
1007.98009331761	858.400024414063
1008.67564051776	858.799987792969
1009.37109982933	859
1010.06647126009	859.200012207031
1010.7617548178	859.799987792969
1011.45695051026	859
1012.15205834522	859
1012.84707833045	859
1013.54201047373	860.200012207031
1014.23685478284	858.200012207031
1014.93161126553	859
1015.62627992959	858.799987792969
1016.32086078277	859.799987792969
1017.01535383285	859.799987792969
1017.70975908761	859.400024414063
1018.40407655479	858.400024414063
1019.09830624219	859
1019.79244815755	859.599975585938
1020.48650230866	858.400024414063
1021.18046870328	859.599975585938
1021.87434734917	859.200012207031
1022.56813825411	859.799987792969
1023.26184142584	859.200012207031
1023.95545687216	859.400024414063
1024.64898460082	859.400024414063
1025.34242461957	860
1026.0357769362	860
1026.72904155846	859.799987792969
1027.42221849412	861
1028.11530775094	859.599975585938
1028.80830933668	858.400024414063
1029.50122325911	859
1030.19404952599	860
1030.88678814508	858
1031.57943912414	859.400024414063
1032.27200247093	860.400024414063
1032.96447819323	860.400024414063
1033.65686629878	858.599975585938
1034.34916679534	858.799987792969
1035.04137969068	860.599975585938
1035.73350499256	859
1036.42554270874	859.400024414063
1037.11749284697	860.400024414063
1037.80935541501	859
1038.50113042062	860.200012207031
1039.19281787156	859.200012207031
1039.88441777559	859
1040.57593014046	858.200012207031
1041.26735497393	860
1041.95869228376	860.200012207031
1042.6499420777	858.200012207031
1043.3411043635	858.200012207031
1044.03217914893	860.400024414063
1044.72316644174	859.799987792969
1045.41406624968	858.400024414063
1046.1048785805	859.599975585938
1046.79560344197	859.799987792969
1047.48624084182	859
1048.17679078783	860.400024414063
1048.86725328774	858.799987792969
1049.55762834929	859.400024414063
1050.24791598025	859
1050.93811618837	858.599975585938
1051.62822898139	858.799987792969
1052.31825436707	858.799987792969
1053.00819235315	858.799987792969
1053.6980429474	858
1054.38780615755	858.799987792969
1055.07748199136	859.400024414063
1055.76707045658	860.200012207031
1056.45657156095	859.200012207031
1057.14598531222	860.200012207031
1057.83531171814	858.200012207031
1058.52455078646	858.799987792969
1059.21370252494	857.799987792969
1059.90276694129	859.400024414063
1060.5917440433	858.599975585938
1061.28063383868	858.200012207031
1061.9694363352	859.799987792969
1062.65815154059	859.200012207031
1063.34677946261	858.599975585938
1064.03532010899	859.200012207031
1064.72377348748	859.599975585938
1065.41213960583	859.400024414063
1066.10041847177	859.200012207031
1066.78861009306	859.200012207031
1067.47671447743	858.799987792969
1068.16473163263	860
1068.85266156639	858
1069.54050428647	859
1070.2282598006	859
1070.91592811652	859.400024414063
1071.60350924198	858.799987792969
1072.29100318471	858.799987792969
1072.97840995245	859.200012207031
1073.66572955295	860.599975585938
1074.35296199394	859.400024414063
1075.04010728316	858.599975585938
1075.72716542836	860
1076.41413643726	859.200012207031
1077.10102031761	858.200012207031
1077.78781707715	858.200012207031
1078.4745267236	859.400024414063
1079.16114926471	860
1079.84768470822	858.400024414063
1080.53413306185	859.200012207031
1081.22049433336	860.400024414063
1081.90676853046	860
1082.5929556609	858.599975585938
1083.27905573241	859
1083.96506875272	860
1084.65099472957	859.599975585938
1085.3368336707	859.599975585938
1086.02258558383	859.599975585938
1086.70825047669	858.200012207031
1087.39382835703	859
1088.07931923257	859
1088.76472311104	858
1089.45004000018	858.400024414063
1090.13526990771	859.400024414063
1090.82041284137	858.599975585938
1091.50546880889	859.400024414063
1092.19043781799	858.799987792969
1092.87531987642	858.200012207031
1093.56011499188	859
1094.24482317212	858.400024414063
1094.92944442486	859.200012207031
1095.61397875783	858.200012207031
1096.29842617876	860.799987792969
1096.98278669537	859.400024414063
1097.6670603154	858.799987792969
1098.35124704656	859.400024414063
1099.03534689659	859.200012207031
1099.71935987322	858.599975585938
1100.40328598416	859.799987792969
1101.08712523713	859.400024414063
1101.77087763988	859
1102.45454320012	858.599975585938
1103.13812192557	859.200012207031
1103.82161382396	858.599975585938
1104.50501890301	860.599975585938
1105.18833717045	859.200012207031
1105.87156863399	859.200012207031
1106.55471330137	859.599975585938
1107.2377711803	859
1107.9207422785	859.200012207031
1108.60362660369	859.599975585938
1109.2864241636	858.400024414063
1109.96913496594	859.200012207031
1110.65175901844	859
1111.33429632882	859
1112.01674690479	859.799987792969
1112.69911075408	859
1113.38138788439	859.200012207031
1114.06357830346	860.599975585938
1114.745682019	859
1115.42769903872	859.200012207031
1116.10962937035	859.799987792969
1116.7914730216	858.599975585938
1117.47323000018	859.400024414063
1118.15490031382	859
1118.83648397022	860.200012207031
1119.51798097712	859.799987792969
1120.1993913422	859
1120.88071507321	859.400024414063
1121.56195217784	858.599975585938
1122.24310266381	859.400024414063
1122.92416653884	858.599975585938
1123.60514381064	859.400024414063
1124.28603448692	859.799987792969
1124.9668385754	858
1125.64755608378	859.200012207031
1126.32818701978	859.599975585938
1127.00873139111	860.200012207031
1127.68918920548	859.799987792969
1128.3695604706	860.599975585938
1129.04984519419	861.200012207031
1129.73004338394	859.400024414063
1130.41015504758	860
1131.09018019281	859.200012207031
1131.77011882734	858
1132.44997095888	860.200012207031
1133.12973659514	858.799987792969
1133.80941574381	859.200012207031
1134.48900841263	859.599975585938
1135.16851460927	860.400024414063
1135.84793434147	859.200012207031
1136.52726761692	859.599975585938
1137.20651444333	860.200012207031
1137.8856748284	860
1138.56474877984	859.400024414063
1139.24373630536	859.799987792969
1139.92263741265	859.200012207031
1140.60145210943	858.200012207031
1141.28018040339	859.799987792969
1141.95882230225	859.400024414063
1142.6373778137	859
1143.31584694545	859.799987792969
1143.99422970519	860.200012207031
1144.67252610064	859
1145.35073613949	860
1146.02885982944	858.400024414063
1146.7068971782	859.400024414063
1147.38484819347	859.400024414063
1148.06271288294	860.599975585938
1148.74049125432	860.200012207031
1149.41818331531	860.200012207031
1150.0957890736	860
1150.77330853689	860.599975585938
1151.45074171289	860
1152.12808860928	858.799987792969
1152.80534923378	859.799987792969
1153.48252359407	859.799987792969
1154.15961169786	859.599975585938
1154.83661355283	860.200012207031
1155.51352916669	859.599975585938
1156.19035854713	859.599975585938
1156.86710170185	859.400024414063
1157.54375863855	860
1158.22032936491	860
1158.89681388863	860.200012207031
1159.57321221741	860
1160.24952435894	859.400024414063
1160.92575032092	858
1161.60189011103	858.599975585938
1162.27794373697	859.200012207031
1162.95391120644	859.400024414063
1163.62979252712	858.799987792969
1164.3055877067	859.200012207031
1164.98129675288	859.200012207031
1165.65691967336	861
1166.33245647581	859.599975585938
1167.00790716792	859.599975585938
1167.6832717574	859.400024414063
1168.35855025193	858.200012207031
1169.0337426592	860.200012207031
1169.70884898689	859.400024414063
1170.3838692427	859.599975585938
1171.05880343431	858.400024414063
1171.73365156941	858.799987792969
1172.40841365569	859.599975585938
1173.08308970083	860.599975585938
1173.75767971253	858.799987792969
1174.43218369847	860.799987792969
1175.10660166633	859.799987792969
1175.7809336238	859
1176.45517957857	859.400024414063
1177.12933953832	860.200012207031
1177.80341351073	859.200012207031
1178.47740150349	858.599975585938
1179.15130352429	858.599975585938
1179.8251195808	857.799987792969
1180.49884968071	859.599975585938
1181.1724938317	858.799987792969
1181.84605204145	859.200012207031
1182.51952431766	859.200012207031
1183.19291066799	859.599975585938
1183.86621110013	859.799987792969
1184.53942562176	860.599975585938
1185.21255424057	858.400024414063
1185.88559696422	859.400024414063
1186.55855380041	858.400024414063
1187.2314247568	859.599975585938
1187.90420984109	858.400024414063
1188.57690906095	859
1189.24952242405	859.200012207031
1189.92204993808	859
1190.59449161071	859.400024414063
1191.26684744962	859.400024414063
1191.93911746249	859.599975585938
1192.61130165699	859
1193.28340004081	859.400024414063
1193.95541262161	859.200012207031
1194.62733940707	858.599975585938
1195.29918040487	860.200012207031
1195.97093562269	859.200012207031
1196.64260506819	859.799987792969
1197.31418874905	858.799987792969
1197.98568667295	858.799987792969
1198.65709884755	859.599975585938
1199.32842528053	860
1199.99966597957	860
1200.67082095234	859.599975585938
1201.3418902065	858.799987792969
1202.01287374974	859.200012207031
1202.68377158971	858.799987792969
1203.3545837341	859.599975585938
1204.02531019057	859.599975585938
1204.6959509668	859.200012207031
1205.36650607045	859.799987792969
1206.03697550919	858.599975585938
1206.70735929069	859
1207.37765742263	859.200012207031
1208.04786991266	860.200012207031
1208.71799676846	858
1209.38803799769	859.200012207031
1210.05799360803	859.200012207031
1210.72786360714	859.599975585938
1211.39764800268	858.799987792969
1212.06734680233	859.400024414063
1212.73696001375	860.200012207031
1213.4064876446	859.200012207031
1214.07592970255	858.599975585938
1214.74528619526	859.599975585938
1215.4145571304	860.200012207031
1216.08374251564	859
1216.75284235863	860.200012207031
1217.42185666704	859.200012207031
1218.09078544854	858.400024414063
1218.75962871078	860.599975585938
1219.42838646143	859.400024414063
1220.09705870816	860.400024414063
1220.76564545861	860.799987792969
1221.43414672046	860.200012207031
1222.10256250136	859.599975585938
1222.77089280898	859.400024414063
1223.43913765098	857.799987792969
1224.107297035	859.799987792969
1224.77537096873	859.599975585938
1225.44335945981	858.200012207031
1226.1112625159	860.400024414063
1226.77908014467	859.200012207031
1227.44681235376	858.400024414063
1228.11445915085	859.200012207031
1228.78202054357	859.200012207031
1229.44949653961	860.400024414063
1230.11688714659	858.799987792969
1230.7841923722	860.400024414063
1231.45141222407	858.200012207031
1232.11854670988	859
1232.78559583726	859.599975585938
1233.45255961388	859.400024414063
1234.1194380474	859.599975585938
1234.78623114546	859.599975585938
1235.45293891572	859.200012207031
1236.11956136583	860.400024414063
1236.78609850345	859
1237.45255033623	859.599975585938
1238.11891687182	859.799987792969
1238.78519811788	860.400024414063
1239.45139408205	859.200012207031
1240.11750477198	859.599975585938
1240.78353019534	858.799987792969
1241.44947035976	859.599975585938
1242.11532527291	859
1242.78109494242	858.799987792969
1243.44677937595	859
1244.11237858115	859.799987792969
1244.77789256567	859.599975585938
1245.44332133715	860
1246.10866490325	859.599975585938
1246.7739232716	858.799987792969
1247.43909644987	860
1248.10418444569	859.400024414063
1248.76918726671	858.799987792969
1249.43410492059	858.799987792969
1250.09893741496	859.799987792969
1250.76368475747	859.799987792969
1251.42834695576	859.599975585938
1252.09292401749	859.599975585938
1252.75741595029	859.200012207031
1253.42182276182	859.200012207031
1254.08614445971	860.599975585938
1254.75038105161	860
1255.41453254515	858
1256.07859894799	859.799987792969
1256.74258026777	859.200012207031
1257.40647651213	858.599975585938
1258.0702876887	859
1258.73401380514	859.200012207031
1259.39765486908	860.599975585938
1260.06121088817	859.200012207031
1260.72468187004	859.200012207031
1261.38806782233	858.599975585938
1262.05136875269	858.799987792969
1262.71458466875	858.200012207031
1263.37771557815	860
1264.04076148854	860.400024414063
1264.70372240753	859.599975585938
1265.3665983428	858.599975585938
1266.02938930195	859.400024414063
1266.69209529263	860
1267.35471632249	859.599975585938
1268.01725239914	858.400024414063
1268.67970353024	859.200012207031
1269.34206972342	859
1270.00435098631	859
1270.66654732655	858
1271.32865875177	860.200012207031
1271.9906852696	859.599975585938
1272.65262688768	859.400024414063
1273.31448361365	858.599975585938
1273.97625545514	858.200012207031
1274.63794241978	858.599975585938
1275.2995445152	859.200012207031
1275.96106174903	859.799987792969
1276.62249412892	859.400024414063
1277.28384166248	858.599975585938
1277.94510435735	859.799987792969
1278.60628222116	859.200012207031
1279.26737526155	859.400024414063
1279.92838348613	859.599975585938
1280.58930690255	859.200012207031
1281.25014551842	860.200012207031
1281.91089934139	859.200012207031
1282.57156837907	859.200012207031
1283.2321526391	860.200012207031
1283.89265212911	858.599975585938
1284.55306685671	859.200012207031
1285.21339682955	860.599975585938
1285.87364205525	858.599975585938
1286.53380254142	859.799987792969
1287.19387829571	859.599975585938
1287.85386932573	859.599975585938
1288.51377563911	860.200012207031
1289.17359724348	861.200012207031
1289.83333414646	859.200012207031
1290.49298635567	859.599975585938
1291.15255387874	859.400024414063
1291.8120367233	859.799987792969
1292.47143489696	861.400024414063
1293.13074840736	859.200012207031
1293.7899772621	858.200012207031
1294.44912146882	860.200012207031
1295.10818103513	859.400024414063
1295.76715596866	860.599975585938
1296.42604627704	860
1297.08485196787	859.400024414063
1297.74357304878	859
1298.4022095274	860.599975585938
1299.06076141134	859.799987792969
1299.71922870821	859.400024414063
1300.37761142565	860.400024414063
1301.03590957126	860.200012207031
1301.69412315268	859.200012207031
1302.3522521775	860.599975585938
1303.01029665336	859.599975585938
1303.66825658787	859.799987792969
1304.32613198865	859.599975585938
1304.98392286332	860
1305.64162921948	859.200012207031
1306.29925106476	858.400024414063
1306.95678840677	859.599975585938
1307.61424125312	858.799987792969
1308.27160961145	858.200012207031
1308.92889348934	859.799987792969
1309.58609289443	859.400024414063
1310.24320783432	859.599975585938
1310.90023831664	861
1311.55718434898	858.799987792969
1312.21404593897	860.799987792969
1312.87082309421	861.200012207031
1313.52751582233	859
1314.18412413092	859.200012207031
1314.84064802761	859.400024414063
1315.49708752	861
1316.1534426157	861.599975585938
1316.80971332233	860.400024414063
1317.46589964749	859.799987792969
1318.1220015988	859.400024414063
1318.77801918386	859.400024414063
1319.43395241028	859.599975585938
1320.08980128567	859.200012207031
1320.74556581764	859.200012207031
1321.4012460138	859.799987792969
1322.05684188176	860
1322.71235342911	859.599975585938
1323.36778066347	859
1324.02312359245	860.599975585938
1324.67838222365	860
1325.33355656468	860
1325.98864662314	860.400024414063
1326.64365240663	860.599975585938
1327.29857392277	860.200012207031
1327.95341117915	860
1328.60816418339	860.400024414063
1329.26283294308	859.599975585938
1329.91741746582	860.400024414063
1330.57191775923	860.799987792969
1331.2263338309	860
1331.88066568843	860.400024414063
1332.53491333943	859.200012207031
1333.1890767915	859.599975585938
1333.84315605224	859.200012207031
1334.49715112925	859.599975585938
1335.15106203013	860.599975585938
1335.80488876249	859.200012207031
1336.45863133391	859
1337.112289752	859.599975585938
1337.76586402437	859.200012207031
1338.4193541586	859
1339.0727601623	860
1339.72608204306	859.400024414063
1340.37931980849	859
1341.03247346617	859.200012207031
1341.68554302372	859.400024414063
1342.33852848871	859.200012207031
1342.99142986876	860
1343.64424717145	860.599975585938
1344.29698040438	859.400024414063
1344.94962957515	858.599975585938
1345.60219469135	860.400024414063
1346.25467576058	859.200012207031
1346.90707279042	860.599975585938
1347.55938578848	860.200012207031
1348.21161476235	859.599975585938
1348.86375971962	860.799987792969
1349.51582066787	859.599975585938
1350.16779761472	859.200012207031
1350.81969056774	859.599975585938
1351.47149953453	860.400024414063
1352.12322452269	860.599975585938
1352.77486553979	859.200012207031
1353.42642259344	860.200012207031
1354.07789569122	860.400024414063
1354.72928484072	859.599975585938
1355.38059004953	860.799987792969
1356.03181132525	859.200012207031
1356.68294867545	859.400024414063
1357.33400210773	859.599975585938
1357.98497162968	860
1358.63585724889	860.400024414063
1359.28665897294	860
1359.93737680942	859.599975585938
1360.58801076591	859.599975585938
1361.23856085001	860.799987792969
1361.88902706929	860
1362.53940943135	858.799987792969
1363.18970794377	860
1363.83992261413	859.400024414063
1364.49005345003	858.799987792969
1365.14010045904	859.599975585938
1365.79006364874	859.799987792969
1366.43994302673	860.200012207031
1367.08973860058	860
1367.73945037788	859.599975585938
1368.38907836621	859.599975585938
1369.03862257315	859.400024414063
1369.68808300629	858.799987792969
1370.3374596732	860
1370.98675258148	859.200012207031
1371.63596173868	860.799987792969
1372.28508715241	860
1372.93412883024	859.599975585938
1373.58308677974	859.599975585938
1374.2319610085	860
1374.8807515241	858.200012207031
1375.52945833412	859.799987792969
1376.17808144612	859.799987792969
1376.82662086771	860.400024414063
1377.47507660644	859.200012207031
1378.12344866989	859.599975585938
1378.77173706565	860.400024414063
1379.41994180129	859
1380.06806288439	860
1380.71610032252	860
1381.36405412326	858.599975585938
1382.01192429419	859.400024414063
1382.65971084287	860
1383.30741377688	860.599975585938
1383.95503310381	860.200012207031
1384.60256883121	860.400024414063
1385.25002096667	859
1385.89738951775	860
1386.54467449204	860
1387.19187589709	860
1387.8389937405	860.400024414063
1388.48602802982	860.400024414063
1389.13297877262	858.799987792969
1389.77984597649	859.200012207031
1390.42662964899	860.599975585938
1391.07332979768	859.400024414063
1391.71994643015	860
1392.36647955395	861
1393.01292917667	859
1393.65929530586	860
1394.3055779491	862
1394.95177711395	860.799987792969
1395.59789280799	859.799987792969
1396.24392503877	859.799987792969
1396.88987381387	861.599975585938
1397.53573914086	860.799987792969
1398.1815210273	859.799987792969
1398.82721948075	861
1399.47283450878	859.400024414063
1400.11836611897	859.599975585938
1400.76381431886	860
1401.40917911603	861
1402.05446051805	859.599975585938
1402.69965853247	861.200012207031
1403.34477316686	861
1403.98980442878	860
1404.6347523258	860
1405.27961686548	861
1405.92439805538	860.799987792969
1406.56909590306	859
1407.21371041608	859.799987792969
1407.85824160202	860.400024414063
1408.50268946841	860.400024414063
1409.14705402284	859.599975585938
1409.79133527285	861.400024414063
1410.43553322601	860.799987792969
1411.07964788987	858.799987792969
1411.723679272	860.400024414063
1412.36762737996	858.799987792969
1413.01149222129	859.599975585938
1413.65527380357	858.799987792969
1414.29897213435	860.200012207031
1414.94258722118	859.799987792969
1415.58611907163	859.400024414063
1416.22956769325	860.400024414063
1416.87293309359	860.599975585938
1417.51621528021	859.799987792969
1418.15941426067	859.200012207031
1418.80253004253	860
1419.44556263333	861
1420.08851204063	859.400024414063
1420.731378272	859.400024414063
1421.37416133497	861.599975585938
1422.0168612371	859.400024414063
1422.65947798596	860.799987792969
1423.30201158908	860.400024414063
1423.94446205403	860
1424.58682938835	859.799987792969
1425.2291135996	861.200012207031
1425.87131469532	861
1426.51343268308	861.799987792969
1427.15546757042	861.200012207031
1427.79741936488	861.799987792969
1428.43928807403	859.799987792969
1429.0810737054	862
1429.72277626656	860.400024414063
1430.36439576504	860
1431.00593220841	860.200012207031
1431.64738560419	860.200012207031
1432.28875595995	862
1432.93004328324	860.400024414063
1433.57124758159	860.599975585938
1434.21236886255	862.400024414063
1434.85340713368	860.400024414063
1435.49436240252	860.799987792969
1436.13523467661	860.200012207031
1436.77602396349	861
1437.41673027073	861.400024414063
1438.05735360585	861.400024414063
1438.69789397641	861.400024414063
1439.33835138994	861.599975585938
1439.978725854	860.799987792969
1440.61901737612	862.599975585938
1441.25922596385	863.200012207031
1441.89935162473	860
1442.53939436631	860
1443.17935419612	860.200012207031
1443.81923112171	860.200012207031
1444.45902515061	860.200012207031
1445.09873629038	860.400024414063
1445.73836454854	861
1446.37790993265	861.200012207031
1447.01737245024	860.599975585938
1447.65675210885	862.599975585938
1448.29604891602	861.200012207031
1448.93526287928	861.599975585938
1449.57439400618	860.400024414063
1450.21344230426	860.200012207031
1450.85240778105	859.799987792969
1451.49129044409	860.200012207031
1452.13009030092	861.200012207031
1452.76880735907	860
1453.40744162608	860.599975585938
1454.04599310949	861.799987792969
1454.68446181683	861.200012207031
1455.32284775564	860.200012207031
1455.96115093345	861.200012207031
1456.5993713578	860
1457.23750903623	859.799987792969
1457.87556397626	860
1458.51353618543	859.799987792969
1459.15142567127	860
1459.78923244132	860.599975585938
1460.42695650311	860.200012207031
1461.06459786417	860
1461.70215653203	860.400024414063
1462.33963251423	861.400024414063
1462.97702581829	860.200012207031
1463.61433645175	860.799987792969
1464.25156442214	860.200012207031
1464.88870973699	860.400024414063
1465.52577240382	860.799987792969
1466.16275243017	859.200012207031
1466.79964982356	860
1467.43646459154	860
1468.07319674161	859.200012207031
1468.70984628132	859.599975585938
1469.34641321818	860.400024414063
1469.98289755974	860.200012207031
1470.6192993135	859.400024414063
1471.25561848701	859
1471.89185508779	860.400024414063
1472.52800912336	859
1473.16408060124	859.200012207031
1473.80006952897	859.599975585938
1474.43597591407	860
1475.07179976406	859.799987792969
1475.70754108647	860
1476.34319988883	859
1476.97877617865	859.799987792969
1477.61426996345	860
1478.24968125077	860.200012207031
1478.88501004812	860.400024414063
1479.52025636303	860.799987792969
1480.15542020302	859.799987792969
1480.79050157561	860.200012207031
1481.42550048832	859.200012207031
1482.06041694867	858.599975585938
1482.69525096418	859.599975585938
1483.33000254237	860
1483.96467169077	860.200012207031
1484.59925841689	859.599975585938
1485.23376272825	859.400024414063
1485.86818463237	860
1486.50252413677	860.200012207031
1487.13678124896	860
1487.77095597646	860.400024414063
1488.4050483268	860
1489.03905830749	859.599975585938
1489.67298592604	860.400024414063
1490.30683118996	859.400024414063
1490.9405941068	859.599975585938
1491.57427468403	859
1492.2078729292	859
1492.84138884981	858.599975585938
1493.47482245338	860
1494.10817374742	859.799987792969
1494.74144273944	860.200012207031
1495.37462943696	859.599975585938
1496.0077338475	860
1496.64075597856	859.799987792969
1497.27369583765	860.599975585938
1497.9065534323	860.200012207031
1498.53932877001	860
1499.17202185829	861.200012207031
1499.80463270465	858.599975585938
1500.43716131661	859.799987792969
1501.06960770167	861
1501.70197186735	860
1502.33425382116	860.400024414063
1502.96645357059	857.799987792969
1503.59857112317	860.200012207031
1504.23060648641	860
1504.8625596678	862.200012207031
1505.49443067486	859.799987792969
1506.1262195151	860.400024414063
1506.75792619602	860.599975585938
1507.38955072513	859.599975585938
1508.02109310993	858.599975585938
1508.65255335794	858.400024414063
1509.28393147666	859.400024414063
1509.91522747359	861.200012207031
1510.54644135624	860.400024414063
1511.17757313212	860.200012207031
1511.80862280872	860.599975585938
1512.43959039356	860.599975585938
1513.07047589413	860.200012207031
1513.70127931795	860.799987792969
1514.33200067251	858.599975585938
1514.96263996531	858.599975585938
1515.59319720386	858.200012207031
1516.22367239567	859.799987792969
1516.85406554822	859.200012207031
1517.48437666903	858.400024414063
1518.1146057656	859.200012207031
1518.74475284542	860.200012207031
1519.374817916	860.200012207031
1520.00480098483	861
1520.63470205942	859.799987792969
1521.26452114726	860.200012207031
1521.89425825586	859.400024414063
1522.52391339271	860
1523.15348656531	860.200012207031
1523.78297778116	860
1524.41238704775	859.799987792969
1525.04171437259	860.200012207031
1525.67095976317	860
1526.30012322699	861
1526.92920477154	860
1527.55820440432	860.400024414063
1528.18712213283	860.200012207031
1528.81595796455	860
1529.44471190699	860.200012207031
1530.07338396764	860.599975585938
1530.70197415399	859.400024414063
1531.33048247353	859.400024414063
1531.95890893377	860
1532.58725354219	860.599975585938
1533.21551630629	859.599975585938
1533.84369723356	859.200012207031
1534.47179633148	858.799987792969
1535.09981360757	858.599975585938
1535.72774906929	858.599975585938
1536.35560272415	859.200012207031
1536.98337457963	859.200012207031
1537.61106464323	860
1538.23867292243	861
1538.86619942473	858.599975585938
1539.49364415762	859.200012207031
1540.12100712857	860.799987792969
1540.74828834509	861.200012207031
1541.37548781466	858.799987792969
1542.00260554478	858
1542.62964154291	859.799987792969
1543.25659581655	859
1543.8834683732	858.400024414063
1544.51025922034	860
1545.13696836544	859.400024414063
1545.76359581601	859
1546.39014157952	860.400024414063
1547.01660566345	859.200012207031
1547.64298807531	860.400024414063
1548.26928882255	859.799987792969
1548.89550791269	859.799987792969
1549.52164535318	860.400024414063
1550.14770115153	859.799987792969
1550.77367531521	859.200012207031
1551.39956785171	859
1552.0253787685	860.200012207031
1552.65110807307	860
1553.2767557729	859.799987792969
1553.90232187548	859.799987792969
1554.52780638828	859
1555.15320931879	861
1555.77853067447	859.799987792969
1556.40377046282	859
1557.02892869132	859.799987792969
1557.65400536744	859.400024414063
1558.27900049866	859.200012207031
1558.90391409247	858.400024414063
1559.52874615633	859.799987792969
1560.15349669773	859
1560.77816572414	859
1561.40275324305	858.799987792969
1562.02725926192	859.400024414063
1562.65168378824	859.799987792969
1563.27602682948	859.599975585938
1563.90028839311	859.400024414063
1564.52446848662	859.400024414063
1565.14856711748	860
1565.77258429316	859.599975585938
1566.39652002113	858.599975585938
1567.02037430887	858.799987792969
1567.64414716387	858.400024414063
1568.26783859357	859.200012207031
1568.89144860547	857.799987792969
1569.51497720703	860.200012207031
1570.13842440573	860.799987792969
1570.76179020904	859
1571.38507462442	859.799987792969
1572.00827765936	859
1572.63139932132	859.799987792969
1573.25443961777	860.599975585938
1573.87739855618	858.799987792969
1574.50027614402	860.200012207031
1575.12307238877	859.799987792969
1575.74578729789	859.400024414063
1576.36842087885	859
1576.99097313912	860.200012207031
1577.61344408616	860
1578.23583372745	858.400024414063
1578.85814207046	860.599975585938
1579.48036912264	860.200012207031
1580.10251489147	859.200012207031
1580.72457938441	859.799987792969
1581.34656260893	860.200012207031
1581.9684645725	859.799987792969
1582.59028528258	859.400024414063
1583.21202474663	860
1583.83368297212	859.400024414063
1584.45525996652	859.599975585938
1585.07675573728	860
1585.69817029188	860.799987792969
1586.31950363778	859.200012207031
1586.94075578243	860.400024414063
1587.5619267333	858
1588.18301649786	860.599975585938
1588.80402508357	859.599975585938
1589.42495249788	859.599975585938
1590.04579874826	860
1590.66656384217	858.799987792969
1591.28724778707	861.400024414063
1591.90785059042	858.799987792969
1592.52837225968	859.400024414063
1593.14881280232	859.599975585938
1593.76917222578	859.400024414063
1594.38945053753	860.599975585938
1595.00964774502	859.400024414063
1595.62976385573	859.200012207031
1596.24979887709	860.599975585938
1596.86975281657	860.400024414063
1597.48962568164	860
1598.10941747974	859.599975585938
1598.72912821832	859.799987792969
1599.34875790486	859
1599.9683065468	860
1600.58777415159	858.799987792969
1601.2071607267	858.599975585938
1601.82646627958	858.400024414063
1602.44569081769	859.400024414063
1603.06483434846	859.200012207031
1603.68389687937	858.400024414063
1604.30287841786	860
1604.92177897139	859
1605.54059854741	858.599975585938
1606.15933715337	860
1606.77799479672	859.400024414063
1607.39657148492	860.200012207031
1608.01506722542	858.799987792969
1608.63348202566	859.799987792969
1609.2518158931	860.400024414063
1609.87006883519	860.599975585938
1610.48824085939	858.799987792969
1611.10633197312	860.200012207031
1611.72434218386	859.400024414063
1612.34227149904	860.200012207031
1612.96011992612	861.200012207031
1613.57788747254	860.400024414063
1614.19557414575	860.599975585938
1614.8131799532	861
1615.43070490234	860
1616.04814900061	861
1616.66551225545	860.200012207031
1617.28279467433	861
1617.89999626467	861.599975585938
1618.51711703393	860.799987792969
1619.13415698955	860.599975585938
1619.75111613898	860.799987792969
1620.36799448966	861.799987792969
1620.98479204903	860.400024414063
1621.60150882455	860.799987792969
1622.21814482364	861
1622.83470005376	861.200012207031
1623.45117452235	861.200012207031
1624.06756823685	861.400024414063
1624.6838812047	860.799987792969
1625.30011343335	861.599975585938
1625.91626493022	861.599975585938
1626.53233570278	860.599975585938
1627.14832575845	860.599975585938
1627.76423510468	861.400024414063
1628.38006374891	862.400024414063
1628.99581169857	861.200012207031
1629.61147896111	860.799987792969
1630.22706554397	861.200012207031
1630.84257145457	859.400024414063
1631.45799670038	860.599975585938
1632.07334128881	860.200012207031
1632.6886052273	861
1633.3037885233	859.599975585938
1633.91889118425	861.400024414063
1634.53391321757	859.599975585938
1635.1488546307	860
1635.76371543108	860
1636.37849562616	860.799987792969
1636.99319522335	859.200012207031
1637.60781423009	859.599975585938
1638.22235265383	859
1638.83681050198	859.799987792969
1639.451187782	859.400024414063
1640.0654845013	859.200012207031
1640.67970066734	859.200012207031
1641.29383628752	859
1641.9078913693	858.599975585938
1642.5218659201	859.799987792969
1643.13575994735	859.200012207031
1643.74957345849	858.200012207031
1644.36330646094	858.799987792969
1644.97695896213	858.799987792969
1645.59053096951	859.799987792969
1646.20402249049	860
1646.8174335325	858.799987792969
1647.43076410298	860.200012207031
1648.04401420935	858
1648.65718385905	859.799987792969
1649.2702730595	859.799987792969
1649.88328181812	859.200012207031
1650.49621014236	858.400024414063
1651.10905803963	858.599975585938
1651.72182551735	859.400024414063
1652.33451258297	860.200012207031
1652.9471192439	858.200012207031
1653.55964550757	858.599975585938
1654.1720913814	858.200012207031
1654.78445687283	859
1655.39674198926	858.200012207031
1656.00894673814	859
1656.62107112688	859.400024414063
1657.23311516291	858.599975585938
1657.84507885365	859.599975585938
1658.45696220652	857.799987792969
1659.06876522895	858.400024414063
1659.68048792835	858.799987792969
1660.29213031217	859.200012207031
1660.90369238779	858.200012207031
1661.51517416267	859.400024414063
1662.12657564421	858.799987792969
1662.73789683984	858.599975585938
1663.34913775697	858
1663.96029840303	858.599975585938
1664.57137878544	858
1665.18237891161	859.799987792969
1665.79329878897	859.599975585938
1666.40413842493	859.599975585938
1667.01489782691	858.400024414063
1667.62557700233	860
1668.2361759586	859.799987792969
1668.84669470315	859
1669.4571332434	858.400024414063
1670.06749158675	858.400024414063
1670.67776974062	859
1671.28796771243	858.400024414063
1671.8980855096	859.599975585938
1672.50812313954	857.400024414063
1673.11808060967	858.799987792969
1673.72795792739	859.200012207031
1674.33775510013	858
1674.9474721353	858.599975585938
1675.55710904031	858.799987792969
1676.16666582257	859
1676.7761424895	859.599975585938
1677.38553904851	859
1677.99485550702	857.599975585938
1678.60409187243	859.400024414063
1679.21324815215	858.799987792969
1679.8223243536	859.799987792969
1680.43132048419	858.400024414063
1681.04023655132	858.400024414063
1681.64907256241	860.200012207031
1682.25782852487	858.400024414063
1682.86650444611	857.799987792969
1683.47510033353	859
1684.08361619455	858.799987792969
1684.69205203657	859.799987792969
1685.300407867	858
1685.90868369325	859.400024414063
1686.51687952272	857.599975585938
1687.12499536283	859.400024414063
1687.73303122098	858.599975585938
1688.34098710457	859.599975585938
1688.94886302101	858.799987792969
1689.55665897772	858
1690.16437498208	858.200012207031
1690.77201104152	858.400024414063
1691.37956716342	858.799987792969
1691.9870433552	858.200012207031
1692.59443962426	858.400024414063
1693.20175597801	858
1693.80899242384	858
1694.41614896916	859
1695.02322562138	858.200012207031
1695.63022238789	858.200012207031
1696.23713927609	859.599975585938
1696.8439762934	858.799987792969
1697.4507334472	857.799987792969
1698.05741074491	857.799987792969
1698.66400819391	857.599975585938
1699.27052580161	858.200012207031
1699.87696357542	858.400024414063
1700.48332152272	858.799987792969
1701.08959965092	859
1701.69579796742	858
1702.30191647962	858.400024414063
1702.90795519491	858
1703.51391412069	858.599975585938
1704.11979326437	858.400024414063
1704.72559263332	859.400024414063
1705.33131223496	858.799987792969
1705.93695207668	857.799987792969
1706.54251216588	858.400024414063
1707.14799250994	857.799987792969
1707.75339311628	858.799987792969
1708.35871399227	859.200012207031
1708.96395514532	858.400024414063
1709.56911658282	858.799987792969
