634.948122577771	866.799987792969
635.690341530823	865.400024414063
636.43246851086	864.799987792969
637.174503525845	866.200012207031
637.916446583745	866.799987792969
638.658297692538	866
639.400056860179	866.599975585938
640.141724094637	865.599975585938
640.883299403885	866.799987792969
641.62478279588	867
642.366174278594	868
643.107473859989	867.400024414063
643.848681548029	865.799987792969
644.589797350679	866.599975585938
645.330821275901	867.599975585938
646.071753331665	867.599975585938
646.812593525922	867.400024414063
647.553341866646	869.400024414063
648.293998361798	868.400024414063
649.03456301933	870
649.775035847216	869.799987792969
650.515416853409	869.799987792969
651.255706045874	871.200012207031
651.995903432568	870.200012207031
652.736009021453	872.200012207031
653.476022820486	874.400024414063
654.215944837629	872.799987792969
654.955775080842	871.799987792969
655.695513558081	871.799987792969
656.435160277301	871.200012207031
657.174715246465	871.599975585938
657.914178473527	872.799987792969
658.653549966449	873
659.392829733176	873
660.132017781678	874.200012207031
660.871114119901	874.200012207031
661.610118755803	873.200012207031
662.349031697343	875
663.087852952468	874.400024414063
663.826582529139	873.799987792969
664.565220435305	874.799987792969
665.30376667892	873.599975585938
666.04222126794	872.599975585938
666.780584210316	872.200012207031
667.518855514	874.599975585938
668.25703518694	871
668.995123237096	869.599975585938
669.733119672413	870.799987792969
670.471024500842	871
671.208837730333	872.200012207031
671.946559368839	870.400024414063
672.684189424308	870.599975585938
673.421727904689	869.799987792969
674.159174817929	870.400024414063
674.896530171977	869
675.633793974786	871
676.370966234295	868.799987792969
677.108046958461	870
677.845036155219	867.799987792969
678.581933832528	870.799987792969
679.318739998323	870
680.055454660558	869.200012207031
680.792077827172	872.599975585938
681.528609506116	870.599975585938
682.265049705331	869.400024414063
683.001398432759	868
683.737655696349	871.400024414063
684.47382150404	870.400024414063
685.20989586378	871
685.945878783503	872.799987792969
686.68177027116	868.400024414063
687.417570334688	869
688.153278982032	869.200012207031
688.888896221129	871
689.624422059921	870.799987792969
690.359856506349	869
691.095199568354	870.200012207031
691.830451253874	869.400024414063
692.565611570844	869.200012207031
693.300680527212	868.400024414063
694.03565813091	868.799987792969
694.770544389877	867.799987792969
695.505339312053	868
696.240042905372	866.200012207031
696.974655177772	865.599975585938
697.70917613719	863.799987792969
698.443605791561	864.799987792969
699.177944148826	864
699.912191216909	864.200012207031
700.646347003755	863.799987792969
701.380411517295	864.599975585938
702.114384765465	863.799987792969
702.848266756195	864.599975585938
703.582057497421	862.200012207031
704.315756997074	864.400024414063
705.049365263089	862
705.782882303399	862.200012207031
706.516308125936	861.799987792969
707.249642738626	862.200012207031
707.982886149403	863.599975585938
708.716038366204	861.400024414063
709.449099396949	861.599975585938
710.182069249577	862.200012207031
710.914947932009	862.599975585938
711.647735452181	862.400024414063
712.380431818022	863.799987792969
713.113037037454	861
713.845551118411	863.400024414063
714.577974068818	863.200012207031
715.310305896604	861
716.042546609694	862.599975585938
716.774696216013	863.400024414063
717.506754723493	862.799987792969
718.238722140053	861.400024414063
718.970598473624	861.200012207031
719.702383732127	861.599975585938
720.43407792349	861.200012207031
721.165681055634	861.200012207031
721.897193136486	863
722.628614173966	861.799987792969
723.359944175997	861.599975585938
724.091183150505	861.799987792969
724.822331105412	863
725.553388048638	861.400024414063
726.284353988106	861.200012207031
727.015228931734	861.200012207031
727.746012887449	861.200012207031
728.476705863162	860
729.207307866803	863.400024414063
729.937818906289	861.599975585938
730.668238989535	863.200012207031
731.398568124459	862.400024414063
732.128806318986	861.799987792969
732.858953581034	861
733.589009918514	861.799987792969
734.318975339348	861.799987792969
735.048849851452	863
735.778633462744	862.200012207031
736.508326181137	861.599975585938
737.237928014549	861.200012207031
737.967438970897	860.599975585938
738.696859058095	861.400024414063
739.426188284054	861.799987792969
740.155426656692	862.599975585938
740.884574183922	861.799987792969
741.613630873659	860.400024414063
742.342596733815	861.799987792969
743.071471772302	862.799987792969
743.800255997034	861.599975585938
744.528949415921	861.799987792969
745.257552036877	862
745.986063867811	862.599975585938
746.714484916638	862
747.442815191261	862.799987792969
748.171054699597	863.599975585938
748.899203449554	861.599975585938
749.627261449039	862
750.355228705966	861.599975585938
751.083105228239	861.200012207031
751.810891023765	860.400024414063
752.538586100459	861
753.266190466218	862
753.99370412896	861.599975585938
754.721127096582	861.799987792969
755.448459377	861.200012207031
756.175700978114	861.400024414063
756.902851907828	861.400024414063
757.629912174055	862
758.356881784688	860
759.083760747639	860.799987792969
759.810549070817	861.799987792969
760.537246762113	861.799987792969
761.263853829442	861.599975585938
761.990370280698	861.200012207031
762.716796123791	862.799987792969
763.443131366618	863.200012207031
764.169376017082	863
764.895530083085	861.799987792969
765.621593572527	862.799987792969
766.347566493312	860.799987792969
767.073448853336	861.799987792969
767.799240660502	862
768.524941922707	861.799987792969
769.250552647854	863.799987792969
769.976072843836	862.799987792969
770.701502518551	863
771.426841679905	861.200012207031
772.152090335793	861.599975585938
772.877248494107	862.599975585938
773.602316162747	862.400024414063
774.327293349609	863.599975585938
775.052180062592	862.200012207031
775.776976309589	861.799987792969
776.501682098496	861.799987792969
777.226297437206	861.599975585938
777.950822333616	862.799987792969
778.675256795621	863
779.399600831111	862
780.123854447983	861
780.84801765413	861.799987792969
781.572090457441	861.799987792969
782.296072865811	863
783.019964887131	863
783.743766529297	862.599975585938
784.467477800194	862.599975585938
785.191098707719	862.400024414063
785.914629259756	862.200012207031
786.638069464194	860.200012207031
787.361419328932	862.200012207031
788.084678861852	862.799987792969
788.807848070845	860.200012207031
789.530926963798	863
790.253915548602	861.599975585938
790.976813833144	861.799987792969
791.699621825307	861.799987792969
792.422339532986	861.799987792969
793.144966964061	861.400024414063
793.86750412642	862.599975585938
794.589951027946	861.400024414063
795.312307676536	862
796.03457408006	862.599975585938
796.756750246417	861.599975585938
797.478836183477	861.799987792969
798.200831899137	862.799987792969
798.92273740127	863.400024414063
799.644552697769	860.599975585938
800.36627779651	861.599975585938
801.087912705374	862
801.809457432251	863.400024414063
802.530911985017	862.200012207031
803.252276371558	861.200012207031
803.973550599748	862.799987792969
804.694734677472	861.200012207031
805.415828612611	862
806.136832413045	861.799987792969
806.857746086646	861
807.578569641305	862.200012207031
808.299303084892	863.799987792969
809.019946425289	862
809.740499670372	861.200012207031
810.460962828022	862.599975585938
811.181335906114	862.400024414063
811.901618912524	862.599975585938
812.621811855131	860.400024414063
813.341914741809	862.599975585938
814.061927580433	860.599975585938
814.781850378881	863.200012207031
815.501683145025	861.599975585938
816.221425886743	863.200012207031
816.941078611903	862
817.660641328387	862.200012207031
818.380114044065	861.400024414063
819.099496766808	862.400024414063
819.818789504492	861.400024414063
820.53799226499	863.200012207031
821.257105056168	861.200012207031
821.976127885904	861.599975585938
822.695060762064	864
823.413903692525	861.400024414063
824.132656685151	863
824.851319747817	862
825.569892888388	862
826.288376114739	861.400024414063
827.006769434737	861.799987792969
827.725072856249	862.400024414063
828.443286387142	861.400024414063
829.161410035285	863.200012207031
829.87944380855	862.200012207031
830.597387714798	861
831.315241761898	862.200012207031
832.033005957715	862.599975585938
832.750680310119	861.599975585938
833.468264826969	863
834.18575951614	861.400024414063
834.903164385486	861.799987792969
835.620479442878	862
836.337704696181	862
837.054840153255	862.599975585938
837.771885821962	861
838.488841710172	862.400024414063
839.20570782574	862.599975585938
839.922484176531	861.400024414063
840.639170770409	861
841.355767615231	861.799987792969
842.072274718864	861.599975585938
842.788692089164	862.400024414063
843.505019733993	861.599975585938
844.221257661209	861.200012207031
844.937405878676	862.799987792969
845.65346439425	861.200012207031
846.369433215789	861.599975585938
847.085312351156	862
847.801101808205	862
848.516801594793	862.400024414063
849.232411718781	862
849.947932188021	861.599975585938
850.663363010376	861.400024414063
851.378704193698	862.200012207031
852.093955745842	861.400024414063
852.809117674669	862.799987792969
853.524189988028	862.200012207031
854.239172693778	862.200012207031
854.954065799768	862.400024414063
855.668869313857	863.599975585938
856.383583243899	861.400024414063
857.098207597743	862.200012207031
857.812742383246	862.200012207031
858.527187608255	863.200012207031
859.241543280628	862
859.955809408218	861.599975585938
860.669985998868	860.799987792969
861.384073060437	862.200012207031
862.098070600772	861
862.811978627724	861.400024414063
863.52579714914	863.200012207031
864.239526172873	862.200012207031
864.953165706776	861.400024414063
865.666715758687	862.200012207031
866.380176336464	861.599975585938
867.093547447951	861.599975585938
867.806829100996	861.799987792969
868.520021303444	861.400024414063
869.233124063149	861.799987792969
869.94613738795	861
870.659061285693	862.799987792969
871.37189576423	862.799987792969
872.084640831403	862.799987792969
872.797296495057	861.799987792969
873.509862763039	862.799987792969
874.22233964319	861.400024414063
874.934727143353	862
875.647025271374	861.400024414063
876.359234035097	862.400024414063
877.071353442361	863
877.783383501015	862.400024414063
878.495324218895	861.200012207031
879.207175603844	862.400024414063
879.918937663705	861.799987792969
880.630610406318	861.400024414063
881.342193839524	861.599975585938
882.053687971161	863
882.765092809069	862.599975585938
883.476408361091	861.599975585938
884.187634635066	863.400024414063
884.898771638828	862.400024414063
885.609819380221	862
886.320777867076	862
887.031647107236	863.200012207031
887.742427108536	863
888.453117878816	862.400024414063
889.16371942591	862.200012207031
889.874231757652	862.400024414063
890.584654881883	863.400024414063
891.294988806434	861.599975585938
892.005233539141	862.200012207031
892.715389087837	861.599975585938
893.42545546036	862.200012207031
894.135432664543	863.599975585938
894.845320708216	862.799987792969
895.555119599216	863
896.264829345375	861.400024414063
896.974449954526	861.400024414063
897.683981434496	863.599975585938
898.393423793125	863.200012207031
899.102777038235	862.799987792969
899.812041177664	861.200012207031
900.521216219239	863.400024414063
901.230302170793	861.799987792969
901.939299040155	863.200012207031
902.64820683515	862.200012207031
903.357025563612	862.200012207031
904.065755233368	862
904.774395852247	862.400024414063
905.482947428076	862.200012207031
906.191409968682	861.799987792969
906.899783481897	862.200012207031
907.608067975538	861.799987792969
908.316263457443	861.799987792969
909.02436993543	862.799987792969
909.732387417327	862.799987792969
910.440315910959	863
911.148155424154	863
911.855905964731	862.599975585938
912.563567540521	862.400024414063
913.271140159339	863
913.978623829017	862
914.686018557374	862.400024414063
915.393324352237	862.200012207031
916.100541221421	861.200012207031
916.807669172752	862.200012207031
917.514708214054	862
918.221658353142	861.200012207031
918.928519597843	862.799987792969
919.635291955976	861.400024414063
920.341975435358	861.799987792969
921.048570043813	860.799987792969
921.75507578916	862
922.461492679212	860.599975585938
923.167820721795	862
923.874059924726	862.599975585938
924.58021029582	860.599975585938
925.286271842893	860.599975585938
925.992244573769	861.400024414063
926.698128496262	861.200012207031
927.403923618184	862.400024414063
928.109629947355	860.799987792969
928.815247491593	861.599975585938
929.520776258708	860.799987792969
930.226216256519	862.400024414063
930.931567492841	862.400024414063
931.636829975482	861.200012207031
932.342003712263	861
933.047088710995	862
933.752084979491	862.200012207031
934.456992525564	861.400024414063
935.161811357024	861.599975585938
935.866541481688	861
936.571182907363	861.599975585938
937.275735641861	862
937.980199692995	861.599975585938
938.684575068572	862.200012207031
939.388861776411	862.799987792969
940.093059824311	862.200012207031
940.797169220085	863.799987792969
941.501189971544	861.599975585938
942.205122086495	861
942.908965572751	861.599975585938
943.612720438111	861.400024414063
944.316386690391	861.400024414063
945.019964337391	860.799987792969
945.723453386924	862.200012207031
946.426853846795	862.799987792969
947.130165724808	862.400024414063
947.83338902877	863
948.536523766488	862.400024414063
949.239569945764	861.200012207031
949.942527574402	863.200012207031
950.64539666021	862.200012207031
951.348177210993	861.799987792969
952.050869234548	862.799987792969
952.753472738683	861.599975585938
953.455987731199	862.200012207031
954.158414219898	863.599975585938
954.860752212587	863.799987792969
955.563001717061	862
956.265162741124	862.200012207031
956.967235292576	863.200012207031
957.669219379224	862.599975585938
958.371115008857	863.200012207031
959.072922189283	861.400024414063
959.774640928301	862.799987792969
960.476271233708	862.599975585938
961.177813113301	862
961.879266574882	862.200012207031
962.580631626248	860.400024414063
963.281908275194	862
963.98309652952	863
964.684196397022	861.599975585938
965.3852078855	862.799987792969
966.086131002745	860.799987792969
966.786965756555	861.200012207031
967.487712154726	862
968.188370205055	861.599975585938
968.888939915331	862.400024414063
969.589421293352	861.200012207031
970.289814346909	861.400024414063
970.990119083801	862.599975585938
971.690335511819	861.400024414063
972.39046363875	862.200012207031
973.090503472398	861.599975585938
973.790455020545	862.599975585938
974.490318290987	863
975.190093291516	861.400024414063
975.889780029923	862.799987792969
976.589378513998	862
977.288888751527	860.599975585938
977.988310750308	861.599975585938
978.687644518122	861
979.386890062767	863
980.086047392025	863.200012207031
980.785116513689	861
981.484097435542	861.200012207031
982.182990165377	863.599975585938
982.88179471098	862.200012207031
983.580511080137	863
984.279139280632	861.400024414063
984.977679320253	862.200012207031
985.67613120679	862.200012207031
986.374494948027	862.799987792969
987.072770551745	863.200012207031
987.770958025731	862.599975585938
988.469057377772	861.599975585938
989.167068615649	860.400024414063
989.864991747145	862.599975585938
990.562826780047	862
991.260573722134	862.799987792969
991.958232581195	861.200012207031
992.655803365003	860.599975585938
993.353286081346	861.599975585938
994.050680738006	863
994.74798734276	862.400024414063
995.44520590339	860.400024414063
996.142336427681	862.400024414063
996.839378923407	860.799987792969
997.536333398348	861.799987792969
998.233199860289	861.400024414063
998.929978317004	861
999.626668776274	860.799987792969
1000.32327124587	861.599975585938
1001.01978573359	862.599975585938
1001.71621224718	862.400024414063
1002.41255079445	861.200012207031
1003.10880138315	861.400024414063
1003.80496402107	861
1004.50103871599	861.599975585938
1005.19702547567	862.799987792969
1005.8929243079	861.799987792969
1006.58873522045	861.799987792969
1007.2844582211	861.599975585938
1007.98009331761	860.400024414063
1008.67564051776	861.200012207031
1009.37109982933	860.400024414063
1010.06647126009	862.599975585938
1010.7617548178	860.799987792969
1011.45695051026	862.400024414063
1012.15205834522	861.400024414063
1012.84707833045	861.599975585938
1013.54201047373	862.599975585938
1014.23685478284	860.400024414063
1014.93161126553	862.400024414063
1015.62627992959	861.400024414063
1016.32086078277	861.599975585938
1017.01535383285	860.599975585938
1017.70975908761	861.599975585938
1018.40407655479	861.200012207031
1019.09830624219	861
1019.79244815755	862.200012207031
1020.48650230866	863.200012207031
1021.18046870328	862.400024414063
1021.87434734917	863
1022.56813825411	862.200012207031
1023.26184142584	862.599975585938
1023.95545687216	862.200012207031
1024.64898460082	863.400024414063
1025.34242461957	862.599975585938
1026.0357769362	862
1026.72904155846	863.400024414063
1027.42221849412	862.599975585938
1028.11530775094	863.599975585938
1028.80830933668	862.400024414063
1029.50122325911	864.200012207031
1030.19404952599	862.400024414063
1030.88678814508	863.400024414063
1031.57943912414	863.400024414063
1032.27200247093	863.799987792969
1032.96447819323	862
1033.65686629878	863
1034.34916679534	863.200012207031
1035.04137969068	862.400024414063
1035.73350499256	864
1036.42554270874	862.400024414063
1037.11749284697	863.200012207031
1037.80935541501	862.799987792969
1038.50113042062	863
1039.19281787156	862.599975585938
1039.88441777559	863
1040.57593014046	863.400024414063
1041.26735497393	863.599975585938
1041.95869228376	862.599975585938
1042.6499420777	862.599975585938
1043.3411043635	863.200012207031
1044.03217914893	862.599975585938
1044.72316644174	863.400024414063
1045.41406624968	863.599975585938
1046.1048785805	862.400024414063
1046.79560344197	862.400024414063
1047.48624084182	863
1048.17679078783	862.400024414063
1048.86725328774	862.599975585938
1049.55762834929	863.400024414063
1050.24791598025	863.200012207031
1050.93811618837	863.200012207031
1051.62822898139	862.799987792969
1052.31825436707	862.799987792969
1053.00819235315	861.799987792969
1053.6980429474	860.799987792969
1054.38780615755	861.599975585938
1055.07748199136	862.400024414063
1055.76707045658	862
1056.45657156095	862.200012207031
1057.14598531222	861.200012207031
1057.83531171814	862.799987792969
1058.52455078646	861.400024414063
1059.21370252494	860.599975585938
1059.90276694129	861.400024414063
1060.5917440433	862.200012207031
1061.28063383868	861.599975585938
1061.9694363352	862.400024414063
1062.65815154059	861.799987792969
1063.34677946261	862.200012207031
1064.03532010899	862.599975585938
1064.72377348748	862.400024414063
1065.41213960583	863
1066.10041847177	862
1066.78861009306	863
1067.47671447743	861.799987792969
1068.16473163263	862
1068.85266156639	862.400024414063
1069.54050428647	862.599975585938
1070.2282598006	861.799987792969
1070.91592811652	861.400024414063
1071.60350924198	862.599975585938
1072.29100318471	863.799987792969
1072.97840995245	862.400024414063
1073.66572955295	860.400024414063
1074.35296199394	863.200012207031
1075.04010728316	863
1075.72716542836	862.200012207031
1076.41413643726	861.200012207031
1077.10102031761	863.200012207031
1077.78781707715	862.599975585938
1078.4745267236	861.599975585938
1079.16114926471	862.599975585938
1079.84768470822	863.400024414063
1080.53413306185	861.799987792969
1081.22049433336	862.200012207031
1081.90676853046	862.599975585938
1082.5929556609	862.400024414063
1083.27905573241	862.200012207031
1083.96506875272	863
1084.65099472957	862
1085.3368336707	862.599975585938
1086.02258558383	862
1086.70825047669	860
1087.39382835703	862.200012207031
1088.07931923257	860.400024414063
1088.76472311104	862.799987792969
1089.45004000018	861.799987792969
1090.13526990771	862.200012207031
1090.82041284137	863.799987792969
1091.50546880889	861
1092.19043781799	861.599975585938
1092.87531987642	861.599975585938
1093.56011499188	861.599975585938
1094.24482317212	861.200012207031
1094.92944442486	862
1095.61397875783	861.400024414063
1096.29842617876	863.400024414063
1096.98278669537	861
1097.6670603154	862
1098.35124704656	862.200012207031
1099.03534689659	861.200012207031
1099.71935987322	862.200012207031
1100.40328598416	862.599975585938
1101.08712523713	862
1101.77087763988	861.400024414063
1102.45454320012	862
1103.13812192557	862.599975585938
1103.82161382396	862
1104.50501890301	862.200012207031
1105.18833717045	863
1105.87156863399	863.799987792969
1106.55471330137	862.599975585938
1107.2377711803	861.599975585938
1107.9207422785	863.599975585938
1108.60362660369	860.200012207031
1109.2864241636	862.599975585938
1109.96913496594	863
1110.65175901844	862.799987792969
1111.33429632882	863.400024414063
1112.01674690479	862.799987792969
1112.69911075408	862.799987792969
1113.38138788439	862.599975585938
1114.06357830346	864.599975585938
1114.745682019	863.200012207031
1115.42769903872	864.200012207031
1116.10962937035	862.599975585938
1116.7914730216	862
1117.47323000018	862.599975585938
1118.15490031382	862.599975585938
1118.83648397022	862.200012207031
1119.51798097712	863.400024414063
1120.1993913422	861
1120.88071507321	863.200012207031
1121.56195217784	863
1122.24310266381	863.400024414063
1122.92416653884	862.799987792969
1123.60514381064	863.200012207031
1124.28603448692	862.200012207031
1124.9668385754	863.400024414063
1125.64755608378	862.799987792969
1126.32818701978	862.400024414063
1127.00873139111	865
1127.68918920548	863.400024414063
1128.3695604706	863.200012207031
1129.04984519419	863
1129.73004338394	862.400024414063
1130.41015504758	862.599975585938
1131.09018019281	862.799987792969
1131.77011882734	863.400024414063
1132.44997095888	862.400024414063
1133.12973659514	864
1133.80941574381	862.400024414063
1134.48900841263	863.400024414063
1135.16851460927	864.599975585938
1135.84793434147	863.400024414063
1136.52726761692	863
1137.20651444333	863.200012207031
1137.8856748284	863.400024414063
1138.56474877984	863.200012207031
1139.24373630536	863.200012207031
1139.92263741265	864.799987792969
1140.60145210943	861.200012207031
1141.28018040339	861.799987792969
1141.95882230225	863.799987792969
1142.6373778137	862.599975585938
1143.31584694545	862.200012207031
1143.99422970519	861.599975585938
1144.67252610064	862.200012207031
1145.35073613949	862.200012207031
1146.02885982944	861.799987792969
1146.7068971782	862
1147.38484819347	863.599975585938
1148.06271288294	862
1148.74049125432	863
1149.41818331531	862
1150.0957890736	863.200012207031
1150.77330853689	864.200012207031
1151.45074171289	862.799987792969
1152.12808860928	862.200012207031
1152.80534923378	863
1153.48252359407	863.599975585938
1154.15961169786	862.200012207031
1154.83661355283	863.200012207031
1155.51352916669	863.799987792969
1156.19035854713	861.799987792969
1156.86710170185	864
1157.54375863855	863.799987792969
1158.22032936491	862.400024414063
1158.89681388863	863.200012207031
1159.57321221741	862.599975585938
1160.24952435894	861.400024414063
1160.92575032092	862.799987792969
1161.60189011103	863.599975585938
1162.27794373697	862.200012207031
1162.95391120644	863
1163.62979252712	862.799987792969
1164.3055877067	862.400024414063
1164.98129675288	863
1165.65691967336	863.599975585938
1166.33245647581	863
1167.00790716792	863.400024414063
1167.6832717574	862
1168.35855025193	861.799987792969
1169.0337426592	861.200012207031
1169.70884898689	863
1170.3838692427	861.799987792969
1171.05880343431	861.599975585938
1171.73365156941	862.200012207031
1172.40841365569	862.400024414063
1173.08308970083	863.599975585938
1173.75767971253	862.400024414063
1174.43218369847	861.599975585938
1175.10660166633	862.200012207031
1175.7809336238	863
1176.45517957857	862
1177.12933953832	861.799987792969
1177.80341351073	860.799987792969
1178.47740150349	863.400024414063
1179.15130352429	862.599975585938
1179.8251195808	863
1180.49884968071	861.799987792969
1181.1724938317	861.799987792969
1181.84605204145	862.400024414063
1182.51952431766	862.400024414063
1183.19291066799	862.799987792969
1183.86621110013	862.400024414063
1184.53942562176	863.799987792969
1185.21255424057	861.400024414063
1185.88559696422	862.400024414063
1186.55855380041	863.400024414063
1187.2314247568	863
1187.90420984109	863.799987792969
1188.57690906095	862.599975585938
1189.24952242405	862.599975585938
1189.92204993808	861.400024414063
1190.59449161071	862
1191.26684744962	863.799987792969
1191.93911746249	861.200012207031
1192.61130165699	862.599975585938
1193.28340004081	862
1193.95541262161	861.200012207031
1194.62733940707	864
1195.29918040487	862
1195.97093562269	863
1196.64260506819	863.400024414063
1197.31418874905	862.400024414063
1197.98568667295	862
1198.65709884755	862.799987792969
1199.32842528053	863.400024414063
1199.99966597957	862.599975585938
1200.67082095234	863.200012207031
1201.3418902065	862.400024414063
1202.01287374974	861.799987792969
1202.68377158971	862.799987792969
1203.3545837341	861.400024414063
1204.02531019057	863.400024414063
1204.6959509668	862.400024414063
1205.36650607045	862.599975585938
1206.03697550919	862.599975585938
1206.70735929069	864.200012207031
1207.37765742263	862.799987792969
1208.04786991266	863.200012207031
1208.71799676846	862.599975585938
1209.38803799769	863.599975585938
1210.05799360803	862
1210.72786360714	862.200012207031
1211.39764800268	863.400024414063
1212.06734680233	863
1212.73696001375	863
1213.4064876446	863
1214.07592970255	863.799987792969
1214.74528619526	864
1215.4145571304	862
1216.08374251564	861.799987792969
1216.75284235863	861.799987792969
1217.42185666704	863.400024414063
1218.09078544854	863.400024414063
1218.75962871078	862.799987792969
1219.42838646143	862.599975585938
1220.09705870816	862.400024414063
1220.76564545861	862.200012207031
1221.43414672046	864.400024414063
1222.10256250136	863.200012207031
1222.77089280898	861.599975585938
1223.43913765098	863.599975585938
1224.107297035	864.400024414063
1224.77537096873	864.200012207031
1225.44335945981	862.799987792969
1226.1112625159	862.400024414063
1226.77908014467	863.200012207031
1227.44681235376	864.599975585938
1228.11445915085	863.400024414063
1228.78202054357	862.400024414063
1229.44949653961	863
1230.11688714659	864
1230.7841923722	863.799987792969
1231.45141222407	862
1232.11854670988	861.799987792969
1232.78559583726	862.400024414063
1233.45255961388	863
1234.1194380474	862.200012207031
1234.78623114546	863.599975585938
1235.45293891572	863.799987792969
1236.11956136583	862.799987792969
1236.78609850345	864.799987792969
1237.45255033623	864.200012207031
1238.11891687182	864
1238.78519811788	864.799987792969
1239.45139408205	862.599975585938
1240.11750477198	863.400024414063
1240.78353019534	863.200012207031
1241.44947035976	864
1242.11532527291	862.799987792969
1242.78109494242	864.200012207031
1243.44677937595	862
1244.11237858115	862.200012207031
1244.77789256567	863.599975585938
1245.44332133715	863
1246.10866490325	862.400024414063
1246.7739232716	864.200012207031
1247.43909644987	863
1248.10418444569	863
1248.76918726671	864.400024414063
1249.43410492059	863.599975585938
1250.09893741496	862.799987792969
1250.76368475747	863.400024414063
1251.42834695576	862.599975585938
1252.09292401749	864.200012207031
1252.75741595029	862.599975585938
1253.42182276182	863.799987792969
1254.08614445971	862.599975585938
1254.75038105161	863
1255.41453254515	863.599975585938
1256.07859894799	862.599975585938
1256.74258026777	863
1257.40647651213	864.599975585938
1258.0702876887	861.799987792969
1258.73401380514	863.599975585938
1259.39765486908	863.200012207031
1260.06121088817	863.200012207031
1260.72468187004	863.799987792969
1261.38806782233	863.400024414063
1262.05136875269	863.400024414063
1262.71458466875	862.200012207031
1263.37771557815	863.400024414063
1264.04076148854	864.200012207031
1264.70372240753	864.799987792969
1265.3665983428	863.599975585938
1266.02938930195	864.200012207031
1266.69209529263	863.599975585938
1267.35471632249	864.799987792969
1268.01725239914	861.599975585938
1268.67970353024	862.400024414063
1269.34206972342	862
1270.00435098631	863
1270.66654732655	863.200012207031
1271.32865875177	862.599975585938
1271.9906852696	862.200012207031
1272.65262688768	862.599975585938
1273.31448361365	862.599975585938
1273.97625545514	863.200012207031
1274.63794241978	863.400024414063
1275.2995445152	864.200012207031
1275.96106174903	863.400024414063
1276.62249412892	862.799987792969
1277.28384166248	863.400024414063
1277.94510435735	862.599975585938
1278.60628222116	861.599975585938
1279.26737526155	861.200012207031
1279.92838348613	863.599975585938
1280.58930690255	863.400024414063
1281.25014551842	862.200012207031
1281.91089934139	863.400024414063
1282.57156837907	864
1283.2321526391	862.599975585938
1283.89265212911	863.799987792969
1284.55306685671	863.599975585938
1285.21339682955	863.400024414063
1285.87364205525	863
1286.53380254142	863.400024414063
1287.19387829571	863.200012207031
1287.85386932573	862.799987792969
1288.51377563911	863.400024414063
1289.17359724348	862.799987792969
1289.83333414646	863.599975585938
1290.49298635567	863
1291.15255387874	861.799987792969
1291.8120367233	864
1292.47143489696	863
1293.13074840736	862.799987792969
1293.7899772621	861.599975585938
1294.44912146882	865.400024414063
1295.10818103513	863.599975585938
1295.76715596866	864
1296.42604627704	864.200012207031
1297.08485196787	864.200012207031
1297.74357304878	863
1298.4022095274	863.200012207031
1299.06076141134	863.799987792969
1299.71922870821	864.599975585938
1300.37761142565	863.599975585938
1301.03590957126	864
1301.69412315268	864
1302.3522521775	864.200012207031
1303.01029665336	862
1303.66825658787	862.799987792969
1304.32613198865	863.599975585938
1304.98392286332	863.200012207031
1305.64162921948	863.599975585938
1306.29925106476	864.200012207031
1306.95678840677	865
1307.61424125312	863.400024414063
1308.27160961145	863.799987792969
1308.92889348934	863.599975585938
1309.58609289443	864.200012207031
1310.24320783432	863
1310.90023831664	862.599975585938
1311.55718434898	863.200012207031
1312.21404593897	865.200012207031
1312.87082309421	865.200012207031
1313.52751582233	863.599975585938
1314.18412413092	863.200012207031
1314.84064802761	864.599975585938
1315.49708752	864.200012207031
1316.1534426157	863.799987792969
1316.80971332233	863.799987792969
1317.46589964749	863.799987792969
1318.1220015988	864.400024414063
1318.77801918386	865.200012207031
1319.43395241028	864
1320.08980128567	862.599975585938
1320.74556581764	865
1321.4012460138	863.599975585938
1322.05684188176	865.599975585938
1322.71235342911	864
1323.36778066347	863.200012207031
1324.02312359245	863.599975585938
1324.67838222365	865.599975585938
1325.33355656468	863.400024414063
1325.98864662314	864.400024414063
1326.64365240663	864
1327.29857392277	864.400024414063
1327.95341117915	864.400024414063
1328.60816418339	864.200012207031
1329.26283294308	864.200012207031
1329.91741746582	865.400024414063
1330.57191775923	864.599975585938
1331.2263338309	864.400024414063
1331.88066568843	864.799987792969
1332.53491333943	863.400024414063
1333.1890767915	863.799987792969
1333.84315605224	864.599975585938
1334.49715112925	865.200012207031
1335.15106203013	864.799987792969
1335.80488876249	865.200012207031
1336.45863133391	864.400024414063
1337.112289752	863.799987792969
1337.76586402437	864.200012207031
1338.4193541586	865.200012207031
1339.0727601623	866
1339.72608204306	864.200012207031
1340.37931980849	865.200012207031
1341.03247346617	862.799987792969
1341.68554302372	863.799987792969
1342.33852848871	865.799987792969
1342.99142986876	866
1343.64424717145	865
1344.29698040438	864.200012207031
1344.94962957515	864.799987792969
1345.60219469135	865.400024414063
1346.25467576058	863.799987792969
1346.90707279042	865.599975585938
1347.55938578848	865.400024414063
1348.21161476235	864.799987792969
1348.86375971962	864.400024414063
1349.51582066787	864
1350.16779761472	864
1350.81969056774	865.599975585938
1351.47149953453	863.599975585938
1352.12322452269	863.599975585938
1352.77486553979	863.599975585938
1353.42642259344	864.200012207031
1354.07789569122	863.599975585938
1354.72928484072	864.599975585938
1355.38059004953	865.400024414063
1356.03181132525	864.400024414063
1356.68294867545	864.599975585938
1357.33400210773	865
1357.98497162968	864.599975585938
1358.63585724889	864.599975585938
1359.28665897294	863.799987792969
1359.93737680942	865.200012207031
1360.58801076591	863.400024414063
1361.23856085001	865.400024414063
1361.88902706929	865.400024414063
1362.53940943135	864.599975585938
1363.18970794377	865
1363.83992261413	863.599975585938
1364.49005345003	863
1365.14010045904	864.400024414063
1365.79006364874	865.200012207031
1366.43994302673	863.400024414063
1367.08973860058	863.599975585938
1367.73945037788	865
1368.38907836621	864.799987792969
1369.03862257315	864.799987792969
1369.68808300629	864.200012207031
1370.3374596732	865
1370.98675258148	862.400024414063
1371.63596173868	864.799987792969
1372.28508715241	864.799987792969
1372.93412883024	865
1373.58308677974	865
1374.2319610085	865
1374.8807515241	865.799987792969
1375.52945833412	864.799987792969
1376.17808144612	863.799987792969
1376.82662086771	864.599975585938
1377.47507660644	865.400024414063
1378.12344866989	864.799987792969
1378.77173706565	865
1379.41994180129	864.400024414063
1380.06806288439	865
1380.71610032252	865
1381.36405412326	864
1382.01192429419	865.599975585938
1382.65971084287	864.799987792969
1383.30741377688	865
1383.95503310381	864.200012207031
1384.60256883121	864.799987792969
1385.25002096667	864.200012207031
1385.89738951775	865.599975585938
1386.54467449204	864.400024414063
1387.19187589709	865
1387.8389937405	864.799987792969
1388.48602802982	866.400024414063
1389.13297877262	866.799987792969
1389.77984597649	864.599975585938
1390.42662964899	864.400024414063
1391.07332979768	863.799987792969
1391.71994643015	865.599975585938
1392.36647955395	865.200012207031
1393.01292917667	864.599975585938
1393.65929530586	865.799987792969
1394.3055779491	866.799987792969
1394.95177711395	865.200012207031
1395.59789280799	865.400024414063
1396.24392503877	866.400024414063
1396.88987381387	866.599975585938
1397.53573914086	865
1398.1815210273	864.799987792969
1398.82721948075	863.599975585938
1399.47283450878	866.200012207031
1400.11836611897	866.200012207031
1400.76381431886	866.599975585938
1401.40917911603	865.200012207031
1402.05446051805	864.400024414063
1402.69965853247	864.799987792969
1403.34477316686	865.200012207031
1403.98980442878	867
1404.6347523258	865.799987792969
1405.27961686548	865.599975585938
1405.92439805538	866.799987792969
1406.56909590306	864.799987792969
1407.21371041608	863.400024414063
1407.85824160202	864.799987792969
1408.50268946841	864
1409.14705402284	864.799987792969
1409.79133527285	866.200012207031
1410.43553322601	866.200012207031
1411.07964788987	863.799987792969
1411.723679272	866.400024414063
1412.36762737996	867
1413.01149222129	866.400024414063
1413.65527380357	865.599975585938
1414.29897213435	865.799987792969
1414.94258722118	867.200012207031
1415.58611907163	865.799987792969
1416.22956769325	865.599975585938
1416.87293309359	866.400024414063
1417.51621528021	866
1418.15941426067	865.599975585938
1418.80253004253	865.599975585938
1419.44556263333	866.400024414063
1420.08851204063	867.400024414063
1420.731378272	865.799987792969
1421.37416133497	868
1422.0168612371	866.400024414063
1422.65947798596	864.599975585938
1423.30201158908	866
1423.94446205403	867.400024414063
1424.58682938835	866.400024414063
1425.2291135996	866.200012207031
1425.87131469532	867
1426.51343268308	868.400024414063
1427.15546757042	866.799987792969
1427.79741936488	867
1428.43928807403	866.599975585938
1429.0810737054	867.400024414063
1429.72277626656	867
1430.36439576504	864.799987792969
1431.00593220841	867.200012207031
1431.64738560419	867.200012207031
1432.28875595995	867.599975585938
1432.93004328324	868
1433.57124758159	867.599975585938
1434.21236886255	867.400024414063
1434.85340713368	869
1435.49436240252	867
1436.13523467661	867.200012207031
1436.77602396349	867.599975585938
1437.41673027073	867.599975585938
1438.05735360585	869
1438.69789397641	869.400024414063
1439.33835138994	866.400024414063
1439.978725854	867.200012207031
1440.61901737612	869.200012207031
1441.25922596385	868.200012207031
1441.89935162473	868.799987792969
1442.53939436631	868.200012207031
1443.17935419612	869.200012207031
1443.81923112171	869.799987792969
1444.45902515061	867.599975585938
1445.09873629038	866.400024414063
1445.73836454854	867.400024414063
1446.37790993265	869.400024414063
1447.01737245024	867.599975585938
1447.65675210885	869.599975585938
1448.29604891602	868.599975585938
1448.93526287928	869
1449.57439400618	868.799987792969
1450.21344230426	868.799987792969
1450.85240778105	869
1451.49129044409	868.799987792969
1452.13009030092	869.599975585938
1452.76880735907	867.599975585938
1453.40744162608	870
1454.04599310949	868.799987792969
1454.68446181683	868.200012207031
1455.32284775564	867.599975585938
1455.96115093345	868
1456.5993713578	866.599975585938
1457.23750903623	867.200012207031
1457.87556397626	867.400024414063
1458.51353618543	866.200012207031
1459.15142567127	867.599975585938
1459.78923244132	866
1460.42695650311	867.400024414063
1461.06459786417	867.799987792969
1461.70215653203	866.799987792969
1462.33963251423	864.599975585938
1462.97702581829	866.400024414063
1463.61433645175	865.200012207031
1464.25156442214	865.200012207031
1464.88870973699	866.599975585938
1465.52577240382	864.400024414063
1466.16275243017	866.200012207031
1466.79964982356	866.799987792969
1467.43646459154	865.200012207031
1468.07319674161	865.799987792969
1468.70984628132	865.599975585938
1469.34641321818	868
1469.98289755974	866.200012207031
1470.6192993135	866.400024414063
1471.25561848701	865.799987792969
1471.89185508779	867.400024414063
1472.52800912336	865.400024414063
1473.16408060124	866.799987792969
1473.80006952897	867
1474.43597591407	866.599975585938
1475.07179976406	865.799987792969
1475.70754108647	866.200012207031
1476.34319988883	866.599975585938
1476.97877617865	865.599975585938
1477.61426996345	866.599975585938
1478.24968125077	865.799987792969
1478.88501004812	866.200012207031
1479.52025636303	865.400024414063
1480.15542020302	867.599975585938
1480.79050157561	865.799987792969
1481.42550048832	867
1482.06041694867	864.599975585938
1482.69525096418	866.400024414063
1483.33000254237	864.400024414063
1483.96467169077	865.200012207031
1484.59925841689	864.799987792969
1485.23376272825	865
1485.86818463237	865.400024414063
1486.50252413677	864.400024414063
1487.13678124896	865
1487.77095597646	865.400024414063
1488.4050483268	865.200012207031
1489.03905830749	864
1489.67298592604	867
1490.30683118996	864.599975585938
1490.9405941068	863.599975585938
1491.57427468403	866
1492.2078729292	865.799987792969
1492.84138884981	864.599975585938
1493.47482245338	865.799987792969
1494.10817374742	865
1494.74144273944	865.200012207031
1495.37462943696	866.200012207031
1496.0077338475	864.799987792969
1496.64075597856	865.599975585938
1497.27369583765	864
1497.9065534323	865.599975585938
1498.53932877001	866.400024414063
1499.17202185829	865
1499.80463270465	865.599975585938
1500.43716131661	866.200012207031
1501.06960770167	867
1501.70197186735	864.200012207031
1502.33425382116	864.200012207031
1502.96645357059	865.599975585938
1503.59857112317	864.599975585938
1504.23060648641	865
1504.8625596678	866.400024414063
1505.49443067486	865.200012207031
1506.1262195151	865.599975585938
1506.75792619602	865
1507.38955072513	864.799987792969
1508.02109310993	864.599975585938
1508.65255335794	866.200012207031
1509.28393147666	865.400024414063
1509.91522747359	865.599975585938
1510.54644135624	865
1511.17757313212	865.799987792969
1511.80862280872	865.599975585938
1512.43959039356	865.400024414063
1513.07047589413	865.799987792969
1513.70127931795	865.599975585938
1514.33200067251	865.400024414063
1514.96263996531	865.200012207031
1515.59319720386	865.599975585938
1516.22367239567	865.400024414063
1516.85406554822	865
1517.48437666903	864.400024414063
1518.1146057656	865.400024414063
1518.74475284542	865
1519.374817916	864.200012207031
1520.00480098483	865
1520.63470205942	865.200012207031
1521.26452114726	865.200012207031
1521.89425825586	863.400024414063
1522.52391339271	864.400024414063
1523.15348656531	864.599975585938
1523.78297778116	864
1524.41238704775	864
1525.04171437259	864
1525.67095976317	863.400024414063
1526.30012322699	865
1526.92920477154	866.400024414063
1527.55820440432	863.400024414063
1528.18712213283	864.799987792969
1528.81595796455	863.599975585938
1529.44471190699	864.400024414063
1530.07338396764	863.599975585938
1530.70197415399	864.200012207031
1531.33048247353	863.200012207031
1531.95890893377	863.400024414063
1532.58725354219	864.799987792969
1533.21551630629	862.400024414063
1533.84369723356	863.799987792969
1534.47179633148	864
1535.09981360757	862.200012207031
1535.72774906929	863.599975585938
1536.35560272415	862.799987792969
1536.98337457963	864.799987792969
1537.61106464323	865
1538.23867292243	863.599975585938
1538.86619942473	862.599975585938
1539.49364415762	863
1540.12100712857	863.599975585938
1540.74828834509	863.799987792969
1541.37548781466	863.799987792969
1542.00260554478	862.599975585938
1542.62964154291	864
1543.25659581655	864.599975585938
1543.8834683732	862.400024414063
1544.51025922034	863.599975585938
1545.13696836544	862.799987792969
1545.76359581601	863.400024414063
1546.39014157952	862.200012207031
1547.01660566345	864.200012207031
1547.64298807531	863.200012207031
1548.26928882255	862.599975585938
1548.89550791269	863.200012207031
1549.52164535318	863.200012207031
1550.14770115153	865.200012207031
1550.77367531521	864.200012207031
1551.39956785171	864.400024414063
1552.0253787685	863.599975585938
1552.65110807307	862.599975585938
1553.2767557729	863.200012207031
1553.90232187548	862.400024414063
1554.52780638828	862.599975585938
1555.15320931879	862.799987792969
1555.77853067447	862.599975585938
1556.40377046282	862.400024414063
1557.02892869132	862.400024414063
1557.65400536744	863.599975585938
1558.27900049866	863.599975585938
1558.90391409247	863.200012207031
1559.52874615633	863.799987792969
1560.15349669773	862.200012207031
1560.77816572414	864
1561.40275324305	862.599975585938
1562.02725926192	862.200012207031
1562.65168378824	862
1563.27602682948	863.400024414063
1563.90028839311	861.400024414063
1564.52446848662	863.599975585938
1565.14856711748	862.799987792969
1565.77258429316	863
1566.39652002113	862.200012207031
1567.02037430887	863.599975585938
1567.64414716387	863.599975585938
1568.26783859357	864
1568.89144860547	862.599975585938
1569.51497720703	863.400024414063
1570.13842440573	862.400024414063
1570.76179020904	863.599975585938
1571.38507462442	863
1572.00827765936	862.599975585938
1572.63139932132	861.799987792969
1573.25443961777	862.200012207031
1573.87739855618	863.400024414063
1574.50027614402	863
1575.12307238877	863.799987792969
1575.74578729789	863.799987792969
1576.36842087885	862.400024414063
1576.99097313912	863.400024414063
1577.61344408616	863.599975585938
1578.23583372745	864
1578.85814207046	862.799987792969
1579.48036912264	862.400024414063
1580.10251489147	862
1580.72457938441	863.200012207031
1581.34656260893	862.799987792969
1581.9684645725	862.799987792969
1582.59028528258	864
1583.21202474663	863.400024414063
1583.83368297212	862.400024414063
1584.45525996652	864
1585.07675573728	863.400024414063
1585.69817029188	863
1586.31950363778	863.400024414063
1586.94075578243	863.200012207031
1587.5619267333	863
1588.18301649786	863.400024414063
1588.80402508357	863.599975585938
1589.42495249788	863.599975585938
1590.04579874826	864.200012207031
1590.66656384217	862.400024414063
1591.28724778707	863.200012207031
1591.90785059042	863.599975585938
1592.52837225968	864.799987792969
1593.14881280232	863
1593.76917222578	863.200012207031
1594.38945053753	864.400024414063
1595.00964774502	864.200012207031
1595.62976385573	863.599975585938
1596.24979887709	863.599975585938
1596.86975281657	862.400024414063
1597.48962568164	862.400024414063
1598.10941747974	862.799987792969
1598.72912821832	863.599975585938
1599.34875790486	862.599975585938
1599.9683065468	863.799987792969
1600.58777415159	862.200012207031
1601.2071607267	862
1601.82646627958	864.799987792969
1602.44569081769	864
1603.06483434846	863.799987792969
1603.68389687937	864.599975585938
1604.30287841786	863.799987792969
1604.92177897139	864.799987792969
1605.54059854741	863
1606.15933715337	863.799987792969
1606.77799479672	862.799987792969
1607.39657148492	863.799987792969
1608.01506722542	863.799987792969
1608.63348202566	865
1609.2518158931	863.799987792969
1609.87006883519	865.799987792969
1610.48824085939	862.599975585938
1611.10633197312	865
1611.72434218386	863.599975585938
1612.34227149904	864.200012207031
1612.96011992612	865.400024414063
1613.57788747254	865.599975585938
1614.19557414575	865.599975585938
1614.8131799532	864.200012207031
1615.43070490234	865
1616.04814900061	865.400024414063
1616.66551225545	865
1617.28279467433	867
1617.89999626467	868
1618.51711703393	868
1619.13415698955	865.799987792969
1619.75111613898	866.799987792969
1620.36799448966	865.799987792969
1620.98479204903	869
1621.60150882455	868.200012207031
1622.21814482364	867.799987792969
1622.83470005376	868.400024414063
1623.45117452235	869.400024414063
1624.06756823685	868.400024414063
1624.6838812047	869
1625.30011343335	869.599975585938
1625.91626493022	868.200012207031
1626.53233570278	868.200012207031
1627.14832575845	866.400024414063
1627.76423510468	866
1628.38006374891	867
1628.99581169857	866.400024414063
1629.61147896111	864.599975585938
1630.22706554397	867
1630.84257145457	864.599975585938
1631.45799670038	864.400024414063
1632.07334128881	863.599975585938
1632.6886052273	865
1633.3037885233	864
1633.91889118425	865.200012207031
1634.53391321757	864.200012207031
1635.1488546307	864.200012207031
1635.76371543108	864
1636.37849562616	863.200012207031
1636.99319522335	862.200012207031
1637.60781423009	861.799987792969
1638.22235265383	862
1638.83681050198	861.599975585938
1639.451187782	862.799987792969
1640.0654845013	861.599975585938
1640.67970066734	863
1641.29383628752	862.400024414063
1641.9078913693	861
1642.5218659201	863.599975585938
1643.13575994735	863
1643.74957345849	862
1644.36330646094	862.799987792969
1644.97695896213	861
1645.59053096951	862.200012207031
1646.20402249049	861.200012207031
1646.8174335325	861.400024414063
1647.43076410298	862
1648.04401420935	860.599975585938
1648.65718385905	862.400024414063
1649.2702730595	861.200012207031
1649.88328181812	861.599975585938
1650.49621014236	862.200012207031
1651.10905803963	863
1651.72182551735	862
1652.33451258297	861.599975585938
1652.9471192439	861.400024414063
1653.55964550757	861
1654.1720913814	861
1654.78445687283	860.400024414063
1655.39674198926	862.200012207031
1656.00894673814	862
1656.62107112688	860.200012207031
1657.23311516291	861
1657.84507885365	861.599975585938
1658.45696220652	862
1659.06876522895	861.599975585938
1659.68048792835	860.400024414063
1660.29213031217	860.400024414063
1660.90369238779	861.599975585938
1661.51517416267	861
1662.12657564421	860.200012207031
1662.73789683984	861
1663.34913775697	862.400024414063
1663.96029840303	861.200012207031
1664.57137878544	861.599975585938
1665.18237891161	859.799987792969
1665.79329878897	860.200012207031
1666.40413842493	860.599975585938
1667.01489782691	861.200012207031
1667.62557700233	861.599975585938
1668.2361759586	861
1668.84669470315	860.599975585938
1669.4571332434	860.599975585938
1670.06749158675	861.400024414063
1670.67776974062	861
1671.28796771243	861
1671.8980855096	861
1672.50812313954	862.200012207031
1673.11808060967	861.599975585938
1673.72795792739	860
1674.33775510013	861.400024414063
1674.9474721353	861
1675.55710904031	860.799987792969
1676.16666582257	860.799987792969
1676.7761424895	860.400024414063
1677.38553904851	861.200012207031
1677.99485550702	861.599975585938
1678.60409187243	860.799987792969
1679.21324815215	861
1679.8223243536	862
1680.43132048419	861.799987792969
1681.04023655132	861.200012207031
1681.64907256241	861.599975585938
1682.25782852487	861.400024414063
1682.86650444611	860.599975585938
1683.47510033353	860.599975585938
1684.08361619455	860.599975585938
1684.69205203657	860.799987792969
1685.300407867	860.599975585938
1685.90868369325	860.799987792969
1686.51687952272	860
1687.12499536283	859.400024414063
1687.73303122098	860.799987792969
1688.34098710457	860.200012207031
1688.94886302101	860.599975585938
1689.55665897772	861.400024414063
1690.16437498208	860.799987792969
1690.77201104152	860.799987792969
1691.37956716342	859.400024414063
1691.9870433552	859.599975585938
1692.59443962426	860.400024414063
1693.20175597801	860.200012207031
1693.80899242384	860
1694.41614896916	859.799987792969
1695.02322562138	861
1695.63022238789	859.799987792969
1696.23713927609	859
1696.8439762934	860.400024414063
1697.4507334472	861.400024414063
1698.05741074491	859
1698.66400819391	859.400024414063
1699.27052580161	860.599975585938
1699.87696357542	860
1700.48332152272	861
1701.08959965092	860.200012207031
1701.69579796742	860.200012207031
1702.30191647962	858.799987792969
1702.90795519491	860
1703.51391412069	862
1704.11979326437	859.599975585938
1704.72559263332	860.599975585938
1705.33131223496	860.799987792969
1705.93695207668	860.599975585938
1706.54251216588	858.400024414063
1707.14799250994	859.799987792969
1707.75339311628	859.799987792969
1708.35871399227	860.400024414063
1708.96395514532	860
1709.56911658282	859.799987792969
